0.04310470643055505, 0.0424404554174151, 0.041886461479497386, 0.04125461312723695, 0.04064475447974538, 0.03996341459597843, 0.039399672998316995, 0.038922940716410205, 0.03836486274216532, 0.037817194577907096, 0.03722824868585644, 0.036703326141319985, 0.03620045036023919, 0.035680063970124944, 0.035163563102193124, 0.034588741800502726, 0.03408681553066819, 0.03357615243302948, 0.03307494404852416, 0.032573747629129395, 0.03212153755777264, 0.031615774560958446, 0.03105243974926158, 0.030563112950467604, 0.030074817861045624, 0.029675117757659155, 0.029179866978705, 0.02863226229644754, 0.028160090111769613, 0.027692127163805026, 0.02726391337855566, 0.026801255251189843, 0.026280888746329896, 0.02584150423021708, 0.02543790648618835, 0.02500324163626505, 0.024575663028997365, 0.02412205125918987, 0.02371376205323078, 0.023339954827087096, 0.022940751377817502, 0.022550230313540316, 0.022126829796104856, 0.021759590434200247, 0.021457793072062165, 0.021097593507563562, 0.020748633028408518, 0.020410874839819848, 0.020084301537836736, 0.019793979599211923, 0.019486625094530714, 0.019191912655120956, 0.018836161014642125, 0.018575603688237782, 0.018346603975330902, 0.018099954739271007, 0.017863817710366887, 0.01767021089153829, 0.017451874877190066, 0.017184771247551765, 0.017000355744332143, 0.016825514457128987, 0.016677479200674403, 0.016521195042581868, 0.016345114548053402, 0.016217025863002655, 0.01609964241919235, 0.01604694161403112, 0.01594567612040313, 0.015862848919154952, 0.015791315245900037, 0.015735013670604994, 0.015627083512932922, 0.015609666780012495, 0.015603745740117733, 0.015609904992543446, 0.015628680627544727, 0.0156722625402652, 0.015716230165440822, 0.015788203141790663, 0.015860047091074036, 0.015947847672538318, 0.01608350996803944, 0.016199674975048185, 0.01626051919592196, 0.016422295229993358, 0.01659798864425639, 0.01678982627114273, 0.016994763789668958, 0.017267047225008863, 0.01749693652149272, 0.017746074876182842, 0.017964267974129942, 0.018258080843718032, 0.018586596817466453, 0.018911137383979225, 0.019253817373308155, 0.019643245877991856, 0.02001920838521375, 0.020350314023204565, 0.0207750970421636, 0.02121646161785681, 0.02168495062918476, 0.022159712335450207, 0.02268644997244799, 0.023194400442782412, 0.02372336546144628, 0.024301739977640534, 0.024869114787682507, 0.02539392180162751, 0.02601453370455322, 0.026653707089965926, 0.027353599956319807, 0.02802572193892082, 0.028753208883236403, 0.029464937540983414, 0.030200389007788823, 0.030842290402966866, 0.031639124788430915, 0.03254759622465832, 0.03336591698559235, 0.03420739622664533, 0.03504846409213745, 0.03593871609453918, 0.03682027494508012, 0.037757174829932884, 0.038713909575567244, 0.03974926373406068, 0.04073912700183363, 0.041669334327978876, 0.04271727667211275, 0.04378389583891987, 0.044888017671381925, 0.045990936696627745, 0.0471531499817383, 0.04829305469949481, 0.049456198351633576, 0.05065905248074059, 0.051865857727848075, 0.05304603018864561, 0.05430583463334026, 0.05558567484431276, 0.05687396599770241, 0.05819566367980215, 0.059612185986499505, 0.060963750463301145, 0.06233936798598587, 0.06368835430772495, 0.06511680384694664, 0.06652151674763475, 0.0679948510581298, 0.06948537741049986, 0.07098669231157928, 0.0725132292751014, 0.07416586712683755, 0.07571380171112511, 0.07728559614420137, 0.07887877308518196, 0.08049614437407107, 0.08212001084403359, 0.08378173509815807, 0.08546295855666049, 0.0871632683229021, 0.08888227152149263, 0.09063128997958973, 0.09238508898107504, 0.0941571530317475, 0.09593535259940995, 0.09774414948136519, 0.09953255237829554, 0.10137844956603914, 0.10323807960419683, 0.10509641081332582, 0.10698539305812392, 0.10884539769204392, 0.11076528016591605, 0.11269561098940221, 0.11465838063639576, 0.11660758032237352, 0.11855230066568069, 0.1205279453148235, 0.1225145828707065, 0.12459402357878159, 0.1265920293576618, 0.12853340918576167, 0.13057009530193847, 0.1326162947014635, 0.1346784901842114, 0.13674223136157274, 0.13886695694139964, 0.14094215988517342, 0.14302872942096143, 0.14505734717429353, 0.14717293359817413, 0.1492736771648881, 0.15140206044854376, 0.15353416861151642, 0.15574679144871198, 0.15787633787678942, 0.16002522320231632, 0.1621677267652706, 0.1643168709518195, 0.16637486232715404, 0.1685469677736907, 0.1707628964845396, 0.17292672457990527, 0.17509175877598326, 0.1772892772301534, 0.1794512833926569, 0.18159478038652166, 0.18376165536189376, 0.18592746546089625, 0.18807996716733247, 0.19024348809840977, 0.19238359606686015, 0.1945424790543594, 0.19669595841593257, 0.19888716685080274, 0.20102337093553355, 0.20312382810196533, 0.205255307837897, 0.20737953984692375, 0.2094810353729487, 0.2115913118486328, 0.21376062191828618, 0.2158429099710475, 0.21791880686474646, 0.21994724399332088, 0.2220125887614061, 0.22407657027925904, 0.22611736047549186, 0.22814630498243554, 0.23023132272620556, 0.2322261370790507, 0.23423124266106563, 0.23620287557309894, 0.23809184569949332, 0.24004980832298337, 0.24199072991685086, 0.24394428069316718, 0.24584608511342, 0.2477296234597896, 0.24959778404389615, 0.25144795174431966, 0.2533279855552943, 0.2551342548108946, 0.2569235037348359, 0.2586947960024034, 0.26044725891539583, 0.26217673530304236, 0.2638895691334568, 0.26561284277615493, 0.26727839564015166, 0.2689231638745858, 0.2705830775998414, 0.2721791895758193, 0.27382611351946956, 0.27537009097553744, 0.27689521613284235, 0.2783967646674387, 0.2798806004632947, 0.28139345717148573, 0.28282420271111164, 0.2842332199856934, 0.28557418619570984, 0.28694197118146125, 0.2883741744964155, 0.28967487491142097, 0.29095232701596885, 0.29219537891983416, 0.29342435799632705, 0.29462319133328996, 0.29579829922380807, 0.29694512872643064, 0.29806986707034755, 0.2991578689016833, 0.30023003380565494, 0.3012575593486481, 0.3022559324135008, 0.30335511383220504, 0.30427761186043745, 0.30512715737914836, 0.30600907498469454, 0.30686297375985583, 0.30770167196271325, 0.30849628066452933, 0.3093474511316051, 0.3100735418879688, 0.3107749958209481, 0.31147091110470887, 0.3121178403661992, 0.31272879779443047, 0.31332438981261995, 0.31389217361747757, 0.31438329791242625, 0.31490051411649694, 0.31544144546786096, 0.3158890796285125, 0.3163088975977033, 0.31674920201344287, 0.3171068553095535, 0.3174575207655332, 0.3177617515468567, 0.318041024791586, 0.31828666645097764, 0.31851622359628656, 0.3186829211234887, 0.31886495000005594, 0.3190189148081426, 0.3192037347288367, 0.31929548721346784, 0.3194272972922733, 0.31946413771960136, 0.3194811733315709, 0.3194563049433387, 0.31943547196802985, 0.319431273267613, 0.31936210777320806, 0.31927362127682024, 0.31908387841175, 0.3189670358752113, 0.3188614790938918, 0.3186934436055428, 0.3185052716380971, 0.3183342756372889, 0.3181028535669453, 0.31787846987027013, 0.31761169596142413, 0.3173305716992475, 0.31696514819933375, 0.31666497263941223, 0.3163942031230595, 0.3160543300806357, 0.3157016517068346, 0.3153668203729401, 0.31498647935898827, 0.31461187192295675, 0.31421143531089346, 0.3138034267406031, 0.31330636437528553, 0.3128948247796823, 0.3125694125242903, 0.3121252501622697, 0.3116781361304385, 0.3111783088236683, 0.3107328071172848, 0.31033130468416287, 0.30987170687134824, 0.30941227499951285, 0.30894855941450305, 0.308491831773807, 0.30806355546386843, 0.3076076102112215, 0.30715637873373036, 0.30670375386271315, 0.30626457750364605, 0.3058149087676126, 0.3053910509045721, 0.30497404190367283, 0.3045013416075444, 0.30410894644008407, 0.3038046179218687, 0.30341572633358765, 0.3030405296640364, 0.3026864273495791, 0.302339953169909, 0.30196801117814276, 0.3016601843172037, 0.30136784603536454, 0.30114059521722547, 0.300876502001816, 0.3005454088151129, 0.30033634062909753, 0.3001452888437843, 0.3000071409013416, 0.29985223105331843, 0.29971307056463, 0.2996084482647452, 0.29952948949198277, 0.29949062093574846, 0.2994644509973359, 0.2994845139995646, 0.2995161634233869, 0.2995800430242307, 0.29968023773173874, 0.29981039459269965, 0.29997021568164856, 0.3001711046847938, 0.3004078856114459, 0.3006445947033872, 0.30096020656097167, 0.3013655187308337, 0.3017479137472174, 0.30217167941379697, 0.30256554437993605, 0.30308290745913585, 0.30368620179912814, 0.3042771383331623, 0.30491219260949476, 0.30561379835382274, 0.3063364640363794, 0.30712328487206797, 0.3079392384799258, 0.3088046102188201, 0.3096746806088719, 0.31064581424795273, 0.31164671565556346, 0.312717291913012, 0.31383659183615137, 0.31503392525905993, 0.3162497365312422, 0.31746662238063933, 0.3187952711103724, 0.3201749413152004, 0.32162326382873807, 0.32310555767288723, 0.32462399281974785, 0.32621825402950244, 0.3278671626404739, 0.32961817819143957, 0.3313724216540429, 0.3332175412213101, 0.3350861654479865, 0.33701598653304915, 0.33901692175263415, 0.3410675716398184, 0.34307279092286486, 0.3452598832102369, 0.3475022872877989, 0.34986930811071143, 0.3522159569763886, 0.35455702958627927, 0.3570346498997144, 0.35956975519716483, 0.36219460837065465, 0.3648421320350124, 0.367533528993933, 0.37030437917097364, 0.37317337144847995, 0.3760588981814818, 0.37900648584595015, 0.382030897587432, 0.38509987371341686, 0.38814736263119387, 0.391350623652664, 0.3946104457601309, 0.397922086268784, 0.40129639323350325, 0.4047058250842629, 0.40819665488202567, 0.41174319914881397, 0.41532551812693086, 0.4189862805537124, 0.4227685642735319, 0.42653026988876747, 0.43035039171678396, 0.4342232474107519, 0.43815881982529675, 0.4421154017672452, 0.4461669585941504, 0.4502713194946981, 0.4543963280300454, 0.4586090411376042, 0.4628780902940154, 0.46718896512268865, 0.4715491987461867, 0.47599673139882237, 0.4804492832221441, 0.48484141020846794, 0.4894066735226918, 0.49401367623837983, 0.4986740205232653, 0.5033626172251698, 0.5081765273082337, 0.5129375609941744, 0.5177439255251248, 0.5225174079926324, 0.5274201372223136, 0.5323481992641481, 0.5373257822518851, 0.542338299660698, 0.547364976629248, 0.5524476626956137, 0.5575601182858845, 0.5627051446467082, 0.567879939900565, 0.5730385057150993, 0.5782758411762822, 0.5835793665844891, 0.5888595558935948, 0.5941650284900296, 0.5994979224993251, 0.6048498923342406, 0.6101333823758673, 0.6155389502509426, 0.6209585352401388, 0.6263781230659247, 0.6318253856771735, 0.6372836595807345, 0.6427521082054329, 0.648229800879628, 0.6537658541750441, 0.6592525746431833, 0.6646662048670815, 0.670179238686519, 0.6756932180194097, 0.6811971433998278, 0.6867112780018807, 0.6922761064988205, 0.6977768008241938, 0.7032754086410412, 0.7087568814867308, 0.7142479654278138, 0.7197462098892127, 0.725218061859896, 0.7306797232380894, 0.7361227969262557, 0.7415597920245977, 0.7469593843053383, 0.7523661347987057, 0.7577527229879399, 0.7631277223471, 0.768468342002026, 0.773751532324746, 0.7790467835310647, 0.7843129951851103, 0.7895605568285529, 0.7947632558453221, 0.7998867699890825, 0.8050291124550609, 0.8101334617509827, 0.8152187514166627, 0.820241171330177, 0.8251747613698682, 0.8301211584993384, 0.8350216305797787, 0.8398534094002885, 0.8446615897572857, 0.8494744797434577, 0.8541738032704965, 0.8588237027095265, 0.8633641291834568, 0.8679179037761797, 0.8724494207123745, 0.8768830107770484, 0.8812590836228789, 0.8855962861163917, 0.8898505778526095, 0.893997491650561, 0.8981349811891488, 0.9022062052035295, 0.9062117329826977, 0.9101468941732056, 0.9139824578703298, 0.9177812369567291, 0.9215065106959764, 0.9251673980118374, 0.9287416450866447, 0.9322836027008711, 0.9356998330099525, 0.9390406659444602, 0.9422646004541255, 0.9454555721955998, 0.9485481451606708, 0.9515769239728765, 0.9545212230458353, 0.9573819313465544, 0.9601547070861661, 0.9628190117885216, 0.9654202366570795, 0.9679318949265541, 0.970334991252094, 0.9726679891660142, 0.9749870615106222, 0.9771247147663572, 0.9791733279222806, 0.9811083652385831, 0.9829785061839696, 0.9847534149892809, 0.9864359005529775, 0.9880232824593557, 0.989516580827994, 0.9909116292504566, 0.9921363017723106, 0.9933463969162042, 0.9944544521856744, 0.9955458083576719, 0.9964393231558707, 0.9971372398446495, 0.9978485557510544, 0.9984560938966756, 0.9989584556719392, 0.999359431115232, 0.9997207523464051, 0.9999075889495384, 0.9999952150875706, 1.0, 0.9998861244436549, 0.9996547375698618, 0.9993446153168015, 0.9989337771647352, 0.9984305485942383, 0.9978171771845273, 0.997038430323855, 0.996232924582244, 0.9953236746052097, 0.9942946257030058, 0.993181949783907, 0.9919999314728647, 0.9906782530178261, 0.9892571663874075, 0.9877254192476161, 0.986108353137716, 0.9843441657107957, 0.9825365158289356, 0.9806287195266725, 0.9787070301089648, 0.9765912222885436, 0.9743630002807554, 0.9720652758873589, 0.9696746781574196, 0.9671399759630935, 0.9645719413054236, 0.9619584346036387, 0.959197525176012, 0.956347628378411, 0.9534044424802796, 0.9503793843910172, 0.9472121809408722, 0.9440209771588404, 0.9407414787428671, 0.9373934630900395, 0.9339392170588535, 0.9303650721188091, 0.9267503999579174, 0.9230529313633286, 0.9193092702492149, 0.9154462818513832, 0.9115152870288815, 0.907499687844257, 0.9034105572703556, 0.899234004183316, 0.8950031892419621, 0.8906664454774145, 0.8862997553418037, 0.8819248238753202, 0.8774118456854034, 0.8728355880235656, 0.8681186477910182, 0.8634292201517667, 0.8587224467519496, 0.8539007356042747, 0.8490212829994558, 0.8440604778230746, 0.8390730934290612, 0.8340610562155937, 0.8289621120976253, 0.8238135298090205, 0.818621772237254, 0.8133776536048053, 0.8080735604565963, 0.8027429527042376, 0.7973695498049305, 0.7918814738981722, 0.7864367302416885, 0.7809834516993678, 0.7754528281173148, 0.7698865721776921, 0.7642715045823065, 0.7586414444953453, 0.7529770836235375, 0.7472874512097432, 0.7415704867716645, 0.7358447920018716, 0.7300766957501914, 0.7243011654317111, 0.7184914542802951, 0.7126650479106216, 0.7068168275821745, 0.7009625823325389, 0.6950592282759268, 0.6891865854283391, 0.6833028233229405, 0.6774549993880405, 0.6715490720825351, 0.6655433403932841, 0.6596453715413074, 0.6537420337603084, 0.6478757072250969, 0.641963297945642, 0.6360192489957446, 0.6301198949460288, 0.6242254231250334, 0.6183160524125638, 0.6124398607166357, 0.6066097508467114, 0.6007495012890085, 0.5949044722600385, 0.5890477829155032, 0.5832413473030869, 0.577439688519212, 0.5716729283218915, 0.565926904729185, 0.5601682356071906, 0.5544731977998336, 0.5488202784104864, 0.5431722284589522, 0.5375525443077762, 0.532036290633459, 0.5264686062491184, 0.5208977783715322, 0.5154098979793648, 0.5099583801604678, 0.504514338456946, 0.4991429103927795, 0.49387151431579607, 0.48857005817618276, 0.48331299546099854, 0.47802759416449103, 0.472871017697291, 0.4677588153607096, 0.46268886331095316, 0.45766450099551725, 0.4527338057096222, 0.44779851249281305, 0.4428449447296014, 0.43802309436696735, 0.4332507102268961, 0.42851740031168695, 0.4238492667462843, 0.41924198776642985, 0.41467897809506754, 0.41017122437348214, 0.40570298376666203, 0.40131069972803357, 0.39698214927846454, 0.39270405471619607, 0.3884851899755412, 0.38429121582059417, 0.380197454471901, 0.37620984781211625, 0.37222978600297135, 0.3683134062146885, 0.3644577211323875, 0.3606701693023973, 0.35693708065910673, 0.3532800878033018, 0.3496876193506872, 0.3461850806828162, 0.34271947378721057, 0.3392605501609079, 0.3359362643621568, 0.33267549883975067, 0.3294971315000288, 0.3263624991375658, 0.32335051220929784, 0.32034050083822163, 0.31739975849203333, 0.3145496181969265, 0.31174351394671446, 0.30891152802397726, 0.3062556840971017, 0.30366285096181195, 0.30109990443354423, 0.29863813301703834, 0.29631503139489745, 0.29396749241943826, 0.2916866712012497, 0.2893935735601112, 0.28725474884746927, 0.28522029758173334, 0.2831979839100704, 0.28123925098826397, 0.2793721390671446, 0.27753583944193194, 0.27570335565170295, 0.27400191912195937, 0.27235969674755445, 0.2707931873776545, 0.26926658079236193, 0.2678043154718425, 0.2663952051589701, 0.26504461699795623, 0.26379703494006035, 0.2625558559428894, 0.2613319728636997, 0.2602131481786775, 0.25914892787328764, 0.2581118784345316, 0.2571581315106434, 0.25628874223653314, 0.2554320853622589, 0.25462707695548775, 0.25380428239919417, 0.2531084610158067, 0.2525094544824304, 0.2518967083533322, 0.2513310060777319, 0.2508097125730131, 0.25033540398895937, 0.24989508799337426, 0.2495090967057579, 0.24916457202962908, 0.2488305018269395, 0.2485698928084065, 0.24842139794142043, 0.2482243629807313, 0.24806691643246345, 0.24790918000117945, 0.24783147503962502, 0.2477970030973279, 0.2477834087317954, 0.2478015023754867, 0.24782340972911482, 0.247904848576471, 0.24799301176266167, 0.2481296191017255, 0.24829000961559483, 0.24855859771899183, 0.24875330901461565, 0.24888045955993077, 0.24913743552817488, 0.24941202483759553, 0.24970181071104067, 0.25000955401854036, 0.25040764225325246, 0.25073531450905506, 0.2510806051815855, 0.2514252781537082, 0.25180339126169904, 0.25213693627793243, 0.25254547451147913, 0.2529605850226957, 0.25341159192133267, 0.25383374202936976, 0.2542567684739504, 0.2546902377652226, 0.2551271338018299, 0.2555697580360441, 0.2560099654397197, 0.2565074899282606, 0.2569404592866046, 0.2573750151056111, 0.2577545189798543, 0.25819480735360306, 0.25862429100418316, 0.25905276733597926, 0.25951522033792895, 0.2599219912308295, 0.2603216565946949, 0.26064286807598674, 0.2610337470758561, 0.2614687011238212, 0.26182288026685935, 0.26216493395832446, 0.26240695224828964, 0.26273273090704324, 0.2631304700025765, 0.2634045116148261, 0.26366326555245784, 0.2638137578036206, 0.26405040901194154, 0.2643070088908161, 0.2644909804251517, 0.2646534644638393, 0.26474536917989905, 0.2648691186960694, 0.2649784858225739, 0.2650483786817477, 0.2650923745668045, 0.26511510542135613, 0.2651055153348721, 0.2650824950144013, 0.26501716384485513, 0.26492487895548245, 0.2647967296266262, 0.26464994704558553, 0.2645359644580121, 0.26432287878083405, 0.26408339355143295, 0.26376146851853377, 0.26347354875029716, 0.26317540116359844, 0.2628205982998657, 0.26243460574097766, 0.26196523223739765, 0.2615222783623724, 0.26111935913812245, 0.26059669636478255, 0.2600433202962275, 0.2593584505662239, 0.2587548370679925, 0.25819539767103117, 0.2575064796582995, 0.25678532944341725, 0.2559965711590066, 0.25521458912149625, 0.2543208222742953, 0.2534788574254744, 0.2525979268659478, 0.25167544621803656, 0.2507192103598983, 0.2498211448132755, 0.24877930675271348, 0.24770688858237488, 0.24659528108971343, 0.24546205751002545, 0.24430054222520017, 0.24310361202431735, 0.24187524501189298, 0.24052691393947118, 0.23924702979794624, 0.23798110898448427, 0.23662341756865563, 0.2352340546835624, 0.23383009705456195, 0.2323763867669079, 0.23090142754606158, 0.22938771685066334, 0.2278454288188165, 0.226216330363881, 0.2246250797367145, 0.22299949207546316, 0.22134749707910525, 0.21966593630125877, 0.21794223686918696, 0.2162055969418822, 0.21450445777211344, 0.21270462971497064, 0.21088201790560965, 0.2089734000927397, 0.20711412704637272, 0.20517599310372975, 0.20327361606420688, 0.2013446395328532, 0.1994638746262203, 0.19747618076196138, 0.1954379001912608, 0.19341704028901505, 0.19137656820204793, 0.18933398346809005, 0.1872545284983198, 0.1852021785894446, 0.18308516913714135, 0.1809555139633995, 0.17878175843349894, 0.17663176626016303, 0.17447841521099486, 0.17230108261251673, 0.17011233218710237, 0.16786266691437488, 0.16565934166851967, 0.16341031993825952, 0.1611877557977455, 0.15895317534899386, 0.15679308647522305, 0.15452748545141423, 0.1521814486642687, 0.1499188585513761, 0.14764927671320663, 0.14545235881787028, 0.14316216482610875, 0.14082246985685692, 0.1385402363436369, 0.13625658486663458, 0.13399575753734885, 0.1317088395916094, 0.1294627510519394, 0.1271763830571845, 0.124895818094427, 0.12259298102594988, 0.1203286597862604, 0.11804294492582991, 0.11579337789855575, 0.11354903149417914, 0.11132251143795595, 0.10908982671025, 0.1068623268473698, 0.10464786053623602, 0.10244320728461738, 0.10026415506401729, 0.09807945793998483, 0.09585414824366503, 0.09370252174382081, 0.09156193037643012, 0.08951193203832368, 0.08738648012106258, 0.08525430008628863, 0.08316892847394752, 0.08110099376744566, 0.07905434042556361, 0.07702236518029541, 0.0749961550543956, 0.07300461201753602, 0.07103240205476126, 0.0690199480552773, 0.06709573760897611, 0.06522259983502499, 0.06333048226580382, 0.061459846852137415, 0.05961296487413407, 0.057786851302853805, 0.0559689808836471, 0.05419183031408646, 0.05243808473568457, 0.05072000815852548, 0.04901325469435545, 0.04739230736537967, 0.045729607544117125, 0.04409663999051266, 0.04243308767033565, 0.04086675561464347, 0.03930971051401423, 0.037797918606244776, 0.03631201680895686, 0.03486921599493613, 0.033434434939963405, 0.032096357164740165, 0.030709526069256955, 0.02935517431437969, 0.028068033982693995, 0.02677317153124157, 0.025493434355474884, 0.024267395058532853, 0.023072868043321572, 0.021887887680127126, 0.020758439275206146, 0.019660322959043117, 0.018590001833635943, 0.01754946583114052, 0.0164952631928794, 0.015519773909010853, 0.014606696228835977, 0.0136817357065778, 0.01278666632204233, 0.012004985868164569, 0.01115895824988585, 0.010295510460732847, 0.009524038595854404, 0.0087825944197859, 0.008065955719599952, 0.007384577065689322, 0.006842616036710436, 0.006205383761412725, 0.005603134449731636, 0.0050130801894664855, 0.004480453078567432, 0.003998744494352468, 0.003524696611466636, 0.0031533109116361224, 0.002731104714327773, 0.0023424225151637205, 0.001997804951655321, 0.001671336270403525, 0.001340817064478579, 0.0010799248533181307, 0.000846307608928735, 0.0006879347360252315, 0.0005013009734115513, 0.00034830031380879596, 0.00021748054483434784, 0.00011404638933344906, 0.00012084679513354294, 5.956430578663684e-05, 0.0, 1.3357984586668552e-06, 2.887151433836186e-05, 0.00011024402617709123, 0.00018434003742599832, 0.0002941322037833599, 0.0004174736627982136, 0.000565466114274654, 0.0008192185467316853, 0.001003905658577473, 0.0011939824378335848, 0.0014343829131249982, 0.0016982815555452947, 0.0020282754050436015, 0.0023312017752705858, 0.002659404350065802, 0.0030083327501174897, 0.0033790609447144062, 0.0037774414574649542, 0.004188504566852854, 0.004657899764093761, 0.005103214004937752, 0.005569271558474942, 0.006023437291268197, 0.00653242348422935, 0.007096388594223571, 0.00763319435773539, 0.008187907032908861, 0.0087799071061153, 0.009365937831255666, 0.009969146743317845, 0.010588850549026056, 0.01122442455762019, 0.011945480778587687, 0.012602249739860363, 0.013218756391326107, 0.013918356785734137, 0.014630974988479388, 0.015352918801743791, 0.01609096826772246, 0.016860917425910872, 0.017619863541819818, 0.018391270536534443, 0.019259962551127385, 0.02004434535901915, 0.020779686401135943, 0.02160356377293824, 0.02243801000060899, 0.02333120741484588, 0.024179850518353578, 0.02500925987368024, 0.025886341393397072, 0.0267730040306548, 0.027722490586047952, 0.02862088189366792, 0.02956297354660322, 0.030480648067499384, 0.03141091900982414, 0.03227619267492493, 0.03323928994411067, 0.03428562234659611, 0.035251868571239464, 0.03622905562405604, 0.03719328658807386, 0.038193875667703596, 0.03923453595156896, 0.0402476259871185, 0.04127059362169463, 0.04226801832126567, 0.043314248420558435, 0.044332469447434394, 0.04539740669603229, 0.04646767101432295, 0.047583765052369685, 0.048660774503002435, 0.04978490212655632, 0.05087441527127034, 0.051974780472129355, 0.053025564616935375, 0.05415447112385977, 0.05530188822123075, 0.05644330341234505, 0.057592893388222495, 0.058729168692392385, 0.059898556243402915, 0.06107392687669369, 0.06225923986026581, 0.0634529035923573, 0.06471879793024773, 0.06592225539279707, 0.06709526843202367, 0.06833004978930173, 0.06957509693465581, 0.07091925084721193, 0.07217445714644011, 0.0733621760821757, 0.07465964737279772, 0.07596772513548555, 0.0773319433561837, 0.07865676766588256, 0.08004107359805013, 0.08138895273728038, 0.08275383518910971, 0.08411207555201669, 0.08551325025612097, 0.0868828041887751, 0.08832038606861348, 0.0897708526224787, 0.09123814191600331, 0.09271572466510118, 0.09421981126726532, 0.0957260463344218, 0.0972487705570575, 0.09874494020366567, 0.10030735027673594, 0.10191510896262866, 0.10350501425329002, 0.10511335387988323, 0.10677565780578556, 0.10841773777357286, 0.1101032457690439, 0.111786131404187, 0.11349226012887102, 0.11515816128444259, 0.11691894120074506, 0.11870296797574519, 0.12050380159559858, 0.12232603111249762, 0.12415519914098644, 0.12602384616204662, 0.1279531605026836, 0.1298620544865154, 0.1317965869838179, 0.13377206641344982, 0.13575679164432114, 0.13766355944386302, 0.13971640947859615, 0.1417910411900177, 0.1439453303862332, 0.14605943131493657, 0.14814961785970532, 0.1503264027951635, 0.1525288717092326, 0.15483297347222047, 0.1570794937859028, 0.159324569809034, 0.16163924626870266, 0.16398400493987034, 0.1663658276317924, 0.16877078648832752, 0.17118032338828293, 0.17365150233931284, 0.17615291043176118, 0.17874010809319887, 0.18129621651310387, 0.18387677578649647, 0.18650298979684576, 0.18916291439154742, 0.19180643619762175, 0.19454018757516475, 0.1973166213565854, 0.20011131286578845, 0.20293849911232514, 0.20579009271986615, 0.2086841008478883, 0.21165764627857625, 0.21461148927645163, 0.21760118487190883, 0.22055636514881358, 0.22362610744121142, 0.22674063122744062, 0.2298719330905507, 0.23303618455205663, 0.2361984912133347, 0.2394336326264491, 0.24270023033553453, 0.245998651015715, 0.2493291925896154, 0.25269376042162883, 0.2560889764875681, 0.2595202798181446, 0.2629806202731091, 0.26647396138071133, 0.26994342901313645, 0.27350974464169253, 0.27714736777357313, 0.28076775904255385, 0.2844205305875481, 0.2880520016599601, 0.2917756427868757, 0.2955045543702056, 0.2992886169206084, 0.30316371761405286, 0.30699499410761305, 0.3108576158328706, 0.31471263154992335, 0.3186412402786414, 0.32255901482863253, 0.3265474384438658, 0.3305607644319019, 0.33462068307764153, 0.33868088500086485, 0.34278023873323393, 0.3468898845276594, 0.35102515818897784, 0.3551887835879531, 0.35937301429101953, 0.3635393662367414, 0.36777596890554703, 0.3720326984603422, 0.3763208531899614, 0.3806151045765578, 0.38491206917403714, 0.3892466342817825, 0.3935983601256402, 0.3979182121750713, 0.40230862123703687, 0.40675005505789996, 0.41116047813344164, 0.4155849512705225, 0.42001768648238114, 0.42446853854781613, 0.4289608246034562, 0.43342976414262824, 0.43791007958842676, 0.44233882544341774, 0.44684636708296094, 0.4513434417014794, 0.45586142372496136, 0.46038186236793815, 0.4648907901363386, 0.4694159707444852, 0.4739609256135743, 0.47848234564665476, 0.4830032144703835, 0.4874624267117492, 0.4919869271069763, 0.4965814380147523, 0.501081955284258, 0.5055787511075027, 0.5100003188906488, 0.5144945894064319, 0.5189655641897761, 0.523437385728986, 0.5278954272304069, 0.5323422746908482, 0.536770003002542, 0.5411984010648072, 0.5455909842134576, 0.549966522239386, 0.5543723139941839, 0.5587041336258849, 0.5629779936959675, 0.5672775861826929, 0.5715539337328535, 0.5757774369549115, 0.5800073062287828, 0.5842171001992095, 0.5883880740536513, 0.5925290998812923, 0.5967075887210197, 0.6007767335684853, 0.6047846761266049, 0.6087972411650204, 0.6127752527500894, 0.6166589051119209, 0.6205712685126563, 0.6245170958729065, 0.6283356915785501, 0.6321151483710087, 0.6357938346630503, 0.6394982435264356, 0.6431374635616953, 0.6467497145111162, 0.6503123664395803, 0.653866430028157, 0.6573222681802711, 0.6607150827061317, 0.6640721056656653, 0.6673763521794353, 0.67059502281201, 0.6737945886794885, 0.6769682166622552, 0.6800476183356184, 0.6830695439480376, 0.6859961602152873, 0.6889045890747968, 0.6918138203324958, 0.6945881021174961, 0.6973017867550453, 0.699921858786542, 0.702514620354278, 0.7050864809785284, 0.7075406385999812, 0.7099296022871968, 0.7122321248038271, 0.7144897130398042, 0.7166642078370097, 0.7187831741844222, 0.720829971452299, 0.7228122607704771, 0.7247115969199107, 0.7264954224896192, 0.7282518613191339, 0.7299308249951677, 0.7315386743785239, 0.7330608566589907, 0.7345350045446563, 0.7358967440259435, 0.7371812349256279, 0.7383544083477284, 0.7394867216863988, 0.7405982359745551, 0.7415607580939956, 0.7424451600480401, 0.7431554433920776, 0.7438934710570442, 0.7445409718644271, 0.7451088123583092, 0.7455912317303934, 0.7460552481739113, 0.7463588699844125, 0.7465394853923899, 0.7466854923941942, 0.7467471026058675, 0.7467159615193059, 0.7466098437202645, 0.7464606619041338, 0.7461796763679293, 0.7458163912246618, 0.7452903684837966, 0.7447719965624815, 0.7442548623070875, 0.7435512028886913, 0.7427662879077384, 0.7418146891463538, 0.7408774933609681, 0.7398688838837902, 0.7387575516926318, 0.7375619259754667, 0.7363242844337509, 0.7349562911860626, 0.7334944817470427, 0.7319674527282253, 0.7303596130657817, 0.7286730061910615, 0.7269044830875433, 0.7249879423906646, 0.7230695277218939, 0.721068704106733, 0.7189982379369373, 0.7168342874245609, 0.714635134537749, 0.7123092731841596, 0.7099089572662628, 0.70748316860321, 0.7049294217337019, 0.7022488127433386, 0.6995624121605154, 0.6968033729013613, 0.6939391523572146, 0.6910417157140804, 0.6881175748464267, 0.6850719912755129, 0.6819595101774282, 0.678727474054618, 0.6754904458950094, 0.6722345400754776, 0.6688580616046051, 0.6654196517327672, 0.6618600795509525, 0.6583082300729693, 0.6546956292425555, 0.6510202343597906, 0.6472855023990178, 0.6435062438380571, 0.6396554536532492, 0.6357937945931613, 0.6318301637817497, 0.627817229698072, 0.6237124891826773, 0.6196093241885725, 0.6155208946494837, 0.6113136017981042, 0.6070639657918379, 0.6027695593419223, 0.5984384667179984, 0.5940560732288683, 0.5896483674167441, 0.5852026761197917, 0.5806785177296899, 0.5761660482801749, 0.5715553795160774, 0.5669796888251705, 0.5623926040930877, 0.5577429795577781, 0.5530625325384059, 0.548394841388117, 0.5436528328058309, 0.5389210575454266, 0.534129806111197, 0.5293199730671371, 0.5244191471791726, 0.5195848382297177, 0.5147212698093372, 0.5098515887679588, 0.5049657233508121, 0.5001273308169146, 0.4952067187707277, 0.4902102338676265, 0.48528477546143317, 0.4803505597277988, 0.47542945232637807, 0.4704805787648475, 0.465584521585724, 0.4606255422524736, 0.4556703614785886, 0.45069496395405423, 0.4457537425827554, 0.44077640695072723, 0.4358531536018178, 0.43093594317031747, 0.4260782794094524, 0.4211716657178285, 0.4162188238990321, 0.41134884365573804, 0.4064917684164137, 0.4016659904531212, 0.39683760852679806, 0.3920680767394411, 0.3872735237272036, 0.38250276383655524, 0.37767662835686483, 0.3729667409851514, 0.368322769534907, 0.3636540556692232, 0.35901363730848845, 0.3543659936451585, 0.3497905232620873, 0.34530678522406844, 0.34078478454596506, 0.33629906351440303, 0.3318053797198478, 0.32740056386602073, 0.3230137765121383, 0.31868537152102994, 0.3143948359569757, 0.3102086734658553, 0.30598957672210914, 0.30172727065210786, 0.2976107335984945, 0.2935358951887981, 0.2895843557224112, 0.2855868620519508, 0.2815576231692533, 0.27767127921718343, 0.2738315381608346, 0.2700563183988008, 0.2663112197514105, 0.2626070418255365, 0.25896597045756314, 0.2553769697950614, 0.2518542673266919, 0.24837024401995442, 0.2449849166735856, 0.24160650370483377, 0.23828696141331113, 0.23495463224820576, 0.2317625250154957, 0.22861252005058497, 0.22553385113048294, 0.22251144731445838, 0.21959789270533095, 0.2166837388569734, 0.21381584420644675, 0.2110263460761643, 0.20829760653264748, 0.2056766726611825, 0.2030642793619967, 0.20045914568115428, 0.19798188825319296, 0.19556513940653353, 0.19326266616610513, 0.19096100751388856, 0.1886316959482635, 0.18646990209515676, 0.18436668480627827, 0.18240943312160113, 0.18041377773343323, 0.17842097592455008, 0.17656205836498784, 0.17476347937582842, 0.17303367493171065, 0.171354905970132, 0.16970862301527337, 0.16815509716594434, 0.16666056032014492, 0.16533197935938126, 0.16394189266978124, 0.16257823637598628, 0.16132172293652375, 0.16012594082803347, 0.15894683883802252, 0.15787620491465984, 0.15686373050925626, 0.15590560939496945, 0.15500351777407628, 0.15415208440823674, 0.1533615707062577, 0.15261558426123212, 0.15193501116557143, 0.1513075199897058, 0.15073267848736566, 0.15021000821690617, 0.14979914574771333, 0.14937160627714693, 0.14899793057788033, 0.1486251967940332, 0.148362468225125, 0.14819420497747376, 0.14802027770063067, 0.1478953487185895, 0.1478083130707834, 0.14777942810366212, 0.14778743144841247, 0.14784913087760762, 0.14795368473314813, 0.14805841981486947, 0.14825126262971744, 0.14845348104377515, 0.14872488582776272, 0.14903123190044912, 0.14947565330205909, 0.14983729349999447, 0.15023973171990196, 0.15067790941915726, 0.15115234604084332, 0.15162986483137053, 0.15217659469267236, 0.15272188948748616, 0.153332202097992, 0.15396892135812335, 0.15464293226503392, 0.15532851391030908, 0.15600352828825617, 0.15674159563005619, 0.15750020145877694, 0.1582735858546878, 0.1590716156053718, 0.1598624608690659, 0.16069858975706888, 0.16154948850730666, 0.16248797908221504, 0.16335695142745815, 0.164220822281963, 0.16512434243402796, 0.16604041382329968, 0.1669611512541045, 0.1678995764498619, 0.1688917209657417, 0.16984052349429565, 0.170798223504182, 0.17170653024540863, 0.1726848347033301, 0.17373642538835696, 0.1747076265993283, 0.1756825162104422, 0.1766245148836384, 0.17760681756847324, 0.1786166338684422, 0.17958896539759042, 0.18055835841932855, 0.1815519681535715, 0.1825081768800277, 0.18336415852695587, 0.1843210965454478, 0.1852650536773261, 0.18629581952398522, 0.1871996743360114, 0.18800941058426537, 0.18890486391155037, 0.18978393663684406, 0.19063603975197088, 0.19148190836481174, 0.19237091064938228, 0.19317103121792933, 0.1939548253618916, 0.194734584886211, 0.19548085294773943, 0.19615832156816884, 0.19687254233000345, 0.19756323363092929, 0.1982047843187627, 0.19884994676659304, 0.19946351558323405, 0.20005580261388536, 0.20062050830446287, 0.20115895418566457, 0.20166721747850033, 0.20221206068784975, 0.20265449059443216, 0.20304943555992644, 0.2034421456215432, 0.20380605099004953, 0.20417726998975616, 0.20447701797882836, 0.2047381681322919, 0.2049812034625397, 0.20519349882379212, 0.20536273360826526, 0.2055132089983345, 0.20560048790418997, 0.20568814559307838, 0.20574025649575203, 0.2057183023962825, 0.20570392652699973, 0.20568668568209894, 0.20559218521597425, 0.20546211679173657, 0.2052612702751238, 0.20506416052042353, 0.20486929977218837, 0.20459160700111323, 0.20427868931587015, 0.20392871677416397, 0.20354511124340283, 0.20316422654506733, 0.20270427003491442, 0.20221065331870072, 0.2016412761890226, 0.20108471289131383, 0.20053146344100012, 0.19989643469690085, 0.19922725256757337, 0.19848035686671162, 0.19774807534038305, 0.1969840293598414, 0.19617794090801247, 0.1953361199426159, 0.19452742245976273, 0.19360650901163587, 0.19259125962988904, 0.19161652174661026, 0.1906070987752164, 0.1895835225795567, 0.1885036348919699, 0.18743174204326277, 0.18628289401192577, 0.18510487628926064, 0.18379915746519837, 0.18257551376455675, 0.18139106421602877, 0.18009048950362133, 0.17876172180610533, 0.17741680759268968, 0.1760312581152307, 0.17455248247871932, 0.17312297288217537, 0.17166408061223393, 0.17026367225390984, 0.16873791019549375, 0.1671553727271966, 0.16559087059771893, 0.1640031598079878, 0.162399521414491, 0.16076635852233953, 0.15912223740086381, 0.157446436673225, 0.15575143513179837, 0.15402442687732748, 0.1522944312789881, 0.1505813507466955, 0.14881131507160897, 0.14702658370434293, 0.14513406431534595, 0.14333327751248826, 0.1415976813493893, 0.13975096055231, 0.13789321489833958, 0.13593811478142512, 0.13407103548107505, 0.13228843819646785, 0.13038202393465703, 0.12846967365768405, 0.12645323454507712, 0.12454284403860649, 0.12266421510553671, 0.12072987044190646, 0.1187905063350908, 0.11688879771996123, 0.11493679602266069, 0.1129730828897049, 0.11102306223203329, 0.10907346351252838, 0.10703807654312229, 0.10510237715014109, 0.10322781711200356, 0.10128078532801996, 0.09933771476888571, 0.09736594232023262, 0.09543729230942236, 0.09357983848008883, 0.0916524643733431, 0.08973519886832362, 0.08783681045581496, 0.08593998129274166, 0.08396483557577776, 0.08210369875121344, 0.08025033335885658, 0.07841933462596981, 0.0765834360361526, 0.07476623083008502, 0.07295444182363034, 0.07115687159746971, 0.06936931556019152, 0.06760321585247643, 0.06594029626050382, 0.06419655338919764, 0.06247549288922091, 0.06070194005500928, 0.05903588392681944, 0.05746206647845159, 0.05582493211005587, 0.054212192833761004, 0.05260393684958437, 0.051042990425805713, 0.04945573201501192, 0.047949181957078736, 0.04646448243205519, 0.04509437638293502, 0.04364421418925013, 0.04214990013658456, 0.04076774780474349, 0.03941082331738332, 0.0380864630585509, 0.03678107123271168, 0.035590032668914216, 0.03432907018187217, 0.03310141932298783, 0.03191519111531868, 0.03075243870826226, 0.02965299862691859, 0.028552768414316403, 0.02748722825207538, 0.02638757651860829, 0.025399282159213044, 0.02453641211809119, 0.02359686112797253, 0.022693682730945866, 0.021839869198373628, 0.021006687309315864, 0.02018463531530009, 0.019426714727217232, 0.0187030423055933, 0.0180102861218592, 0.017355580659043964, 0.016753396079276773, 0.016164721609960724, 0.015611373644375582, 0.01511166451316715, 0.014626452614930117, 0.014279367524262792, 0.013853469043275425, 0.013469142262391095, 0.013138796518189739, 0.012833161902879092, 0.012522188975001186, 0.01230106281406662, 0.012115763137082949, 0.012036253030513235, 0.011913092972133147, 0.011860854351956756, 0.011811297642969983, 0.011801326037270037, 0.011810059299425055, 0.0118794038981312, 0.011973295659955198, 0.012116186968416442, 0.01229386425597891, 0.012564562160814694, 0.012803675295046495, 0.013120249924783466, 0.01342831904496318, 0.013774688302713944, 0.01417350865329296, 0.014591998303350461, 0.015085652451826971, 0.015571964384507624, 0.01609567989550779, 0.016704309450619376, 0.017293947508594032, 0.017884363984725128, 0.018552641683558666, 0.019254324236889088, 0.02001723118075709, 0.020780414984125598, 0.021551906003436268, 0.02238431424724584, 0.02324736424082171, 0.024212529375717, 0.025126648622308928, 0.026057634471710358, 0.027040103595260077, 0.02805846971806586, 0.029101438449813288, 0.030174348410984753, 0.031293318433232256, 0.03242226044392691, 0.03365394109281177, 0.03483138271420617, 0.03604094792251595, 0.037246401594260764, 0.03852132622577698, 0.03981659202309061, 0.04114582971902873, 0.042500589358044134, 0.04394391210041722, 0.04534033069278419, 0.046792926716234015, 0.048240377975929914, 0.049715440842552305, 0.05123884111121568, 0.052763475459234585, 0.05431086192195705, 0.05588717402438944, 0.0574876108827115, 0.05906797850635791, 0.06071998277075248, 0.06244007878830593, 0.06412499060345485, 0.06583179979687225, 0.067529811463502, 0.0692824185452377, 0.07107859028600207, 0.07286477828856452, 0.07467038034220022, 0.07648325562013855, 0.07832786110679243, 0.08018161522243143, 0.08206200652767441, 0.08395888275085694, 0.08593387480820092, 0.08785530536917066, 0.08979441650178845, 0.09175405892139268, 0.09373161379098063, 0.09578332248735597, 0.09778784233993827, 0.0997784573359372, 0.10182533540428979, 0.10388814630939326, 0.10593301352024964, 0.10803059221988229, 0.11014265604356994, 0.1122655798106227, 0.11440126565343527, 0.11655630843006055, 0.11871640513343083, 0.12088937111814076, 0.12307506393318136, 0.12527334849249744, 0.12749579417548212, 0.12971740583987265, 0.13202709965170809, 0.13426477045351712, 0.1365191608409337, 0.13877446102301053, 0.14106197279593274, 0.14339339439017637, 0.14570436527960584, 0.14803011044218933, 0.15026982778977027, 0.15263625754343643, 0.15507393497042452, 0.15744829970409716, 0.15983486868151447, 0.16222683055062095, 0.16463829852108183, 0.1670546076869006, 0.16948997138335392, 0.17193649827481702, 0.17437421483425408, 0.17684584577047774, 0.17936954226191132, 0.18185672268895714, 0.18435702804578713, 0.18686031992577723, 0.18938783608028156, 0.19197779583109745, 0.1945236465112521, 0.19708473439665397, 0.1996273095435679, 0.20222217235678192, 0.20484462728984304, 0.20746279983847823, 0.2100945933212799, 0.2127299894636818, 0.21539034158022263, 0.21804212423560065, 0.22073168749152325, 0.22343350534171513, 0.22621977891014888, 0.22893804193852046, 0.23163180806918043, 0.23438963917130043, 0.23716191901325226, 0.23997389080546136, 0.2427724381535672, 0.24556567045951558, 0.24839977748354503, 0.25124909481325597, 0.25407040126414676, 0.2569563137555006, 0.25985568239771245, 0.26276908647908664, 0.2656970620365796, 0.268723658890841, 0.27167166766166656, 0.27456846776790234, 0.27756658324154593, 0.2805808242628539, 0.2836099316203493, 0.28665784419772183, 0.2897095785516438, 0.29279391417274325, 0.2958953719157535, 0.2990260659975468, 0.3021615070690169, 0.3053877388757382, 0.30855219934634415, 0.311740084030344, 0.31493598628621616, 0.31817158070044343, 0.3213786987901942, 0.32466386098124494, 0.3279677298277406, 0.331357522060084, 0.3346914473518135, 0.33796364634214127, 0.34135510042791756, 0.3447648277853737, 0.3481933522502217, 0.3516411459858093, 0.35517547602227056, 0.3586545866991226, 0.36215786348384227, 0.36567671679612823, 0.3692287115583063, 0.3727553322911955, 0.37635954528212967, 0.3799839726795063, 0.3836189175726145, 0.3872859893731108, 0.39099864839792986, 0.3947038899723476, 0.3984316095023594, 0.40220354290404786, 0.405973495929825, 0.4097270408737527, 0.41354926108758533, 0.4173925406948161, 0.4212720604362419, 0.42515594650189387, 0.42901693995693585, 0.4329509060516371, 0.4369043986635711, 0.4408308861965176, 0.44483006331180536, 0.44889520389801063, 0.45292372950695764, 0.4569733250535331, 0.461022169080465, 0.465116328534675, 0.4691931951397149, 0.4733309370783987, 0.4774860263475057, 0.4817104654699, 0.48589422230617996, 0.4901036241469733, 0.49432758507160546, 0.49857160150706564, 0.5028034446478024, 0.507090149102644, 0.5113351987378827, 0.5156627324169439, 0.5200033196042225, 0.5244139474652676, 0.5287738821424915, 0.533088483457788, 0.5374886972419608, 0.5419008650845776, 0.5463249313359304, 0.5507607679961306, 0.5552382601480192, 0.5596931921601679, 0.5641608251522408, 0.5686205052424839, 0.5731142563645717, 0.5776077067817127, 0.582121692355651, 0.5866438385456197, 0.5911870461674992, 0.5957223822006598, 0.6002651150446706, 0.6048145646167961, 0.6093349424119457, 0.6139001586890381, 0.6184679891629343, 0.6230530164879381, 0.6276227554665503, 0.6321242584773771, 0.6367060595408658, 0.6412844302403994, 0.64581239360893, 0.6503891688434511, 0.6550325939793802, 0.6595862648199249, 0.6641369639843836, 0.6686320284402026, 0.6731807348937465, 0.677727611670878, 0.6822579504201561, 0.6867790957166162, 0.6913120990043956, 0.6958100475689862, 0.7002895161619603, 0.7047673007582703, 0.7092325384523682, 0.7137093704697799, 0.7181435544787172, 0.7225336976535616, 0.7269425916019763, 0.7313335102450974, 0.7356470653637018, 0.7400067071422183, 0.7443623886051705