0.02766361157236374, 0.02727985782160016, 0.027016456092151885, 0.026695500372865492, 0.026326874749420564, 0.02607795122965967, 0.02584865012617186, 0.02563856405379401, 0.025439565161306594, 0.02533882995851336, 0.025151124816291965, 0.0249063772280284, 0.024752743244639927, 0.024605206611842564, 0.024395117912326934, 0.02426648425458546, 0.024258849378374702, 0.024116925556903847, 0.02398332549749763, 0.023800066760901854, 0.02368909989662765, 0.023543038565722384, 0.02344564936195645, 0.023351014519080355, 0.023293907649956445, 0.023202861256557555, 0.02304825586295035, 0.022980630573994715, 0.022917023916739786, 0.02288202525959301, 0.02282661375324114, 0.02278738406298996, 0.022748349566882087, 0.022719436114559573, 0.022763929967789785, 0.02274897792018388, 0.022691770847510204, 0.02271456653779371, 0.02274939347220713, 0.02285689135273963, 0.022909729557775246, 0.022966404211240948, 0.023054674315407878, 0.02315909477564525, 0.023285042035780176, 0.02342156772399696, 0.02352014950471434, 0.023697657080594133, 0.02388935589448926, 0.024142921970590033, 0.024358903616083897, 0.024603943127611952, 0.02485595081374724, 0.025127449138887856, 0.025355800923711026, 0.025674510266875682, 0.026056582662166938, 0.02640264167057166, 0.026768943546492157, 0.027048531705871705, 0.02746949334920508, 0.02802817492324517, 0.028464458164592848, 0.02892461522597581, 0.0294190299971038, 0.029925445398499593, 0.030296805621848662, 0.030872106863392545, 0.03146282149152241, 0.03217744535613393, 0.032789320424922296, 0.03340797804996239, 0.03407246604326531, 0.034761309944727384, 0.03552188176001777, 0.03625446452569119, 0.03700456141346229, 0.03779434820683979, 0.03861145319230813, 0.03930178754091348, 0.04019340935829771, 0.0412217468007245, 0.04213813158724328, 0.04308295204967647, 0.044085194199302555, 0.045083966549210194, 0.04602726972353616, 0.04709854135193792, 0.048195848640312774, 0.04930952645677459, 0.05046253805152943, 0.051698087063051894, 0.052900175509144345, 0.05413437400477471, 0.05538778797086471, 0.05668839148660358, 0.05793990099391231, 0.05931491724309627, 0.06071792660675448, 0.06222044607851125, 0.06367327562095701, 0.06507439904767812, 0.06660736888277267, 0.06817033733636513, 0.06983472129498876, 0.07145122484722868, 0.0731118325051815, 0.07479992720467643, 0.07652484716718085, 0.07817421481315132, 0.07998704180743207, 0.08185398300202115, 0.08372596927500979, 0.08563166617260583, 0.08766050405340342, 0.08962402043630528, 0.09152059021695179, 0.09357776631887327, 0.09566854838664998, 0.0978013996119734, 0.099960194667382, 0.10213377717107365, 0.10436696553324612, 0.10663534027844138, 0.10902035638018255, 0.11135009079965909, 0.11373374165488072, 0.11614313193566847, 0.11859336270446458, 0.121023892083886, 0.12356216312849526, 0.1260844615691154, 0.1287021065192392, 0.13135341076401935, 0.13411730331131755, 0.13682748691100155, 0.13960057316589886, 0.14238620730732227, 0.14521188885526723, 0.1479438268227078, 0.15086501176262518, 0.1538382921184664, 0.15681987389103386, 0.15983504144017924, 0.16289976503933992, 0.16598091399808948, 0.1691520710115458, 0.17229648581004123, 0.17547899041797868, 0.17861016648646028, 0.1818784475952388, 0.18523311799608394, 0.18855767795685813, 0.19191717371236308, 0.195240663871026, 0.1986778284756582, 0.20221278018126554, 0.20570118282467922, 0.20922348575471805, 0.21281574933441652, 0.2163996342115965, 0.21990549433059367, 0.2235714919566945, 0.2272639317137293, 0.2310195490882635, 0.23476059265175522, 0.23855645047836807, 0.2423511579984028, 0.24617520802488557, 0.25007238049565733, 0.2539475407000688, 0.25774803390838424, 0.26169516342149457, 0.2656643285221679, 0.26963452970848695, 0.27365006761036653, 0.27773564745967905, 0.28178554994718547, 0.28585830384022637, 0.2898696052013901, 0.2939966237068924, 0.29828089691547877, 0.30242226692728963, 0.3065875079517801, 0.31077004089314736, 0.31497969178712026, 0.31921427247572104, 0.3234615253564635, 0.32772652940565267, 0.33199249257529323, 0.33629168763097983, 0.3405391846519413, 0.3448730395574438, 0.34921509948107654, 0.353598991209319, 0.3579520509930172, 0.3622956958027914, 0.36666803765360495, 0.37104663436104385, 0.37546740516147364, 0.3798518375810695, 0.38419281209496703, 0.38859487578749213, 0.39299826332183113, 0.39730825192408936, 0.4017242518614093, 0.40616303417794686, 0.4105634746053584, 0.4149594582602453, 0.41937404917196736, 0.423756693441276, 0.42812153960110644, 0.4324955267490513, 0.4368623198464542, 0.441247252412233, 0.4455939055587106, 0.44996629171981584, 0.4542910461112497, 0.4585889410793024, 0.4628974965820113, 0.46719372736015496, 0.471382370912618, 0.4756623503106307, 0.48004409062403014, 0.484265992592335, 0.48847286008068125, 0.492613505453587, 0.49679205497490986, 0.5008516545949022, 0.5049969668224145, 0.5091126459728068, 0.513222000820787, 0.5172746945484733, 0.5213504104060374, 0.5253373132296206, 0.5292964917441292, 0.53317709452251, 0.5370835427682955, 0.5409271964035023, 0.5447684403332413, 0.5485724879402432, 0.5524537533796665, 0.5561670489895166, 0.5597744963921305, 0.5634300560523683, 0.5670456038357233, 0.5706829474136382, 0.5742077719542905, 0.5775757104334396, 0.5810354268320049, 0.5844464568571132, 0.5877901298771048, 0.5911049109354213, 0.5944157134537735, 0.5976220963959984, 0.6007792326608243, 0.6039306605471456, 0.6069810028010618, 0.6099505472759718, 0.6129047425154462, 0.6158053029341579, 0.6186696277500011, 0.6214579287626517, 0.6241779037690522, 0.6268563396028296, 0.6294768129448057, 0.6320332641482463, 0.6345359941950146, 0.6370355256324796, 0.6394088497542243, 0.6417232416688466, 0.6438965058537235, 0.6460998352490891, 0.6482180851587742, 0.6502898402545422, 0.6522931213130576, 0.6543139642926834, 0.6561687119156878, 0.6578623781580913, 0.6595996084717164, 0.6612651146116776, 0.6629685834715225, 0.6644764610205565, 0.6658818136882005, 0.667261385496362, 0.6685709273503557, 0.6697026767479834, 0.6708839423502434, 0.6719900889880979, 0.6730159312267232, 0.673964859833972, 0.6748632272506158, 0.6756556186234308, 0.6764932905728612, 0.6771204548183651, 0.6776791569180641, 0.6781107957867888, 0.6785366652926418, 0.6788016499886163, 0.6790888587760716, 0.6792960338313473, 0.6794210317885354, 0.6794698308482379, 0.6794397177240864, 0.6793310546915614, 0.6791441711697666, 0.6788480052789972, 0.6785095313266222, 0.6781938563615895, 0.6776847284785318, 0.6771031542299123, 0.676440905061135, 0.6757143424698502, 0.6748642932481209, 0.67399624547877, 0.6730514182563704, 0.6719936167947953, 0.6709010479704061, 0.6698066372679171, 0.6685499076675223, 0.6672211643990358, 0.6658753334026184, 0.6643957964038135, 0.6627874969121604, 0.6611780263680727, 0.6594961610866982, 0.657671776449201, 0.6558554074335602, 0.6540477411768041, 0.6520720237909144, 0.6500282151180798, 0.6479114317391387, 0.6457331853162741, 0.6434563751300922, 0.6411482285477463, 0.6387722275481339, 0.6363083233129111, 0.6338018425814786, 0.6311635855320404, 0.6285335405294393, 0.6258354653794501, 0.6231205627328501, 0.6202847032167756, 0.6174559733574133, 0.6144908195746076, 0.6114705545583415, 0.608348540058758, 0.6052252975326077, 0.6019490336492437, 0.5987263761938993, 0.5954439632655322, 0.5921898336236429, 0.5887822815159264, 0.5853562962114852, 0.5818460523535968, 0.5782895368481643, 0.5747135588320414, 0.5710632702618785, 0.5673076351795446, 0.563580665379538, 0.5598088772315621, 0.5560458114156334, 0.5521815771325879, 0.5481982322849228, 0.5442689151041722, 0.5402987085211027, 0.5362735289476552, 0.5322282853904393, 0.5282505098536816, 0.5241195166887143, 0.5199605261033973, 0.5157402710189952, 0.5115317864287297, 0.5073035818508893, 0.5030401662747594, 0.4987520153492649, 0.49435403641841585, 0.49003082110046925, 0.4857181688041911, 0.4813401882161547, 0.47694200082613847, 0.4725251003553827, 0.4680909608219843, 0.4635992193336084, 0.4591402405680547, 0.4546659954235714, 0.4503063007722642, 0.4457905155148608, 0.44112275390623457, 0.4366203812533047, 0.4321078761524758, 0.42763421633812027, 0.423101213904118, 0.4185192389971756, 0.41398967054346086, 0.40945819899281216, 0.4049526527905923, 0.4004190871175989, 0.3959318096230165, 0.39140321716447246, 0.386884067183663, 0.3823151962588669, 0.3778254114878365, 0.3734334887152629, 0.3689519647575929, 0.36448738817148424, 0.35995944137723945, 0.3555411753484121, 0.3511715561867295, 0.34677982746711283, 0.3424076193966729, 0.3379985642822861, 0.3336760610318656, 0.3293915263283746, 0.32510762839545126, 0.3208475095579182, 0.3166673549650596, 0.31245170927183524, 0.30828499826026673, 0.30412906419404145, 0.2999488111100281, 0.295867151648465, 0.2918167609381849, 0.287749142421287, 0.283771023811273, 0.27989795827238556, 0.27597578983728976, 0.27209244472967536, 0.26815716422813346, 0.26436519575205286, 0.2606613582624552, 0.25693595375792116, 0.2532521630459584, 0.24966834391695014, 0.2460630524842002, 0.2424292908773552, 0.23892854734574137, 0.2354715297219329, 0.23203307785069652, 0.22866969176800273, 0.22544803936278915, 0.22216351235072995, 0.2189314306800898, 0.21563952058964458, 0.2125269163682392, 0.2095210024316437, 0.20649505046144806, 0.2035211575809207, 0.20056578373565853, 0.19770159745517218, 0.19485744919670675, 0.1921006797436093, 0.189394790128259, 0.18675363906785702, 0.1841501465162178, 0.18161869594379565, 0.17912084076054638, 0.17667862249150548, 0.1743889567840856, 0.1720463856483429, 0.16973144671354604, 0.16751574304700825, 0.16535851611346586, 0.16316281704331265, 0.16113406242996525, 0.15916291114820372, 0.15723882839500866, 0.155368487935114, 0.15359146248730465, 0.15182468052126344, 0.15008075560735676, 0.1484317906960955, 0.14683743658055745, 0.14531084663405666, 0.1438242629897137, 0.1423905069085655, 0.1410149644406208, 0.13969434120870922, 0.1385042210440287, 0.1372831824363423, 0.13614933539481522, 0.13504063137074118, 0.13399020526555405, 0.1329081384194225, 0.13198240793878852, 0.13109131066436183, 0.1302680236310449, 0.1294937850333208, 0.1288050511551065, 0.12812381937446066, 0.12745913626695324, 0.1268826614251104, 0.1263536106312772, 0.12598141649216751, 0.12553226250289923, 0.12498655302711592, 0.12465973057150216, 0.12437433525841332, 0.12421659632607474, 0.12400299006582101, 0.12382485820449035, 0.12370345925715104, 0.12362547101572838, 0.12352730167745453, 0.12354147424457454, 0.12361385093522356, 0.12369960274345575, 0.1238230233518158, 0.12398345061205358, 0.12418018716823563, 0.12441250312309186, 0.1246796385287342, 0.12498080571390544, 0.12536746518041608, 0.12572762401414864, 0.1261326959789381, 0.1265591527096825, 0.1270180950253562, 0.12750036642386578, 0.12802136324440966, 0.12851045547403198, 0.1290943238406765, 0.1297007492746594, 0.13032387470390938, 0.1309741411621093, 0.13172044838305502, 0.1324009093091336, 0.133104409718525, 0.13378773874056735, 0.13453847427471932, 0.13531369727955744, 0.13609580046092698, 0.1368931142946659, 0.13774383184539207, 0.13856357536695008, 0.1393637211559598, 0.14021519972625326, 0.14107655052927262, 0.14189975850676254, 0.1427838963426174, 0.14363054277007062, 0.14452803475266185, 0.14542628508931085, 0.14634325107868493, 0.14723961171164873, 0.1482123141042416, 0.14909948750037394, 0.149990036530593, 0.15083031800896524, 0.15173016799414762, 0.15257422142670068, 0.1534728226802756, 0.15436333046709727, 0.15530544505365443, 0.15617086252528306, 0.15701707757015915, 0.15787082473153544, 0.15871561601080836, 0.159500883182774, 0.1603313238874484, 0.16128584487026354, 0.16206939781106675, 0.16284527492361928, 0.16348635156583496, 0.16425784589305528, 0.1650596020748022, 0.16578566764376496, 0.16649437601756356, 0.1672058120292096, 0.16787470998270182, 0.16843876321531745, 0.16908045097103266, 0.16969688815270437, 0.17036110266400628, 0.17091727159275422, 0.17137328196187548, 0.1718949983557949, 0.17238886781544846, 0.17294882536475348, 0.173374592236331, 0.17380595849729485, 0.1741807737078551, 0.1745320939042089, 0.17479608319901832, 0.17510511288289435, 0.17532918325443617, 0.17558465814870616, 0.17580628894056033, 0.1760177089388303, 0.1761689641553498, 0.1762486956002562, 0.1763400781227508, 0.17639655297574225, 0.1764835798045313, 0.17646229263500524, 0.17647012478117285, 0.17637874269060821, 0.17625877599731152, 0.17609625592970182, 0.17591817180727426, 0.17575802281707684, 0.175509695197826, 0.17523146695612138, 0.17475789170035613, 0.17443843534006143, 0.17419802610976182, 0.1737818393140166, 0.1733328076926599, 0.1728663299627965, 0.17234883273745577, 0.17172289082611217, 0.1711494309923719, 0.17053863038591838, 0.16984391998691692, 0.16916579473341778, 0.1684647360274264, 0.16770819274902, 0.16691544520242935, 0.16612625471696046, 0.16525777930360053, 0.16437256298794514, 0.16343742156784188, 0.16246324318388414, 0.16146678066335118, 0.16043887743098065, 0.15940588406184059, 0.15831246144316963, 0.15708784791075345, 0.15594887558194748, 0.1547751273404653, 0.15361986652713297, 0.1523728668139369, 0.15118568797008103, 0.14986977624974268, 0.14853064507284666, 0.14714710908849038, 0.1457634570930299, 0.14429999485491024, 0.1428736100890574, 0.14141962605423852, 0.13989694828227428, 0.13839521976314575, 0.13693626900808828, 0.13537107922276082, 0.1337841028535972, 0.13215221007653913, 0.1305258500745894, 0.12888289422123256, 0.12721290768987756, 0.1255227574613367, 0.12387059253948962, 0.1221347989295637, 0.1204572261654419, 0.11868247091809775, 0.11689735920627264, 0.11512255607211841, 0.11331348310748941, 0.11148964025775447, 0.10966208097899366, 0.10782467709527174, 0.105925354488053, 0.10407555717077573, 0.10235235991338473, 0.10046205497450134, 0.09856932445558104, 0.09664518148501082, 0.09475067102029168, 0.09285183287049768, 0.0909490532709458, 0.0890427932530735, 0.08712312503105911, 0.08521286462645491, 0.08344926389675415, 0.08151629045439383, 0.07959091358035826, 0.077610023099545, 0.07570679314182924, 0.07385663997697021, 0.07195453885213456, 0.07005984536367339, 0.06821988462545897, 0.06633498543253016, 0.06447168690882435, 0.06260789870374216, 0.06075623246179642, 0.05886990053934342, 0.057049295240604564, 0.05539342143036566, 0.05357524902118804, 0.05177803336017515, 0.049930872326511916, 0.04818365483536897, 0.04646596638205862, 0.04475067979168053, 0.04305395078909409, 0.041488796983886744, 0.03981690098182238, 0.038137892932636794, 0.036523850433271256, 0.03493455193750476, 0.03339648418002668, 0.03185448809207238, 0.03039222436121048, 0.028898855927920936, 0.027436587823942572, 0.025981924328818063, 0.024585015688106924, 0.023226104571110184, 0.021889003102873304, 0.020583512584409294, 0.019375476676844368, 0.018126488481560992, 0.016924842793815224, 0.01574837694438578, 0.014609607214877552, 0.013563563089380462, 0.012493746090046581, 0.011504548479600071, 0.010512495937949775, 0.009563945183028201, 0.008679573217530084, 0.00781480091843285, 0.006900247338618296, 0.006135899197896084, 0.005410488373023496, 0.004724856852666639, 0.004079824997763489, 0.003567669090942312, 0.0029946388199999017, 0.002469662387991451, 0.002045002279522417, 0.0016095568164160756, 0.0012330955291330811, 0.0008986854697720103, 0.0006154331904351161, 0.00028125769936390905, 0.00011284512582514419, 0.00014124527652924974, 4.498081634711214e-05, 4.145147497376582e-06, 0.0, 7.111164867854498e-05, 0.00018252861769452156, 0.00036201950162845274, 0.0005941604710400144, 0.0008320836140054936, 0.0011760309297402472, 0.0016150188090709335, 0.0020551742839550616, 0.002549613837137878, 0.0030514695900625134, 0.0036609691452630403, 0.004306987092492183, 0.005023442061998969, 0.005792313053206463, 0.006601136223322796, 0.0074782462830723625, 0.008528908797122634, 0.009498007714975113, 0.010528204258743061, 0.01157452584383369, 0.012730982742868246, 0.013934162543311314, 0.015206292049926561, 0.016535004392232752, 0.01789162871147349, 0.019337367811870582, 0.02082520746418271, 0.022383207442436482, 0.02399614151093303, 0.025761008879120553, 0.02747241269820989, 0.02916127202150498, 0.031004812641710216, 0.03290355919543892, 0.034954370851719166, 0.03695172133552894, 0.03892118258569308, 0.041050985093035605, 0.043235368863932644, 0.04554500248628922, 0.047829885375540934, 0.05014735803939682, 0.052552422876271904, 0.05501363468434456, 0.057590815563580824, 0.060155846859582536, 0.06275078105734146, 0.06543598605193268, 0.06817675430597339, 0.07097004767269154, 0.07382101730861208, 0.07671572571819646, 0.07967604520969565, 0.08268926025278918, 0.08573158426116681, 0.088852766616343, 0.0919828915166276, 0.09521078478185181, 0.09848686061662663, 0.10184788299909384, 0.1052161437628253, 0.10861142754247746, 0.11208343678818755, 0.11560401737924725, 0.11921220935556519, 0.12282444010818394, 0.12647637536437092, 0.13018965542243294, 0.1339513338656624, 0.1377269403180924, 0.1415882288167382, 0.14549974285883363, 0.14945013137953586, 0.15344530121679645, 0.15754762781799597, 0.16162334276710236, 0.16579065282758992, 0.16995414209444448, 0.17416546357407484, 0.17834499592407504, 0.18265834054201463, 0.18703523164463196, 0.19142527714087398, 0.19585590004945108, 0.20030035860782772, 0.2048136294375323, 0.20934852268163442, 0.21393799710499617, 0.21865718645906543, 0.22330569770639533, 0.227994452208403, 0.23265174151923435, 0.2374265502450699, 0.24225531445078843, 0.24709316762042435, 0.25196440652759056, 0.2568840912434299, 0.26181825135321785, 0.26673253286620713, 0.27173733853314874, 0.27677011079142827, 0.28184360830003913, 0.28692968948256625, 0.29210875913351886, 0.29724133975788525, 0.30240415120982617, 0.3075124620137703, 0.3127430778462945, 0.31803006902702013, 0.32330089443109866, 0.32859539725896225, 0.33386587654125977, 0.3392117121700611, 0.34468114961836704, 0.35005158193320574, 0.35544629691479995, 0.36079610641572696, 0.36624434345061563, 0.37172260020874237, 0.37720256950498293, 0.3826991649735217, 0.38829274480345316, 0.3938103451593876, 0.3992739227243513, 0.40483776487343587, 0.4104140730994491, 0.41592906615486197, 0.42153775372979235, 0.42717649555756154, 0.43279522931312375, 0.4384216483114198, 0.4440658195172857, 0.44970507996403886, 0.45532779856211075, 0.46098340471409827, 0.46664346819815344, 0.47240686601976234, 0.478061917648074, 0.4836758957671328, 0.4893530498681957, 0.49503337555889654, 0.5007421944903013, 0.5064231222131564, 0.5120749050784937, 0.5177632369301753, 0.5234500610034576, 0.5290954875586494, 0.5347821954657663, 0.5405101764510205, 0.5461790096817457, 0.5518439085681307, 0.557524945539756, 0.5631768344949453, 0.5688025816911718, 0.5744456823245335, 0.5800804738799475, 0.5857218993914485, 0.5913358781943729, 0.5969219308016942, 0.6025181118929016, 0.6081019555070807, 0.6136518872390361, 0.6192117029352122, 0.6247272570516008, 0.6302591838650523, 0.6357729602593075, 0.6413362292578069, 0.6468041284910048, 0.6522043456730134, 0.657647053753689, 0.6630694871244776, 0.6684136475320586, 0.6738012864744661, 0.6791534092781755, 0.6844921490816809, 0.6898049705149346, 0.6950891055712304, 0.7003498879799536, 0.705654509986612, 0.7108525897811032, 0.7160272079683495, 0.7211878349923699, 0.7263112859921906, 0.7312861564671205, 0.7363726821424245, 0.7414246470841891, 0.7465414444603067, 0.7515118582947425, 0.75638528386351, 0.7613052525646412, 0.76619046462333, 0.7710222640317581, 0.7758391572220933, 0.7805720302289839, 0.7853206097180896, 0.7900289026923498, 0.7947178002184015, 0.7993427408194934, 0.8039936230165733, 0.808531100112299, 0.8130320076405737, 0.8174822875016705, 0.8219087795146747, 0.8262428445809546, 0.8305948686408876, 0.8349022849737842, 0.8391700107923841, 0.8433865872944762, 0.8475421423116785, 0.8516695844471792, 0.8557499146199123, 0.8597043812930583, 0.8636993518106327, 0.8676730753184771, 0.8715590789023062, 0.8753945794238693, 0.8792420965354203, 0.8829679913059335, 0.8866670656183542, 0.8902940341486678, 0.8938728372852993, 0.8972823259390761, 0.9007772938497983, 0.9042095187395242, 0.9075903120491253, 0.9109136109081808, 0.914200417321334, 0.917406295818877, 0.9205298058084947, 0.9236262766172415, 0.9266645279157338, 0.9296497060062611, 0.9325705726023601, 0.9354958794411902, 0.9382920082426606, 0.9410328885630557, 0.9437151361554812, 0.9463435884177788, 0.9488491392095773, 0.9513701261865204, 0.9538287095205977, 0.9561804494521826, 0.9585197911915905, 0.9608620822657158, 0.9630630902521611, 0.9652033853574788, 0.9672956436924167, 0.9693117040366838, 0.9711621211440545, 0.973068770376271, 0.9749076128755195, 0.976812411826587, 0.9785001089365394, 0.9801338893813797, 0.9817018343567885, 0.9832094056538353, 0.9846010311907605, 0.9859928170772023, 0.9872095434542417, 0.9884846071609037, 0.9896881661959782, 0.9908655138640717, 0.9919229245938066, 0.9929371312656531, 0.993858340528209, 0.9947145694594564, 0.9955528519177398, 0.9962731393687467, 0.9968970875045546, 0.9974965760077312, 0.9980311075198636, 0.998534668460861, 0.9989350305863955, 0.9991469565354467, 0.9994370023093448, 0.9996566369770887, 0.99993481381219, 1.0, 0.9998998270226126, 0.9998562423662486, 0.9997453184905545, 0.9996513054322962, 0.9993969223873578, 0.999037176272154, 0.9986663792559782, 0.9982318729517659, 0.9977809994688792, 0.9972140191161513, 0.9965528966839802, 0.9958698209079085, 0.9951115347391498, 0.9943061439126267, 0.9934385247858059, 0.99244639838884, 0.9914636025611671, 0.9903981132804724, 0.9892897939167493, 0.9881179083201208, 0.9870089081888063, 0.9856969496517964, 0.9842659270313142, 0.9828546057038846, 0.9813856176958186, 0.9797967393145288, 0.9782218685129358, 0.9766239332826203, 0.9749261517694787, 0.9731727686553578, 0.9713330506894351, 0.9694743172355058, 0.9676097602922471, 0.9656346538135083, 0.9636085652601774, 0.9615371380966952, 0.9594097000265907, 0.9571858559165636, 0.9549660990296374, 0.9526952758077563, 0.9503455227178956, 0.9479788417705617, 0.9455856049855368, 0.9431168560785264, 0.9406014357051775, 0.9380610516464654, 0.935452032070199, 0.9327345467492988, 0.9300481544231817, 0.9273162156526793, 0.9246078603714996, 0.9217797113591631, 0.9188086669490086, 0.9159175406199561, 0.912983234447188, 0.9100881808171438, 0.9070614217387081, 0.9039608369203803, 0.9008703535336837, 0.8977441982005706, 0.89466432694427, 0.8914593662062114, 0.8881789940294965, 0.8849234999831701, 0.881637571673235, 0.8782644762475874, 0.8749272684749004, 0.8716345429426563, 0.8682263937697382, 0.8647936808923912, 0.861344821524391, 0.8578637578873484, 0.8542375710800695, 0.8507280999299393, 0.8471907332600862, 0.8437055601133002, 0.8401074319788071, 0.836380801921954, 0.8327598954479591, 0.8291157040730304, 0.825486516833786, 0.8217961201502847, 0.8181467911323745, 0.8144173856685196, 0.8106769926994158, 0.8069680263201247, 0.8032021843250753, 0.7993433170221886, 0.7955751681281461, 0.7917961381606565, 0.7880831715966118, 0.7842762042482128, 0.7803823134181271, 0.7765797922159342, 0.7727702255817257, 0.7689940263580525, 0.7651689905922202, 0.7612406701013379, 0.7574265905448212, 0.7536069845174398, 0.7498174277357945, 0.7459871672891961, 0.7422414307612775, 0.7384034222052853, 0.7345730629706317, 0.7306461120506182, 0.7268452388889007, 0.7230027786796284, 0.7192144953783547, 0.7154290563935198, 0.7117211500963262, 0.7079365605449883, 0.7040638214588504, 0.7003147677348179, 0.6965725811544867, 0.6929432365605659, 0.6892057455239974, 0.68546406319225, 0.6817629586467747, 0.6780780393193226, 0.674438582595295, 0.6707839805017112, 0.6670834188750393, 0.66347614086899, 0.6598852009608629, 0.6563663612967144, 0.6528037385153971, 0.6492499622601889, 0.645733133744539, 0.6422381310272032, 0.6387392718002041, 0.6352925903223617, 0.631857179741341, 0.6284559366007193, 0.6250771345832644, 0.6217711280061229, 0.6184329769322955, 0.6150357810257826, 0.6117631431796678, 0.6085132801721216, 0.6053237074251702, 0.6021174667938373, 0.5989569104053258, 0.5958035626500504, 0.5926794683922268, 0.5895143008053778, 0.5864583631194323, 0.5834702618215656, 0.5804618760165359, 0.5774833891013703, 0.5745220583143349, 0.5716059771960094, 0.5687173619569953, 0.5658621399461552, 0.5630375579749868, 0.5602648542166283, 0.5574998640562153, 0.5546970137886416, 0.5520064382429543, 0.5493447532392299, 0.5466916787898708, 0.5440922298656532, 0.5415901170949865, 0.5390414217337615, 0.5365270098281212, 0.5340206293739875, 0.5315777440483969, 0.5291411938295126, 0.5267666509758371, 0.5244232730940498, 0.5221008551480469, 0.5198218273621324, 0.5175217048340947, 0.5153118368161393, 0.5131305488490939, 0.5110855178444824, 0.5089492944451535, 0.5068018922022388, 0.5047427483803244, 0.5027156603322002, 0.5007675169158632, 0.4987981016266776, 0.4967191042012267, 0.49483561781446084, 0.49297709065926565, 0.49129835691085416, 0.4894720130413182, 0.48755274810722665, 0.48581195840637764, 0.48409732052976784, 0.4825057553844048, 0.48083176251001614, 0.4790956805181838, 0.47749682157990875, 0.47592318549425267, 0.47436176492605214, 0.4728403474070349, 0.4714009211351728, 0.4699212085731424, 0.468469142701576, 0.46699186802142556, 0.4655999671432671, 0.46431469444362183, 0.4629580593266538, 0.4616287820247355, 0.4602606199903924, 0.45899166372521183, 0.4577882607180286, 0.4565556756140798, 0.45534616818612594, 0.45415645409498784, 0.45299143829430366, 0.45178205083332607, 0.45066663515722244, 0.4495673277726344, 0.44850759256071954, 0.4474372918697561, 0.4463422544058533, 0.44531099860694745, 0.4443276223735335, 0.44331976552830105, 0.4423274426716011, 0.4413266392719363, 0.44036687135120367, 0.439503443435346, 0.43855816862086056, 0.43762958537142016, 0.4366957157227838, 0.4358000122606237, 0.434854063160681, 0.4339905157680428, 0.43313447254204074, 0.43236153781965747, 0.43151029901839877, 0.43065704761250906, 0.4298286548169194, 0.4290087934848018, 0.4282045778152334, 0.4273986320674158, 0.4265237522306879, 0.42574039302096345, 0.424958224611292, 0.42420070788953534, 0.4234177068253095, 0.4226996039619481, 0.42191261670232477, 0.4211305161697891, 0.42025044369120285, 0.4194882815342997, 0.41879845882335, 0.418019836609618, 0.41724202582222875, 0.4164747942545655, 0.4156952508746402, 0.41481057735461624, 0.41404239177361407, 0.413266398081851, 0.41254291829389605, 0.41174425329755454, 0.41094155496520135, 0.4101343423331172, 0.40932214083832946, 0.4084966418595637, 0.40767405880977325, 0.40686819029649063, 0.40602863543111634, 0.4051828324573499, 0.40423089538227747, 0.4033834819363124, 0.40261933210080286, 0.40173311393715655, 0.40083941983201316, 0.39984354409442446, 0.3989449919104044, 0.39804501948274174, 0.3971160839421629, 0.39617382229200915, 0.3951790510537541, 0.394215123030304, 0.3933088129234009, 0.3923047442345175, 0.39128964156097357, 0.39020031592607046, 0.38916972063361366, 0.3881703128060698, 0.3871021712941094, 0.38602101237688846, 0.38493173365912703, 0.38382290870497504, 0.3827265642126545, 0.38158680714317383, 0.3804342552280766, 0.37927888613387023, 0.37809804057804663, 0.3768697219558106, 0.37566575879114966, 0.3744455975564765, 0.37323793608022227, 0.3719815954397272, 0.3706269041249873, 0.3693514585985791, 0.36805613686320826, 0.3667858642639121, 0.36544660063112466, 0.36401810579382843, 0.3626560015918442, 0.36127375754881447, 0.35996607757541516, 0.35853342906586616, 0.35705621204081045, 0.3556008101458451, 0.3541298747298819, 0.35263560614923545, 0.35113473262166456, 0.3496337317575867, 0.3480994008568583, 0.34655043447899375, 0.345020840016214, 0.34343841755924026, 0.34173103258694026, 0.34013749134688276, 0.33852476031806533, 0.33688843587038864, 0.33524038950264634, 0.3335882031744892, 0.3319047710420715, 0.33020617752770076, 0.328547788354411, 0.3268133395550896, 0.3251282797030318, 0.3233647438714948, 0.3215938241588203, 0.31969223266792113, 0.31792083502601876, 0.3162046638541435, 0.3143944546853671, 0.31257440475015225, 0.31069237146786827, 0.30885967122878993, 0.3071061527994037, 0.3052379238255378, 0.3033637660203718, 0.3013685189897661, 0.29949663686460204, 0.297666982034796, 0.2957637924072092, 0.293852864108903, 0.29192151896539753, 0.28999793956648945, 0.2881637747814688, 0.28621389049163476, 0.2842631436758207, 0.28215181050111626, 0.28021871801051834, 0.27834838846038235, 0.2763864366088034, 0.27442054609909156, 0.27242504758324554, 0.27045598316494707, 0.268428017656815, 0.26645853265320624, 0.2644832587230568, 0.26251370327558937, 0.26052860895746355, 0.25855169667756195, 0.25656148987385796, 0.2545710593734501, 0.2525679178170462, 0.25058040775619367, 0.24860405853173415, 0.2466172507222376, 0.24463292703429823, 0.24262541692113995, 0.2406507493087275, 0.23874118114969936, 0.23676395961794394, 0.2347938631921334, 0.2328231125350857, 0.23086847620145962, 0.22896001245442163, 0.22701457024479912, 0.22507874583513965, 0.22317599687167972, 0.22125629085472906, 0.21933964032278438, 0.21744260902981305, 0.21555587688822414, 0.21354360327167116, 0.21169490708377864, 0.209938078332488, 0.20808542319805867, 0.20624319453865456, 0.20434901601059907, 0.20253662625937843, 0.20081060473451712, 0.19900506749918592, 0.19721352509876952, 0.19543868697716274, 0.1936751148085328, 0.1918214923347971, 0.1901002694374592, 0.18838796720918077, 0.18671957305093909, 0.1850237530521547, 0.18333890844874826, 0.1816710816690834, 0.18001763067315335, 0.17838944706011825, 0.17676470351713067, 0.17514306872052365, 0.17355259367697182, 0.17197807084412625, 0.17046427024248517, 0.1689170200142989, 0.16736301453270652, 0.1658577396809779, 0.16437021841892244, 0.16285879397264538, 0.16141254568150007, 0.15996909793601746, 0.15855671407074848, 0.1572413886767586, 0.1558513135304822, 0.154482734437542, 0.15309878902474422, 0.15177705145052195, 0.1505158650900672, 0.14922642294315924, 0.147958284788928, 0.14667723181746353, 0.14545530554438785, 0.14423645977764077, 0.14305415472105124, 0.1418899449891532, 0.14071790609799786, 0.13959379995528684, 0.13850778447747358, 0.13741573878233476, 0.13634268166823643, 0.13525994109701348, 0.1342287104308085, 0.13324639212474781, 0.13224654222258495, 0.13126645464129263, 0.1302642200942953, 0.12932866587476008, 0.1284442112208955, 0.12753882803051234, 0.12665287209385842, 0.12580188296669267, 0.12495236453666446, 0.12415407053574405, 0.12334001962276286, 0.12254702432679314, 0.12176933641091606, 0.12101758936107347, 0.12031390441279909, 0.11959677069829194, 0.11889983470789069, 0.11813105310638554, 0.11748443048171646, 0.11682517137940315, 0.1162091447221306, 0.11560567215379715, 0.11499945577661917, 0.11442414932504737, 0.1140313334755587, 0.1134600482696606, 0.11291142339080268, 0.11230322866785282, 0.11180666008819701, 0.11126217541014473, 0.1108029040512923, 0.11035440610178417, 0.10986465000487161, 0.10944496905888865, 0.10907809635995433, 0.10867003188503782, 0.10827370136636007, 0.10787858272853183, 0.10750680124385631, 0.10720858114829487, 0.10685044679638675, 0.10650645224798588, 0.10614979655316706, 0.10583542596365209, 0.10551353371018715, 0.10522265870152817, 0.10494079752435254, 0.10473307042399185, 0.10446029098278316, 0.1042046998735091, 0.10395438407237961, 0.10371478014660057, 0.10341457905125505, 0.10320315058784275, 0.10297548477276071, 0.10277600247225033, 0.10257990014068737, 0.10235587285584219, 0.10217062398827889, 0.10205498383522882, 0.1018646253203908, 0.1016800192454974, 0.10156862414810972, 0.10138545353523615, 0.101147671146532, 0.10098766177614336, 0.10083032212215796, 0.10073019286922227, 0.10057021653894535, 0.10042541582512707, 0.10027278249648891, 0.10012396148456429, 0.0998632014406592, 0.09973435564276101, 0.09968181321853492, 0.09953361522066724, 0.09938583968164842, 0.09925632901915521, 0.09910574802877449, 0.09885600311261449, 0.09871775397401274, 0.09857304662489745, 0.09845880053712541, 0.09829746417355449, 0.0981246632542185, 0.09795691578781938, 0.09778477973019088, 0.09760290901766379, 0.09742228236690195, 0.09722088321471437, 0.09703193400551555, 0.09683674830171639, 0.09663790980999566, 0.09642980270322833, 0.09615793422206495, 0.09594445140359176, 0.09572121470762583, 0.09559830615098674, 0.09534253610744967, 0.09498457808069065, 0.09473487185881178, 0.09447527017722229, 0.09422945592085867, 0.09394752210257934, 0.09371486001990922, 0.0934090458823731, 0.0930979192549636, 0.09282528682747009, 0.09249609395092938, 0.0921571362422401, 0.09181869788568031, 0.0914738534831141, 0.09110891315459234, 0.0907511126613709, 0.09032961928504642, 0.08996081770249927, 0.08957950915958078, 0.08926690278507719, 0.08885086853326972, 0.08835679550722614, 0.08793421888251461, 0.0874992252838115, 0.0871147087447972, 0.08664743091693124, 0.08617954814679638, 0.08569400584670243, 0.0851997473832531, 0.08460494904749408, 0.08410384056808888, 0.08366640507771042, 0.08312643673462732, 0.08257713636821173, 0.08203659777713294, 0.08146574979093994, 0.08087563970199196, 0.08028824775945147, 0.07969100506970794, 0.07909428622231035, 0.07847580702393893, 0.07778256060986595, 0.07715340278734104, 0.07651100350312898, 0.07584278790240372, 0.07517699844838586, 0.07449075693768749, 0.07380122615840673, 0.07309958051359351, 0.07235492765349959, 0.0716343913536797, 0.07088036444503025, 0.07013792031108887, 0.06938288193251294, 0.0687361418985335, 0.06794263446855142, 0.06718166260106606, 0.06637492960650247, 0.06556529245249947, 0.06470506267816432, 0.0638937365059996, 0.06317715694067569, 0.06233857266914638, 0.061498557411301606, 0.06048384519139935, 0.05966061370711158, 0.05893411604962412, 0.058071884845995736, 0.05720461600550427, 0.05638973658709746, 0.0555049445375008, 0.05462086197202208, 0.053731515284728776, 0.05283966962698454, 0.05198165122459948, 0.05107946120492669, 0.050103067124461005, 0.04920773409600108, 0.04830665578147469, 0.047397625085923524, 0.046486606160465224, 0.04568591556159984, 0.044751434040551714, 0.04377514639204178, 0.04285102756158009, 0.04192613521341671, 0.04109723327158416, 0.0401587843090483, 0.03916256231028839, 0.03824135408773867, 0.03732050545883273, 0.03651516209095161, 0.03558096271059151, 0.03469332697495836, 0.033768211526785843, 0.03285144418972554, 0.03198150708886131, 0.0310744621248068, 0.030116122634577355, 0.029233690390199057, 0.028355594857461003, 0.027589129581364075, 0.026706612777315595, 0.025824552057856363, 0.024964598085012675, 0.02411395007026367, 0.023267154506132075, 0.022435203263340607, 0.02161188107234107, 0.02079727545271399, 0.01999153779299023, 0.01927328536472319, 0.018476038159405617, 0.017684976043575603, 0.016916473261243032, 0.01616106575608048, 0.015525881226262642, 0.014783091946613668, 0.01408305541505251, 0.013375058826850035, 0.012686385153797776, 0.011951109173855622, 0.011307741181976035, 0.010738820765878555, 0.010116854765581156, 0.009513306220193, 0.008904573602420581, 0.008340684179722736, 0.00790367653845056, 0.007360457701230872, 0.006841211567142331, 0.006334997824553207, 0.005863694472230007, 0.005472203199988528, 0.005038203706545363, 0.004629727281319502, 0.004162777746006065, 0.0038149658336457757, 0.0034977045160575295, 0.003189391431139442, 0.0029030157897052366, 0.00279854894401693, 0.002537504181407817, 0.0022514635112366598, 0.002061959305624365, 0.0019004098939849063, 0.0017485376146721273, 0.0016453317205439213, 0.0015144111697861415, 0.0014728291186618552, 0.0014560411699211832, 0.0014805533127398305, 0.0015138034041189824, 0.00166656293572886, 0.0017448944545350247, 0.0018575459886166932, 0.0019572876129044735, 0.0021440506478321605, 0.002354315024196881, 0.0026051459879168556, 0.0028876665082105766, 0.0032676790735442877, 0.0036066912200546906, 0.0039615097187804815, 0.004376509193415968, 0.004826931547548697, 0.005299894892722117, 0.005823397869279123, 0.0064344890572889, 0.00702236270764726, 0.007649187145875941, 0.0083279620762968, 0.00903088052579555, 0.009739445783302113, 0.010525870810097038, 0.011349983243990398, 0.012238242863640421, 0.013135396659874378, 0.014017791602022768, 0.015002257136724626, 0.01602402483233158, 0.017060171970555073, 0.018161281511748836, 0.019409837688630863, 0.02057309502517517, 0.02178149759623569, 0.023008605642106692, 0.02430975806891178, 0.025559771041405194, 0.026958803015457663, 0.028395678161537256, 0.029881715973861307, 0.031395467789545016, 0.03299966418171777, 0.03458926072123326, 0.03622348474613551, 0.03793375447742512, 0.03965343527072327, 0.04145365842050707, 0.04326198678907938, 0.04511844940044751, 0.04702265105893938, 0.048974256506374, 0.051004348001632366, 0.053045997018711676, 0.055136100675879894, 0.057156634761518804, 0.05935735549951207, 0.06159627071966639, 0.06387964044900585, 0.06620500037084122, 0.06855463215598896, 0.07096795051275365, 0.07352831451886727, 0.07601394854182629, 0.07854895235431028, 0.08110152295877207, 0.08373796000257672, 0.08636070376116169, 0.08909751545496081, 0.09187723551978995, 0.09473163816252872, 0.09759437595540374, 0.10051589527521292, 0.10346838903608074, 0.10646727512174337, 0.10955682742181727, 0.11264240075652832, 0.115682280545711, 0.11887602041966136, 0.12211186113430102, 0.1255051057691568, 0.12881144726380467, 0.13212524206415496, 0.13553461596577632, 0.13898938133323901, 0.14241862831393418, 0.14597208696786004, 0.1495581395095673, 0.1531937072868694, 0.15686969844892368, 0.16063595468180714, 0.16438699424070904, 0.16812671301324889, 0.17197142873785864, 0.17585583629286336, 0.17988452475235137, 0.1838351660399916, 0.1877790527382493, 0.19182638624441434, 0.19591445514354228, 0.200063748067025, 0.20422937728929738, 0.20836245639918452, 0.2126180009632996, 0.21690887885201182, 0.22131873958767975, 0.2256696817854845, 0.23002391206943384, 0.23445840644071517, 0.2389290944416184, 0.24339106924358556, 0.24793832962588308, 0.25255965601811503, 0.257165975983449, 0.26180654136452153, 0.26646769624843414, 0.27117663798729863, 0.27599834021194647, 0.2807600143179496, 0.28555696223241933, 0.29032004623704344, 0.29519265243330106, 0.30017438352646364, 0.30509248458454924, 0.31004228680996115, 0.3150095649260869, 0.3200210120029431, 0.3249738801236899, 0.33005068755687583, 0.3351485750815715, 0.3403013761789173, 0.3454366292533534, 0.35063606384497614, 0.35581015596321103, 0.3610077429789444, 0.3662252427780198, 0.3714672708073279, 0.37671413442805657, 0.38199830142986946, 0.38726377015049235, 0.39258762268223757, 0.39792585369964417, 0.40325449382802886, 0.4086230737099733, 0.41400324574645564, 0.419394631603902, 0.42479679504296425, 0.43020401947551035, 0.4356268828922757, 0.4410403259411022, 0.44648267308908657, 0.4519316661320232, 0.45745474732295743, 0.4629068470693576, 0.46841475979088787, 0.47387724246687957, 0.4793487576412592, 0.484783349249895, 0.49027404832632715, 0.495800901210108, 0.5012906843302269, 0.5067826150885416, 0.5122441002212205, 0.5177406448970774, 0.5231686644185861, 0.5286662359342602, 0.534155217344531, 0.5396326458557353, 0.5451036619184377, 0.5505882185159076, 0.5560357808489597, 0.5614735988274657, 0.5668512078317129, 0.5722733820212604, 0.5776596437709374, 0.5830539965230312, 0.5884311907794038, 0.5938274061731424, 0.5991643493602303, 0.6045134945277197, 0.6098128064426359, 0.6150953710014095, 0.6203025310482851, 0.6255554214171487, 0.6308058337993173, 0.6360086653600296, 0.6411879615267737, 0.6463924969253647, 0.6515157769710586, 0.656547667374028, 0.6616313613668107, 0.6666852314525651, 0.6716537116028272, 0.676652807440936, 0.6816613090817648, 0.6865844168983529, 0.6914742842541922, 0.6963562342124808, 0.7011738609070487, 0.7058579138676162, 0.7106185324105556, 0.715337225791379, 0.7200869546617373, 0.7247117965064023, 0.729182917397806, 0.7337438345358551, 0.7382575408945575, 0.7427135121788196, 0.7471338118154922, 0.7515215034045636, 0.7558429917289288, 0.7601164952842808, 0.7643519475811598, 0.7685265518220924, 0.772628544876094, 0.7767072278257522, 0.7807340475691995, 0.7846979903813853, 0.7886206961056201, 0.7925571387254255, 0.7963622585589569, 0.800115833426243, 0.8037958014045485, 0.8074455225203393, 0.8109764865271738, 0.814521238943757, 0.81800477920074, 0.8214111303576276, 0.8247733033943874, 0.8280854505657492, 0.8313195079017072, 0.834490614356925, 0.837611383823474, 0.84065355698833, 0.843587673312057, 0.8465076200738175, 0.8493602647905715, 0.8522107273076331, 0.8549198060412099, 0.8575592604242259, 0.8601393739679287, 0.8626531796951196, 0.8650163410474896, 0.8674060467805386, 0.8697698104101207, 0.8720076714166641, 0.8741752947719054, 0.8763010394907695, 0.8783233880092638, 0.8801871039998781, 0.8820805642179234, 0.8838981325579055, 0.8857236528842583, 0.8873794302384567, 0.8888939137366331, 0.8904165670158082, 0.8918633917164519, 0.8933128686344858, 0.8945983096335269, 0.8957628071901304, 0.8969113420753464, 0.8979846371999644, 0.8989930575358639, 0.8999142909900412, 0.9007109702327825, 0.9014885502265065, 0.9021881836970116, 0.902833693528792, 0.9033753314688184, 0.9038202548101151, 0.9042129676393228, 0.9045287933675044, 0.9048594389680124, 0.9050105992055386, 0.90502532356426, 0.9050420312941926, 0.9049830153034233, 0.9047595826419923, 0.9045608834307256, 0.9043447541811795, 0.903978730854848, 0.9035378423448096, 0.9031007782916194, 0.9025010887282483, 0.9017298570938714, 0.9010035089415191, 0.9002012599379864, 0.8993655876671091, 0.8984081993315488, 0.8973399535469866, 0.8962444741302835, 0.8950756822993169, 0.8938237485990094, 0.8925115162057502, 0.8911716559989874, 0.8897103632755851, 0.8881808454523059, 0.886609533874537, 0.8849411806467617, 0.8831704672178124, 0.8813753905300189, 0.879512923703038, 0.8775601359339481, 0.8755676532951698, 0.8735082773955838, 0.8713828299852755, 0.8691921230493708, 0.8669369611597031, 0.8646181436107997, 0.8622155568664861, 0.8597744577571415, 0.8572709136750567, 0.8546823647576037, 0.852059776197511, 0.8493605777132345, 0.846619221923227, 0.8438182358619821, 0.8409770843386704, 0.8380579911680276, 0.8351176636094991, 0.8320847663984109, 0.8290003895167286, 0.8258364134567653, 0.8226546360143685, 0.8194348173046047, 0.8161501178147469, 0.8128169389258448, 0.8094648723999235, 0.8060336368620115, 0.8025058257936795, 0.7989932455049015, 0.7954347703461326, 0.7918916642778934, 0.7882372298636221, 0.7845201513886855, 0.780791072245356, 0.7770228475626748, 0.7731301328939906, 0.7692972613279042, 0.7654257901743396, 0.7615118108071257, 0.7576671519963851, 0.7536654341648933, 0.7496348174734312, 0.745452984111804, 0.7413817394220131, 0.7373130498558259, 0.733170788451351, 0.728999833391756, 0.7248719979901457, 0.7206384398097666, 0.7162609647077016, 0.7120013994073735, 0.707715135620329, 0.703430005192539, 0.6990920446858048, 0.694785978410948, 0.6904019168164587, 0.6860029107555964, 0.6816001996319664, 0.6771723625750551, 0.6727090735655328, 0.6682611238282758, 0.6638014959268516, 0.659297227243692, 0.6548215844534848, 0.6503876745969123, 0.6458856274498896, 0.6413785107209152, 0.6368566682824237, 0.6323431524252858, 0.62772973407639, 0.6232229939364914, 0.6187095159369111, 0.6142877306555792, 0.6097536278955726, 0.6051865196866306, 0.6006649021236959, 0.5961462144378153, 0.5915870502436117, 0.5870829005454721, 0.5826318717437252, 0.5781296963671241, 0.5736363714243682, 0.5691213496797527, 0.5646521407892207, 0.5601454221578113, 0.5557022974062519, 0.551268159197953, 0.5468313120265013