0.03907352714728664, 0.03874710929895401, 0.03839929367217472, 0.038061715066588814, 0.03770753854938448, 0.0373893728418605, 0.037114581065596924, 0.03680061898125619, 0.03649232275290346, 0.03616174392345997, 0.035865781815220356, 0.03554294299042696, 0.03525428245408065, 0.034965471567355015, 0.034697560463835334, 0.03440603313267011, 0.034089585664179065, 0.033803936201622184, 0.03351806350940155, 0.033242684204239176, 0.032955718524515926, 0.03267241394554056, 0.03238732641410923, 0.032103694032823746, 0.03184523687118117, 0.031561893634427844, 0.0312738338836568, 0.030997725606713863, 0.03072422970239042, 0.03044902407433752, 0.030181461184838845, 0.029916440217759962, 0.029654070934488554, 0.029394464430730505, 0.029110635227188326, 0.028860314884949643, 0.028607199532169093, 0.028360909706180482, 0.028116575250111405, 0.027898103820502045, 0.02765558861808371, 0.02738397565977329, 0.02715393540874857, 0.026926229519850232, 0.0266801895260725, 0.026460702817506503, 0.026271181941709416, 0.026052540356365863, 0.0258382039671774, 0.025592418632800644, 0.025391467946310555, 0.025214019228675503, 0.025015815224526256, 0.024821975542736928, 0.024630858623237134, 0.024446277204371942, 0.024239152358296975, 0.02406719536707223, 0.02389844444433271, 0.023769029923990197, 0.023603003354429435, 0.023454338007908377, 0.023298785804503938, 0.023149712523855063, 0.022963261971545492, 0.022832241371386706, 0.022694370069500543, 0.022572215250715063, 0.022453609352563, 0.022354583721439374, 0.022241947879842048, 0.02212667967607139, 0.022025594943947745, 0.021929471684722264, 0.02185243445912571, 0.021764870526773745, 0.021662456274086368, 0.021589795070681962, 0.021522078667072553, 0.021458606947106468, 0.02140139685313816, 0.02135480352562773, 0.021307813491324663, 0.021266755751338073, 0.0212692909444387, 0.021235564777862488, 0.021203099719847882, 0.021186528026621607, 0.021177378096131207, 0.02115717979787175, 0.02116487402430659, 0.021189170407661728, 0.021207857229586288, 0.021233429056671877, 0.021259771034936734, 0.02129990617030769, 0.021342247385162903, 0.021396162772535164, 0.02145655770241816, 0.021528784660545214, 0.02160179372456833, 0.021685380449720612, 0.021772159909981104, 0.02186631715206358, 0.021966126313142764, 0.02207533042444509, 0.022192764475183122, 0.02231661410138728, 0.02244795712001798, 0.022557110694396615, 0.022707307619081758, 0.022876550427486066, 0.023037232371339623, 0.023205101799972955, 0.02338026844106216, 0.023562829369604122, 0.023748499445765233, 0.023946646740634812, 0.024152167294579873, 0.024324942648576552, 0.024550550604962224, 0.024820841256698943, 0.0250525489317476, 0.025292515098272038, 0.02550136955057466, 0.0257627164653763, 0.026027377919355256, 0.02630120369937807, 0.026581325060071465, 0.026881943473933908, 0.027173498880342373, 0.02745344629760349, 0.02776268169802063, 0.02807845553172989, 0.02846296315038368, 0.02878434068820899, 0.029092457005454632, 0.02943705376595908, 0.029789818868128856, 0.030163687566590446, 0.0305306128684519, 0.030898949875352136, 0.03128331385817481, 0.031675201322071994, 0.03205347422699941, 0.03246259138963171, 0.03287760240870399, 0.033298540752162896, 0.0337254250941072, 0.034194972697132696, 0.03462911016459967, 0.03504501009474983, 0.035498109642113834, 0.035957101116507025, 0.03644377433881356, 0.03691159411283587, 0.037351366528051946, 0.03783718838420346, 0.038327478315678384, 0.038852017741593976, 0.03934765116603168, 0.03980321757797774, 0.04031699336567475, 0.0408339712035981, 0.04140938051932242, 0.04192624733283903, 0.0424165696622876, 0.0429505985764167, 0.04348870202165615, 0.04405704235241193, 0.04459978664341354, 0.04515136011656746, 0.04570402660293021, 0.04626163720686667, 0.046780191020539624, 0.047352345265652886, 0.047948005505374584, 0.048520805451932006, 0.04909665693850491, 0.049654447027056334, 0.050238645702189715, 0.05086188744660652, 0.05144426833884421, 0.0520302324480077, 0.05262207357236118, 0.05321390412287171, 0.053811151305835435, 0.054407935521341134, 0.05500706922831981, 0.05557504024786319, 0.05618219766346237, 0.05683007508047571, 0.057431321636427335, 0.057995171156370595, 0.058604900054537945, 0.05921364871151924, 0.05982228227131112, 0.060428910942230005, 0.06105899193012447, 0.06166040458218627, 0.062261999404101334, 0.06283200540927754, 0.06343704428438812, 0.06403699949204748, 0.06463742713072726, 0.06523518278799988, 0.06587305391323028, 0.06645989842358269, 0.0670051992362286, 0.06759586977764258, 0.06818290804045161, 0.06880908017033593, 0.06938322563287606, 0.06991830790426244, 0.07049379210759615, 0.07106479969245928, 0.07166968897711067, 0.07222656098780934, 0.07274668001966018, 0.0733020886080405, 0.07385205476164775, 0.0743868446480758, 0.0749267749153502, 0.07547082568683215, 0.07599662257289747, 0.07651648279067376, 0.0770232270842668, 0.07753153552406224, 0.0780311981525333, 0.07852579397883538, 0.07901310842485147, 0.0795253423060246, 0.0799935739379005, 0.08043753677647532, 0.08089584132204153, 0.08134638483363935, 0.0817688395807906, 0.08220573672066485, 0.08263483457229105, 0.08305236566894965, 0.08346033089908494, 0.08387174666888067, 0.08425862605216619, 0.0846678259174338, 0.08503220306039194, 0.0853887464232432, 0.08570814043121838, 0.08605128950040726, 0.08638805351106617, 0.08670900220802531, 0.087019166674522, 0.08731924829575552, 0.08760721999172, 0.08788744767919782, 0.08815232940774596, 0.08840583765115453, 0.08863292706612537, 0.08886501812797225, 0.08910447245297069, 0.08930849589000357, 0.08950081119095211, 0.08965410095820513, 0.08982577907642687, 0.089993223395456, 0.09013602450729837, 0.09026557347579635, 0.09041763786004613, 0.09051593732979529, 0.0905695620004136, 0.0906487791060548, 0.09071398012681628, 0.09080184743103123, 0.09083428156030846, 0.09081357793274089, 0.09082676270177055, 0.09082495465180186, 0.09079423176001841, 0.09076438521120594, 0.09075388158452535, 0.09068851714535028, 0.09060976226203578, 0.09049558789873381, 0.09039230360743002, 0.09026343690877732, 0.09013134230083615, 0.08998365844165687, 0.08985284808436492, 0.0896702445390544, 0.08942785899620397, 0.08922402444970447, 0.08900379954289966, 0.08877179115414374, 0.08851891509066653, 0.08830384540120179, 0.08801333018414122, 0.08771053973991634, 0.08736106029263994, 0.08703710126097099, 0.08670859791601808, 0.08635331565530799, 0.0859837282368319, 0.08561730329464556, 0.08521686346345896, 0.0847620072370555, 0.08433997156251148, 0.08390207804737226, 0.08348617228721998, 0.08301257081868692, 0.08252856948773692, 0.08202850191922341, 0.08151540453780662, 0.08100145276253792, 0.08046058714865993, 0.07989677516112975, 0.07933222911843815, 0.07875448407383108, 0.07817582959580376, 0.07757031167107517, 0.07691926851763656, 0.07629332885624711, 0.07565323497463355, 0.07503601014745435, 0.0743638866410672, 0.07371990035572461, 0.07302039139744225, 0.07231188561910794, 0.07159060684097153, 0.07086377298918697, 0.07012097071800973, 0.06937513077091587, 0.06861898030565833, 0.06791288327080248, 0.06712866863739249, 0.06635874520346863, 0.06555814998550444, 0.06475141920781669, 0.06393206746641057, 0.06311282646982667, 0.06232472025497087, 0.06148588464011296, 0.060641777995531165, 0.059827083285237136, 0.058967255150491456, 0.058124497828389944, 0.05725386771627796, 0.056379933877565666, 0.05548489186393059, 0.054605690487142235, 0.053759977704290564, 0.052866048751309416, 0.05196951518260239, 0.051155030600908744, 0.050242243748850494, 0.049313952845310614, 0.04840672634389255, 0.04749942399582721, 0.046630304306573535, 0.045717475515814024, 0.04482212794186926, 0.04391054407166484, 0.04300117269936594, 0.042155008770495175, 0.04124184725175355, 0.04038298616690287, 0.039473913277814604, 0.038572218546024585, 0.03770180184645283, 0.036810194515886095, 0.03591643357810031, 0.035040596304534516, 0.034171073274688865, 0.03335938951464261, 0.03249592597088937, 0.03162518756625439, 0.030782272158684554, 0.029947435122964845, 0.029167132094566377, 0.02834305073938984, 0.02756869788272202, 0.026762233356001912, 0.02596917488801822, 0.025179715916869686, 0.024414220620167678, 0.023720772609687416, 0.02297315720146023, 0.0222419076538643, 0.02150586815120127, 0.020809578800089996, 0.02017458529680106, 0.01950265518076088, 0.018848905677487617, 0.018233446963670467, 0.017613619847596875, 0.01699238671171416, 0.016414426966660605, 0.015918014977606483, 0.015369706908288162, 0.014844349258057582, 0.014350631750877434, 0.013870006191463183, 0.01338757893403662, 0.012957370766992122, 0.012549592848200829, 0.01216382338349862, 0.011802401039545518, 0.01150412956933344, 0.011185895676308955, 0.010894758061588634, 0.010661548804155874, 0.010421499347878923, 0.010215487000576163, 0.01003433665299342, 0.009883396733620013, 0.00977160725365307, 0.009680631724326781, 0.009597501913223502, 0.00957266762145802, 0.009578526407968534, 0.009633967367839337, 0.009700498390283387, 0.009789883927280278, 0.00992483100038673, 0.010093357876671776, 0.010315217959240617, 0.010550045830698632, 0.010842962628504258, 0.011147873815673138, 0.011491012627033942, 0.011862120664992374, 0.012283767427972075, 0.01277968141164995, 0.013274059640114709, 0.013809698556700386, 0.01438498683213559, 0.01500382147072021, 0.01565124049125457, 0.01635538786037992, 0.0171010477510645, 0.017857169310546445, 0.018691088352272317, 0.019598359645526874, 0.020510890556053218, 0.021467575547007126, 0.022464403033800158, 0.023511029608328755, 0.02458517029325658, 0.02572440069309758, 0.02690844361129544, 0.028136081780210983, 0.02941153951664255, 0.03076644916537659, 0.03213065558470083, 0.033543891787148575, 0.03498621829902166, 0.03650056279756826, 0.03805110059866437, 0.03966421029803671, 0.04132576274912912, 0.04307289665179406, 0.04482794636806373, 0.04662683501949882, 0.04848634820347786, 0.050397254232929636, 0.05234309147909462, 0.05435932321759574, 0.05641596808136627, 0.0585356103824025, 0.06070610657375503, 0.06292953100951817, 0.06520246372635018, 0.06756657683209846, 0.06993845861327613, 0.07236483222334285, 0.07484644177768246, 0.07738131702504389, 0.07994504662317214, 0.08259144271814185, 0.08529044893512913, 0.08805530898302462, 0.09085825513869843, 0.09366681117801069, 0.09658317655620256, 0.09955046388940471, 0.10257338831003228, 0.1056429455717291, 0.10880212823284689, 0.11197116651673172, 0.11519462332245624, 0.1184425545786687, 0.12177793417498033, 0.12515403212662005, 0.12859502804474843, 0.13208746873623411, 0.13561304391696008, 0.13921079248265045, 0.14289044329971867, 0.14658516352763484, 0.1503321951998177, 0.1541338900784179, 0.15798438890259855, 0.1618567776715963, 0.16581392345292695, 0.16982034208988148, 0.17387767115908695, 0.1779820424889623, 0.18214495033190134, 0.18634571158577926, 0.19059542844307853, 0.19485613995830783, 0.19920737825563398, 0.20364099747362488, 0.2080788067994264, 0.21256404210500693, 0.2170489788956115, 0.22163345530619508, 0.22630131943122428, 0.23096689799549366, 0.2356775109043142, 0.2403932190970443, 0.24519705194419877, 0.25006547348826585, 0.25494798461544976, 0.2598721327765264, 0.2648460632626504, 0.26985057585794914, 0.27483856114769956, 0.2799301196288849, 0.2850573395868752, 0.29025491156537697, 0.29544814947756604, 0.3006727595315055, 0.30593916300676566, 0.3112404122985193, 0.3165303368919761, 0.32190485397471635, 0.32729285079959186, 0.33272923753978595, 0.3381939075013805, 0.34371444219555247, 0.3492309050553265, 0.3547872173553154, 0.3603584150344122, 0.36595711171737433, 0.37153254674593744, 0.37718972133392825, 0.38286526582835806, 0.3885660537828825, 0.3942873319168105, 0.4000625475249604, 0.4058185173311307, 0.4115546065929224, 0.4173552608961759, 0.42317187181479826, 0.4289870913186576, 0.43483545104662324, 0.4406851241320677, 0.44655954746022686, 0.45244450753051396, 0.4583803580638228, 0.4642789590428279, 0.4701819478175137, 0.4761011370050119, 0.4820280961511483, 0.4879599350661488, 0.4938992265486083, 0.49982440032852105, 0.5057733548099854, 0.5117232449372944, 0.5176276242837848, 0.5235821319059629, 0.5295678218522126, 0.5355078023146431, 0.5414437092231125, 0.5473429880660666, 0.5532714527198608, 0.5591837868331727, 0.5650939917941392, 0.5709928898745652, 0.5768892083367665, 0.5827615747765644, 0.5886055389902705, 0.5944516304610072, 0.6002811907439086, 0.6060469110105435, 0.6118462938568603, 0.6176191502440295, 0.6233740908592375, 0.6291051996704776, 0.63479859496484, 0.6404813317048645, 0.6461440226453359, 0.6517709852452849, 0.6573696251537989, 0.6629547115335105, 0.6684917909089887, 0.6739451252857386, 0.6794269223435632, 0.6848738239562958, 0.6902832195610215, 0.6956553372382531, 0.700986695033444, 0.7062819694141529, 0.7115152726726056, 0.7167321300577071, 0.7219057295058717, 0.7270623504368866, 0.7321435142759696, 0.7371427853754455, 0.7421389478353692, 0.7470864151684307, 0.7519747397852684, 0.7568235030794402, 0.7616344288447265, 0.7663769412926179, 0.771066715318591, 0.7756948849777926, 0.7802771752052763, 0.784799781176832, 0.7892691961262988, 0.793680338521748, 0.7980200497041804, 0.802313426816005, 0.8065485688547525, 0.8107172145696477, 0.8148226633867323, 0.8188474382214106, 0.8228259858954253, 0.8267063327800295, 0.830554664299728, 0.834333029422366, 0.8380313199538527, 0.8416694529518279, 0.8452267581683983, 0.8487213163854287, 0.8521422548572796, 0.8555397813533637, 0.8588055724115916, 0.8619868032411802, 0.865108530231286, 0.868155353609553, 0.8711046272801535, 0.874002048776246, 0.8768210294392964, 0.8795610219129, 0.8822214810966535, 0.8847747693233808, 0.8872779727225008, 0.8897308634201663, 0.8920643712384768, 0.894316429208059, 0.8964558598166563, 0.8985471587573761, 0.9005693467275495, 0.9024887032791328, 0.9043235656978358, 0.906100633614457, 0.9077619058234055, 0.9092892390036341, 0.910788016911254, 0.9121988031107342, 0.9135599855407638, 0.914789701059768, 0.9158826499009967, 0.9169462436148211, 0.9179201748512622, 0.9188062833706653, 0.9196009298651959, 0.9203254803540856, 0.9209390913927596, 0.9214645509336957, 0.9218886415987, 0.9222391614092127, 0.9225407547114031, 0.9227079908815845, 0.9227885005778613, 0.9227593285849431, 0.9226686271769686, 0.9225016354833188, 0.9222324405317376, 0.9218756469909342, 0.9214365586008817, 0.9209041187353718, 0.9202732971674903, 0.9195683803051823, 0.918776091901496, 0.9178468979858312, 0.9168870590524778, 0.9158834463086669, 0.9147401680819351, 0.9135117108517304, 0.9121739484992624, 0.9107793018219924, 0.9093193365634333, 0.9077519304282888, 0.9061014883954202, 0.9043378900937445, 0.902526689616245, 0.9006645746380874, 0.8986835683932017, 0.8966227069911518, 0.8944466796395716, 0.8922322525543632, 0.889954242406732, 0.8875782406720698, 0.8851247872546116, 0.8825998890404515, 0.8799931706649543, 0.877285403289114, 0.8745331139085981, 0.8717060789641027, 0.8687887088856262, 0.865817332074311, 0.8627741923718074, 0.8596585729034645, 0.8564726333073199, 0.8532061166278826, 0.849884283730109, 0.8465297522537379, 0.843069352635646, 0.839545598095053, 0.8359602382186375, 0.8323123176137556, 0.8285583469305422, 0.8247959282659637, 0.8209722850342369, 0.8170914038438729, 0.8131490510705872, 0.8091452814114972, 0.8050906762914704, 0.8009813453472404, 0.7968194682381435, 0.7926044819053525, 0.7883754202393833, 0.7840554926752155, 0.7796893862364928, 0.7752492319956373, 0.7707973804638792, 0.7663042637276507, 0.7617637573956256, 0.7571813073807813, 0.752540716240896, 0.7478804482964048, 0.7431645177159356, 0.738429681675634, 0.7336577299985085, 0.7289009133063772, 0.7240529537164595, 0.7191351011126615, 0.7142339346004584, 0.7093030164480285, 0.7043420631124486, 0.6993562441188995, 0.6943493035256898, 0.6893133927500013, 0.6842551145185748, 0.6791706139084002, 0.6740724286170972, 0.6689303891818166, 0.6637998182502893, 0.6586521503530688, 0.6534872438937496, 0.6483103899356086, 0.6431000862523396, 0.6379024719913797, 0.632694241890437, 0.6275006433661918, 0.6222730941943535, 0.617050682041374, 0.6118142985230275, 0.6065766420405992, 0.6013555622636493, 0.596116986513302, 0.5908258556469954, 0.5856022371353823, 0.5803811010140659, 0.5751605388468198, 0.5699495286596243, 0.5647821497214616, 0.5595818276504008, 0.5543934295995613, 0.5491769946600077, 0.5440210072766222, 0.5389164716826605, 0.5337830616836244, 0.5286676747432282, 0.5235250516085882, 0.518454774349962, 0.513452952707375, 0.5084150824098301, 0.5034014774092673, 0.4983623892644449, 0.49340658054955205, 0.4884505858541043, 0.48354782238028843, 0.4786706710724355, 0.47387654861448114, 0.46904790386745926, 0.4642041605065291, 0.4594483840448918, 0.45472456009487816, 0.4500173045994125, 0.44536310712630023, 0.4407469514540984, 0.4361626194263056, 0.4316695987386283, 0.4271537259701965, 0.42268011929864774, 0.4182266033458378, 0.41384206895945364, 0.4094661250392747, 0.40517202571240973, 0.4009202038792072, 0.3967483737162549, 0.39257941890710074, 0.38840783070285423, 0.3843401150415855, 0.38031790430396173, 0.37638409894730124, 0.3724503650071163, 0.3685575326671149, 0.36472648748421643, 0.3609462916537478, 0.35723405467915675, 0.35355494361292894, 0.34992206903855755, 0.34635061153697305, 0.34283260971850155, 0.3393282145120006, 0.3359232728906264, 0.3325731897746723, 0.3292730285301672, 0.3260264735514297, 0.3228506420991006, 0.31971068061935215, 0.3166012972040349, 0.3135766356152431, 0.3106069361926989, 0.3076995884943256, 0.3048400706834043, 0.3020465689744358, 0.29929883936188106, 0.29660841973716523, 0.29393952919485417, 0.29136840999829133, 0.2888422051198288, 0.28638349800926083, 0.28398010587492356, 0.28164276958962325, 0.27934937524279657, 0.2771334391478157, 0.27495034867408563, 0.27282486955256, 0.27072528631764736, 0.2687182508532353, 0.26680211286751254, 0.26490062747633775, 0.2630560919529417, 0.2612025344410093, 0.2594789394315991, 0.25782046769832057, 0.25619933325415106, 0.25463106272276875, 0.2531259937580944, 0.2516616207712567, 0.2502535972553645, 0.24889411424720903, 0.2475869029283843, 0.2463489859599059, 0.24514270706539237, 0.24397425064271439, 0.24287269159246347, 0.2418208243468139, 0.24081983963429668, 0.23986544473981558, 0.2389468771544483, 0.23808953577252503, 0.23727831169981634, 0.23649866623636706, 0.23577975981740643, 0.23513242144034005, 0.23449665830180297, 0.23390499860956976, 0.23330593751140544, 0.23280647067745855, 0.23240527065332492, 0.23197553551573163, 0.2315870914535559, 0.2312153466509364, 0.23090950901273946, 0.23061273252565995, 0.2303837301566138, 0.2301886432801996, 0.23001029348623722, 0.22988338448425347, 0.2298077310052203, 0.22974003176520139, 0.22970346241236042, 0.2296744923099236, 0.2297006244877525, 0.22980309174445268, 0.22987713157711845, 0.22997991853137179, 0.23010244805987828, 0.23026033014440242, 0.2304335457488128, 0.23064151920457282, 0.23087186547743171, 0.2310930601764325, 0.23136922381085256, 0.23170694517607643, 0.23201259440585706, 0.23233712889288569, 0.23262961864419116, 0.23299492208100092, 0.23339577462738692, 0.23378319390445415, 0.23418336455309086, 0.234550802730856, 0.23497939311905372, 0.2354504685564466, 0.2358891221399225, 0.23633609640422187, 0.2368184363106185, 0.23727573580357783, 0.23768769953202784, 0.23816469981412625, 0.23864359546745437, 0.2391508124156132, 0.2396280334891719, 0.24006375248348025, 0.24054809042683045, 0.2410294521919158, 0.2415518271451207, 0.2420197998277294, 0.24243998661448218, 0.2429080116523758, 0.24336911991040885, 0.24381133352591924, 0.2442581791018243, 0.24473664636443454, 0.24515879677536834, 0.24557261091884053, 0.24599024881276157, 0.2463829037045603, 0.24676430543773445, 0.24713533044660985, 0.24749399956276485, 0.24780444528496787, 0.24814014503770215, 0.2484589114402055, 0.24876021449456406, 0.24904351750660852, 0.24930390883906683, 0.24955013855586955, 0.24979310222393075, 0.24999697679792948, 0.25018089333635024, 0.25035906997331686, 0.250499286046848, 0.2506123919448273, 0.2507106950162534, 0.2507862898499128, 0.2508569445801104, 0.25088306341739114, 0.25087882257224425, 0.2508584301317519, 0.25081299687301545, 0.2507175238831835, 0.2506235614410383, 0.25052967319624386, 0.2503761403053786, 0.2501958030200606, 0.24994886874801892, 0.24971855468273546, 0.24946844118376432, 0.2491761764042408, 0.24885410679088674, 0.24849159345151217, 0.24811079638356517, 0.2477393818449278, 0.24729180257931757, 0.24681555952635095, 0.24630328893271342, 0.24576953173360205, 0.24517076562385698, 0.24458114416497284, 0.24395915399585513, 0.2432953221288967, 0.2426102280909338, 0.24190748877371124, 0.2411557071143628, 0.24037264536535016, 0.23954700207700697, 0.23870301121822257, 0.23783081177694887, 0.2369231510525671, 0.23598434576654623, 0.2349944471191126, 0.23399636761405015, 0.23301982251168676, 0.23195177017584004, 0.23085559442925316, 0.2296831133485682, 0.22853649773632229, 0.22735451128517745, 0.2261468622304657, 0.22493763364831293, 0.22366592305139174, 0.22236626841810406, 0.2210563405839518, 0.2196991789219663, 0.21826587082011503, 0.21686248301796943, 0.21543025535935928, 0.21398464399304365, 0.2124946319351275, 0.21101507243233153, 0.2094683385342537, 0.2078982906661222, 0.20629459824020757, 0.20467976903464274, 0.20302503560394702, 0.20136608068586026, 0.1996836566267852, 0.19797831247111747, 0.1962506026165027, 0.19452905824452738, 0.1927547662982088, 0.1909613762373311, 0.18911340317828357, 0.18728744162070965, 0.1854336623509038, 0.18356952874194138, 0.1816864631157667, 0.17981059473501596, 0.17788878636504052, 0.17593865557121208, 0.17398862047992705, 0.1720237287126228, 0.170026296461295, 0.16803602899764639, 0.16606423329640455, 0.16404295733308843, 0.1620112499044455, 0.1599434152356309, 0.15789576018630563, 0.15581948032289808, 0.1537543962027113, 0.15167957545539404, 0.14963526335445626, 0.1475386998424316, 0.14545910910456836, 0.14335054029486857, 0.14123937068627052, 0.1391023759909696, 0.13699015460968408, 0.13489447357301984, 0.1327751064258777, 0.13065546217445043, 0.128509833649753, 0.12639451878957192, 0.12426070582087494, 0.12214820873668765, 0.12003608864716629, 0.1179567167848688, 0.11584405314483129, 0.11374314894673115, 0.11163970217939702, 0.10954255765879838, 0.10740154310000702, 0.10532500128965966, 0.10324478516033621, 0.10118044423770865, 0.09912255977124952, 0.09707644947441678, 0.09503372032580079, 0.09304322920282602, 0.09101468210307162, 0.08899948022111473, 0.08700062331785999, 0.08501292814288626, 0.08302504216059713, 0.08106895974768233, 0.07912751647120488, 0.07718726392719202, 0.07527847171120487, 0.07342445829430164, 0.07154220905417641, 0.06967884513577365, 0.06783026503032892, 0.06600605079146228, 0.06414277429461346, 0.06236532304349096, 0.06060480088516716, 0.058914489015420804, 0.05718364418525099, 0.05542956190727033, 0.05374915429867971, 0.05208893698070405, 0.050453044095516285, 0.0488346371265061, 0.04727337246733403, 0.045695395077799975, 0.04414251534498644, 0.04260614631620738, 0.041105037282610904, 0.03964562770838581, 0.03819284500552392, 0.03676656611179102, 0.03535639893225215, 0.03398475450951119, 0.03259738550638218, 0.031283713012475615, 0.02999431586837062, 0.028774297316320443, 0.027529336410356257, 0.026316073456167065, 0.02512709808188863, 0.02396657316493529, 0.022819641182405724, 0.02171790654049891, 0.020633316159243034, 0.019588303374332487, 0.018570577325462228, 0.017610039583334916, 0.016643650429262278, 0.015658611518601342, 0.014757022132395313, 0.013881907208422375, 0.013040528039895971, 0.012218238769685216, 0.011396393940759728, 0.010632700857088883, 0.009895173310359351, 0.00920765973471522, 0.008520169448684126, 0.007889602660111412, 0.007254532765200111, 0.006648964094087543, 0.006080407841834477, 0.005531792568775779, 0.004955272509789696, 0.004471277214709817, 0.004012245513232839, 0.003577399797141222, 0.0031686486476867845, 0.002784965155756955, 0.0024263232714562045, 0.00209265924692399, 0.0017873709080807123, 0.0015028926546633201, 0.0012659253536087918, 0.0010279265299107106, 0.0008155341217041263, 0.0006606495054215126, 0.0004940640676040476, 0.0003509687222687092, 0.00023624961527175524, 0.00014614993150902805, 3.7234441402301655e-05, 0.0, 1.557918118307523e-05, 1.5003147390235728e-05, 3.629485830187248e-05, 6.933160720773375e-05, 0.00013406096984974785, 0.00019414723383113301, 0.0003012275702225191, 0.0004259477398643906, 0.0005610955919705665, 0.0007212922421707439, 0.0009364531328605874, 0.0011245507401459582, 0.0013307931147827133, 0.001550200048449093, 0.0017914691381775698, 0.0020401072209642536, 0.0023141635504832898, 0.0026027686133498515, 0.002890604583553245, 0.0032088064801383976, 0.003584787171116592, 0.003921540733070389, 0.004272446810188346, 0.004602661848574311, 0.004983952003444365, 0.0053753071805574025, 0.005776328835758156, 0.006186606291613828, 0.00662232576560937, 0.00704774009726285, 0.007504775308614114, 0.007944523173760465, 0.00839328737034898, 0.008851196550881135, 0.009315677627775592, 0.009847391157183675, 0.010317418791878521, 0.010796441856887995, 0.011265000002281247, 0.01176110282395567, 0.012297931043725048, 0.012798540999116141, 0.01330461877222815, 0.013843190769954846, 0.014353903302100809, 0.014912727472812195, 0.015425748583920257, 0.015943751156916704, 0.016480416436569983, 0.01700307633370772, 0.017578154986970136, 0.018098702506210224, 0.0186000029675278, 0.01912915856750196, 0.019658195111766898, 0.02023263692473313, 0.020753248052871688, 0.021307375710857022, 0.021823426386836296, 0.022339820154995634, 0.02290185002469879, 0.02341008564076483, 0.023916749083756173, 0.02442446414543135, 0.024930199316715633, 0.025504796799086966, 0.02599511036289569, 0.02649400243562706, 0.0269817518880311, 0.0274677060285268, 0.0279605498458113, 0.028439032056843276, 0.028960156503079343, 0.029424739847924014, 0.029886993984501245, 0.030373158756713828, 0.03082488126713577, 0.03128582148927686, 0.03172921778553342, 0.03216891767498147, 0.032668111545722016, 0.033090598840708266, 0.03350704635349787, 0.03392589713569273, 0.034341269946466524, 0.03476397353300282, 0.03516939578509887, 0.03564579262449532, 0.03603295306510302, 0.03641949812765333, 0.03679238837253205, 0.03717698726290642, 0.037577523537051814, 0.03795278880255693, 0.0383252977911998, 0.03872796630169533, 0.039089954145290894, 0.03944079799071009, 0.039800621109562916, 0.04015782775985216, 0.040546446644582984, 0.040893994625572555, 0.04122774072008302, 0.04157541255547215, 0.04192143345905683, 0.04227465105233291, 0.04261663667985196, 0.04301387410422502, 0.04334758105035282, 0.04368413354557308, 0.04399274979829728, 0.044338388255644866, 0.044697967503652125, 0.04504391217292728, 0.0453920683553887, 0.04577154861065213, 0.04612132388140364, 0.046462739396342184, 0.046823822487326354, 0.047189272795155945, 0.047575186453705086, 0.04794850271996169, 0.04837458145210051, 0.04875523797320696, 0.04914562446950278, 0.049523919729302056, 0.04993670154597203, 0.05038540586293054, 0.05081283258514384, 0.051251481237260525, 0.051714732962937174, 0.05217503213984442, 0.052658747996529434, 0.05314389016057702, 0.053643229999151124, 0.05416496491788469, 0.05469274995217489, 0.055196984480607586, 0.05576172035420189, 0.056340897046038854, 0.05694494070688755, 0.057554212854365544, 0.05821235492820895, 0.058853175214884035, 0.059514613385983066, 0.0601674288238579, 0.06087533123598568, 0.06160284560254623, 0.062352640503114336, 0.06312448621101792, 0.0639165653609933, 0.06473525202589399, 0.06562456345743602, 0.06648679304689938, 0.06737752164029831, 0.06827968216636408, 0.06923090144479094, 0.07022847383796102, 0.07123588087868037, 0.07227446040218219, 0.07329841583234524, 0.07440681245810425, 0.07560312903424413, 0.0767656524192637, 0.07796353536488607, 0.07919459249091455, 0.08046486665003665, 0.08173678545594319, 0.08308523349856797, 0.08446941607680959, 0.08591640297786396, 0.08737125571078902, 0.08883256892182957, 0.09037154135549737, 0.09194946597897859, 0.0935977790943244, 0.09525223707405592, 0.09690784347611772, 0.09865432429654265, 0.10044257443320317, 0.10231714927000726, 0.10418592208574214, 0.10607774629641302, 0.1080431900631933, 0.11005473643696236, 0.11214968671494063, 0.1142505456097276, 0.11637680545945982, 0.11858075035252005, 0.1208336965586656, 0.12311775951739133, 0.12547243187369717, 0.12787383129556884, 0.13032811555124368, 0.13283273340432675, 0.1353654985682763, 0.13797524589454507, 0.14068190465572322, 0.1433875937010181, 0.14614767767899417, 0.14896406476688284, 0.15183319904786421, 0.1547398270948504, 0.1577212683368608, 0.16075699246767527, 0.1638053227107731, 0.16695573462137261, 0.17016496508771872, 0.17342055237401713, 0.17673021731797975, 0.1801223071425749, 0.1835376691288761, 0.18698868177587735, 0.19051996457021064, 0.19410670575621833, 0.1977105955472905, 0.201413532086064, 0.2052129448463787, 0.2090181132483354, 0.21287997397492023, 0.21675819592584566, 0.22073813965949207, 0.22480269135476044, 0.22888694287665187, 0.23302716166778267, 0.23722138826290814, 0.24147310858574, 0.24577563324930946, 0.25013799846842744, 0.25455475701980057, 0.25900641373975897, 0.2635335699649899, 0.2681385185140741, 0.272767171726581, 0.277449278399303, 0.2821144384771477, 0.2869108636932663, 0.29176410146896514, 0.2966556123241157, 0.30159569576126327, 0.3066095146226421, 0.311642916166459, 0.31668885534333985, 0.32182482968213216, 0.32700682994268854, 0.3322450200362005, 0.33751670900027625, 0.34281025714272934, 0.34817526962785605, 0.35358321841839196, 0.35906597973585236, 0.36455425804065833, 0.3700778560421543, 0.37565261655154075, 0.38122812869396305, 0.38688904379470845, 0.39258694180964215, 0.3983151355028722, 0.40408600730250804, 0.4099213568472992, 0.4157573017941835, 0.42162824772544294, 0.4275226780864848, 0.4334618543558074, 0.4394462997817618, 0.4454452863941478, 0.4514743399585205, 0.4574973479994901, 0.4635875027630951, 0.4696699510705894, 0.47581257345612826, 0.4819761885230884, 0.48819329629766656, 0.4943924804478977, 0.500606053367218, 0.506845852670924, 0.5131034494843653, 0.5193636958630645, 0.5256551456873819, 0.5319460675223641, 0.5382650862634875, 0.5445945161949433, 0.5509140629299206, 0.5572635128693636, 0.563572654990879, 0.5699389785202328, 0.5763066255061371, 0.58270719095141, 0.5890710681538674, 0.5954041222529013, 0.60177202264472, 0.6081362808733205, 0.6145037122060089, 0.6208564800671207, 0.627208847597002, 0.6335465369803032, 0.6398754850949001, 0.6461409956275912, 0.6524550552603406, 0.6587837922143909, 0.6650611551222132, 0.6713222616476957, 0.6775290353626295, 0.6837581576564201, 0.6899744272472075, 0.6961562766827086, 0.7023139062178473, 0.7084434034685859, 0.7145490268731938, 0.7205625247742938, 0.7266182429777339, 0.732639363306514, 0.7386652310142899, 0.7446094051930231, 0.7504834632571767, 0.7563603636357757, 0.7621973573458641, 0.7679662174489217, 0.7737233932557696, 0.7794199010026033, 0.7850881794098064, 0.7907085521939374, 0.7963053797247766, 0.8018237168466571, 0.8072609837857946, 0.8126827623277257, 0.8180505002351286, 0.8233421273093143, 0.8286011277152001, 0.8338251414951783, 0.8389629773244089, 0.844041500205504, 0.8490585704126696, 0.8540147787015077, 0.8589078241820998, 0.8637364501979916, 0.8684994052809611, 0.873187578612234, 0.8778164643707063, 0.8823265871539316, 0.8868208885804448, 0.8912403431011676, 0.895631414527063, 0.8998929567410554, 0.9040458914694472, 0.9081614970729966, 0.9121982757865102, 0.916173700701885, 0.9200478496982754, 0.9238327973895467, 0.9275460926885755, 0.9311763827356253, 0.9346702986896807, 0.938138455587052, 0.9415135709986113, 0.9448044863059013, 0.9480055476799137, 0.9511180259640447, 0.9541377007191526, 0.9570870947276161, 0.9599210471236846, 0.9626638062648023, 0.965307646992031, 0.9678667274511185, 0.9703198514673032, 0.9726924313068015, 0.9749694033526732, 0.9771144548990601, 0.9792033270682379, 0.9811975543649415, 0.9830876890307273, 0.9848787247436152, 0.986569562432319, 0.9881618299417678, 0.9896516385720439, 0.9910443405895745, 0.9923366153863716, 0.9935195308628678, 0.994611490667293, 0.9956535568857316, 0.9965359756600615, 0.9973196510050256, 0.9979988509373378, 0.998584304304771, 0.9990196231976436, 0.9994104930138518, 0.9996977839115218, 0.9999245660976759, 1.0, 0.9999653596521291, 0.9998409904619596, 0.9996154717001466, 0.999246922001591, 0.9988246723159596, 0.9982922626220184, 0.9976650849165218, 0.99693538560624, 0.9961019855500219, 0.9951691645394775, 0.9941782454370113, 0.9930387249549779, 0.9918018286636523, 0.9904406954453759, 0.989013231379603, 0.9875174459621591, 0.9858907411298646, 0.9841688779891559, 0.9823487565216175, 0.9804382576290472, 0.9783917834417035, 0.9762991195348741, 0.9741112568869119, 0.9718422902400365, 0.9694653176888443, 0.967006436715305, 0.9644460743968002, 0.96179649057525, 0.9590174319778798, 0.9561971150804823, 0.9532983302529072, 0.9503000135998007, 0.9472157952235191, 0.9440537985607405, 0.9408002871991408, 0.9374297044382699, 0.9340174867933712, 0.9305233898073975, 0.9269977618867997, 0.9233378949353276, 0.9195899282914324, 0.9157827029675033, 0.9119017146849816, 0.9078974104451165, 0.9038787640308482, 0.8998018732149541, 0.8956367608410032, 0.8914025916663827, 0.8870929473015852, 0.8827259990678331, 0.8783270990831851, 0.8738271172817591, 0.8692668268137912, 0.8646142330993841, 0.8599412181738569, 0.8551931734271376, 0.8504069868395495, 0.8455645829325223, 0.8406519194736005, 0.8357041236665477, 0.8307103601597304, 0.82565938096462, 0.82056015605116, 0.8154230864224336, 0.8102312293079974, 0.805025397943498, 0.7997458047069865, 0.7944036357146917, 0.7890522532449895, 0.7836640624323391, 0.7782554951590066, 0.772796526364522, 0.7672529826931094, 0.7617397018050382, 0.7561951015270557, 0.7506079852615772, 0.7450081084060437, 0.7394071529539377, 0.733753126784161, 0.7280778741797123, 0.7224074951321062, 0.7166915610164303, 0.7109431392066315, 0.7052008055382689, 0.6994453047139064, 0.693654609403251, 0.6878804735772432, 0.6821122856258124, 0.6763183371521728, 0.6705189540574602, 0.6646711238320311, 0.6588711981423899, 0.6530750001243101, 0.6472695565540485, 0.6414649792832776, 0.6357023392427267, 0.6298996917551591, 0.6240798646862952, 0.618298072402882, 0.6125256576792375, 0.6067571565991832, 0.6010089465161673, 0.5952821120618348, 0.5895614482800301, 0.5838577554500819, 0.5781261150583512, 0.5724664312361455, 0.5668593847675062, 0.5612342171792645, 0.5556329104854412, 0.550028829910346, 0.5444827703390491, 0.5389629500010116, 0.5334708695170761, 0.5280079817745287, 0.5225468493993453, 0.5171501753783048, 0.5118332490357309, 0.5064953598156607, 0.5011948136567215, 0.495905520459079, 0.49068609881177305, 0.48549675256699315, 0.48035726471441775, 0.4752584556470808, 0.47021550135065887, 0.4651998086159929, 0.46022115364891636, 0.4552972168560586, 0.45041962290647053, 0.44559458337629615, 0.4408118813209249, 0.43604628168196363, 0.4313673892876627, 0.4267377662950352, 0.42213223350292495, 0.4176075396114113, 0.4131187484199655, 0.40869855181943965, 0.40433039671842463, 0.4000546869636643, 0.395788770059411, 0.39158706982783026, 0.38743524721573114, 0.38334207729075226, 0.379262531715308, 0.3752936710854485, 0.3713996157666567, 0.36754392781630224, 0.3637479530060694, 0.3599990515394253, 0.3563255368069749, 0.35268607589438056, 0.3491368947424903, 0.3456473996924827, 0.3422417733136781, 0.3388703428868087, 0.33557195479525787, 0.3323245024103568, 0.32914055485604327, 0.32601316838789485, 0.32295724166337697, 0.3199382910508102, 0.3170121226615457, 0.3141477435104929, 0.31132874685033396, 0.30859059690626456, 0.3059583321066592, 0.303337344022356, 0.30078047563723403, 0.29826296299729055, 0.29583655252478686, 0.2934361561111703, 0.291137860063803, 0.2888991267624979, 0.2867130600385753, 0.28459455749802903, 0.2825501733818024, 0.2805482701933273, 0.2786063187312533, 0.276745892549341, 0.2749202059542271, 0.27314687960391215, 0.2714420776554066, 0.26979592214988096, 0.2681738005672806, 0.2666476609667949, 0.2651941114150709, 0.2637756726334408, 0.2624126612869475, 0.26108967221148577, 0.2598377307634657, 0.25867450389481617, 0.25752328061409957, 0.256425900034328, 0.25538062328141115, 0.25438844725510446, 0.2533819206396873, 0.25249959427572205, 0.25166308802395426, 0.2509166506584124, 0.25016508874350607, 0.24943530895027624, 0.24878033627082394, 0.2481693080071847, 0.24757443637914409, 0.24705261740842338, 0.24659727515158253, 0.24615208251048462, 0.24574743100942484, 0.2453649608747589, 0.24504095079570115, 0.2447669268035079, 0.2445142217556827, 0.2442975233264475, 0.24409402807965352, 0.24394924053696637, 0.243823232713303, 0.24374307613835677, 0.24369242552767628, 0.2437264606600858, 0.24372542331808356, 0.24374501938416568, 0.2438043808932829, 0.2438908526961603, 0.24399276492678004, 0.24413125656041496, 0.24429014963122866, 0.2444739661252782, 0.2446785526937685, 0.24488802049453304, 0.2451329382735308, 0.2453763482699255, 0.24565637438876017, 0.24595038664233623, 0.24628382094945614, 0.24660010057937043, 0.246910165615796, 0.2472538355997609, 0.24760730509599344, 0.24798540567417646, 0.2483537671542352, 0.24869860580135703, 0.24908577952289832, 0.2494770305015745, 0.2499012959484167, 0.25029457668805744, 0.2506448700755918, 0.2510496143200132, 0.25145296868005784, 0.25190059413879623, 0.25229328349185937, 0.2526422706193517, 0.25303751942154207, 0.253427295553418, 0.25379340456328364, 0.2541722920724076, 0.2545381722912299, 0.2548997272586441, 0.25525115207091037, 0.25559969140066235, 0.2559279732749928, 0.25626124781603643, 0.2565634617644917, 0.25685351490903, 0.2571585049558696, 0.2574180983220629, 0.25762520256880245, 0.2578624189242082, 0.2580822384973312, 0.25828140644788483, 0.2584648697062591, 0.25864988144212053, 0.2587912359734495, 0.2589183950383579, 0.2590194537559088, 0.2590998909971609, 0.25916508882848255, 0.2592013328693233, 0.2591942091759944, 0.25918763744872547, 0.2591561560672898, 0.25907921037249276, 0.2589991125314267, 0.2588942848086267, 0.25875890052670136, 0.25859580416369154, 0.2584082110014589, 0.25818840649870367, 0.25792276696863736, 0.2576481671750395, 0.2573436440325741, 0.25701692635691903, 0.2566511422124899, 0.2562633152661091, 0.25583650714940037, 0.2553798206242532, 0.2548938770985878, 0.2543765849453696, 0.25380603830711806, 0.25323036389507403, 0.2526225073055215, 0.2520122127447557, 0.2513363071502914, 0.25060898098008544, 0.24987463107859426, 0.2491082709143132, 0.24830293062363237, 0.24747351340098694, 0.2466126688411739, 0.24571865153067737, 0.24479261439125868, 0.24388275243414337, 0.242886965338617, 0.24180368006205988, 0.240757194965607, 0.2396780781070423, 0.23857804344936206, 0.23743327200622197, 0.2362872611732289, 0.23507706158669753, 0.23383807642396112, 0.23255023264902613, 0.23125635389325883, 0.22994501563027442, 0.22859050712028695, 0.2272076260103507, 0.22576951790402827, 0.2243340725356379, 0.22285118492421746, 0.2213604250181617, 0.21984061846212774, 0.21829768756330015, 0.2167211381877125, 0.2151108212029719, 0.213482191984358, 0.21182756067208156, 0.21019301186267475, 0.20848251418439867, 0.2067460626575259, 0.20499319456568385, 0.20321902682495835, 0.20137147249513562, 0.19956244494080003, 0.19774782529594953, 0.19589130750590183, 0.19401440631250302, 0.19215975563974028, 0.1902388112573361, 0.1883001135777589, 0.18634771418917473, 0.1843799216840222, 0.18235782995207903, 0.18036554295053878, 0.17835091891635818, 0.17632780512892882, 0.1742897883350688, 0.17227444014703727, 0.17020453713671366, 0.16809547606577518, 0.16600911396343748, 0.1639118837919907, 0.1618290589711495, 0.15970938592201167, 0.1575904576323856, 0.15545612574350803, 0.1533162920798419, 0.15111207021654022, 0.14897042795562357, 0.14688373203962127, 0.144721105180558, 0.14255698687083826, 0.14034468653298798, 0.13818511184596338, 0.13605010187703986, 0.1338829969430614, 0.13171677274308138, 0.1295765917486692, 0.1274111004717449, 0.12519136979659648, 0.12304243093246395, 0.12089554985828894, 0.11874737069698628, 0.11660816218751137, 0.1145235184484661, 0.11238843322767625, 0.11026273141422972, 0.10812852966397897, 0.10602535363168311, 0.1039398729898749, 0.1018560316984733, 0.09978379965999268, 0.09770454442308646, 0.09565975710029764, 0.09359932553093793, 0.09158348240548576, 0.08957988312157572, 0.0876357929098673, 0.08565359108795918, 0.08369065874176734, 0.08174371444458287, 0.07981527088585826, 0.07787429926248451, 0.07598815956391712, 0.07410435754309955, 0.0722570586574643, 0.0704283362337569, 0.06864606578500146, 0.06685336392007254, 0.06506898701382387, 0.06332311868971509, 0.061599657606921196, 0.05992362124926548, 0.058243486819033394, 0.05654237063714724, 0.05491906886294081, 0.05331908626376542, 0.05178766732249959, 0.050230638861925386, 0.04870829143308554, 0.04720593929902932, 0.0457320447672883, 0.044279758687640405, 0.042864106466077294, 0.041459501992021044, 0.04010334835904395, 0.038775199090143764, 0.03747017406426602, 0.036199768425907816, 0.03492838255739579, 0.03371955620562837, 0.03253846254817228, 0.03140486440389874, 0.030278349665550444, 0.02920306800501433, 0.028134640485707282, 0.027098082272051315, 0.02608641676579012, 0.025114529579656864, 0.024185529042921792, 0.02327531998649546, 0.02239739788502955, 0.021530740066416258, 0.020719911822861058, 0.019926074540111423, 0.01917908921804664, 0.01846251435544292, 0.017779158693025914, 0.017123596295645666, 0.0165287638468746, 0.015931528455493518, 0.015367071341213363, 0.014792333434161961, 0.014298168903178364, 0.013852064545959823, 0.013415114499704853, 0.013009111270168733, 0.012607730791754389, 0.012266615497145123, 0.011999197968959594, 0.011710741743399795, 0.011453980374027672, 0.011213673366306024, 0.011021046718257689, 0.010868651969619877, 0.010733944248899611, 0.010629076669878106, 0.010504753810894708, 0.010464717819687703, 0.010458602870220041, 0.010469725110448141, 0.010507380835154786, 0.010557467190737337, 0.010649570711520982, 0.010776581866171267, 0.010917950979007454, 0.01110325883940914, 0.011293211113084218, 0.011509228240617744, 0.011743859864598433, 0.012011515043891384, 0.01228510447285604, 0.012603250331163841, 0.012943824355192177, 0.013303921055268623, 0.013688806076040843, 0.014106406238803357, 0.014532221122982695, 0.014979328053981751, 0.015462113781152998, 0.015948499347138507, 0.016488785138905365, 0.017011726383752816, 0.017555998341522994, 0.01808402585497541, 0.01867305256569523, 0.019306849488872794, 0.01992547989371664, 0.02056155660916167, 0.021215257814498362, 0.02188405089846324, 0.022555203920088314, 0.023255954163699254, 0.02397016974773605, 0.024717448498893572, 0.025454533813017106, 0.026202071953400612, 0.02696497164500574, 0.027739484517710866, 0.028570455629624687, 0.02936063753726528, 0.030178933530185977, 0.030990951432959005, 0.031814417975285544, 0.03261865843922513, 0.03346597506952932, 0.03432912505642486, 0.03518897094348067, 0.03605531429330455, 0.03697214229193317, 0.03784408948549443, 0.03872856582477625, 0.03961352580957385, 0.04050433818633993, 0.04143689385146329, 0.04233235969236019, 0.04326577371666414, 0.04416739479990301, 0.04507457699288728, 0.046036061524935196, 0.046944914141545155, 0.04789499072809662, 0.048808859407802885, 0.049727795877462025, 0.05069247180117942, 0.05161251665849182, 0.05252602517961296, 0.05345403993117592, 0.054383033198250386, 0.05538988489700626, 0.05630835568586009, 0.057248075843610385, 0.05816874560544694, 0.05909095560556205, 0.06005028882850645, 0.06096768924607755, 0.06188570596773565, 0.06280329031570006, 0.06371952981468143, 0.06464587117471068