0.027922292224184766, 0.02765073712210001, 0.027397916527638653, 0.02713716597722438, 0.026917160406489973, 0.026812179565025587, 0.026598052204206864, 0.02639722972711856, 0.02614884325663139, 0.025976407885579627, 0.025815387148470044, 0.025651125426269183, 0.025490762156446037, 0.025294518833040035, 0.0251454695469073, 0.025001255643318405, 0.024852712055086563, 0.02470514790466318, 0.02456961771746957, 0.024423115731074398, 0.024270022079182007, 0.02412902903692991, 0.023989989644654756, 0.023850984627683137, 0.023716922222045002, 0.02357895713001391, 0.02345129929643249, 0.023326507370908897, 0.0232114694343586, 0.023092607005936693, 0.02298452272163805, 0.022873562032929708, 0.022767714786893, 0.022673717612813123, 0.02257785149990865, 0.02246405614724526, 0.022383483012807667, 0.022307904324910276, 0.02219840098632693, 0.022138764616673145, 0.0221461130900119, 0.022086547336645675, 0.022035394399461294, 0.021909753754376496, 0.021885844151876648, 0.021918008350478392, 0.021895628776793952, 0.021881216695545814, 0.02188144417034369, 0.02188252264518581, 0.021833424334630328, 0.021859427424437614, 0.021890963967019596, 0.021926396371394624, 0.021970850075335852, 0.022039631477195724, 0.02209605112669043, 0.022161111008357624, 0.02224808882435047, 0.02232933592504559, 0.022381233834184288, 0.022487306251786854, 0.022601180717036554, 0.022705779840962257, 0.022838539045536718, 0.023011843180156383, 0.02315654487645635, 0.023311705008214705, 0.023462132387612515, 0.02364036546581773, 0.02384369344232723, 0.024039853644239263, 0.024247086721020394, 0.02443927481372408, 0.024672127573899274, 0.024932207726250682, 0.0251826945694929, 0.025444479884241273, 0.025660960467280933, 0.02595281516791783, 0.026320699743305552, 0.02662140939341916, 0.026935400619330942, 0.02719279692835601, 0.027541936932785508, 0.027941685048749162, 0.028304464393763853, 0.028679762346401204, 0.029050236778339535, 0.029453092624565847, 0.02984162983817378, 0.030271742406310056, 0.03071270647557386, 0.03121946398319953, 0.03167645367978156, 0.03212450374073638, 0.03261449797622659, 0.033117961634928306, 0.03362628100711299, 0.03415811244197411, 0.03467707094710806, 0.03523897630074353, 0.035813036303348186, 0.03647157699890465, 0.03706187768447212, 0.03766497239842712, 0.03828981494595441, 0.038930970711262246, 0.039505363634090726, 0.04018905220559255, 0.04093405143988644, 0.041634246191942934, 0.0423494435054879, 0.043018607643499185, 0.04377162018776144, 0.04456900920348878, 0.045341728298701964, 0.04612891802509805, 0.04692635104449185, 0.04774341759785191, 0.04861431332433628, 0.04945567769794579, 0.05031403050377255, 0.051141154865011834, 0.05203886358629051, 0.05293059498969626, 0.0538582965010847, 0.054822923332625624, 0.055773766700369994, 0.05673945399487214, 0.05773527374011739, 0.05872876993550461, 0.05968128529406226, 0.060713254344217274, 0.06175748176637896, 0.06284263788474934, 0.06390869769757407, 0.06496541262188196, 0.06606373645611106, 0.06717522682058279, 0.06829781087323403, 0.06943619919178728, 0.07062929128784992, 0.07178900288292835, 0.07296433767214498, 0.07410259631120569, 0.07531474130425599, 0.07659307453827184, 0.07782176791324236, 0.07906537008825375, 0.08030385081887047, 0.08157856814601826, 0.08289430171058201, 0.08419057738142602, 0.08550073333536355, 0.08680253881675781, 0.08814197229860173, 0.08947978170581858, 0.09084361074194312, 0.0922177979585421, 0.09356954230715596, 0.0949683016773548, 0.09637526683277518, 0.09779056108865096, 0.09921425981594947, 0.10068783207667975, 0.10212315557810955, 0.10355828345898835, 0.10501599307102213, 0.10648298977634593, 0.10796551459828617, 0.10944935093034965, 0.11094411084753518, 0.11244479591301018, 0.11395362856587105, 0.11543534342831684, 0.11696377602077472, 0.11850602318469029, 0.12004345645711488, 0.12158628167719863, 0.12311466046950081, 0.12467010254680314, 0.12622696988365134, 0.12778979660925455, 0.1293558661752574, 0.13097955067938086, 0.1325447295786432, 0.1341222140615825, 0.13569742046107258, 0.13727744729393668, 0.138804928473105, 0.14039981146836514, 0.14197481174638601, 0.14357154859729754, 0.14516665796667402, 0.1467819237088349, 0.14837089722377128, 0.14995489151716052, 0.15154285169600426, 0.15312927607120141, 0.15474219593148908, 0.15632098684930967, 0.15790100812014995, 0.15947703268228383, 0.16105106755885223, 0.1625636541730966, 0.16413944981745465, 0.16575625726776724, 0.16731199366842886, 0.16886329582277526, 0.1703769196510859, 0.17192190844073824, 0.17348523579884184, 0.17501101049324524, 0.17652991605717688, 0.17804799724324416, 0.17955084934649101, 0.1809955620803362, 0.18248826600932727, 0.18396912002104684, 0.18546854774737143, 0.18692147325206804, 0.18835727447718054, 0.18978939993063942, 0.191209649463574, 0.19263942344733528, 0.19403193256909917, 0.1953863791406119, 0.19675781846334675, 0.19811472540283498, 0.1995418077391336, 0.20085784252146635, 0.20206272593315808, 0.2033687312667273, 0.20465624501151206, 0.20596660606952052, 0.2072115669301421, 0.20845305072384546, 0.20966270660790226, 0.210855500403129, 0.21204610050272146, 0.21320147357309252, 0.2143478521167144, 0.215466042159938, 0.21656575341712025, 0.21757219185485616, 0.21864243191915814, 0.21971002708491164, 0.2207286625925987, 0.22172414592905598, 0.22267446976625238, 0.22362579797631865, 0.2245499349677577, 0.22545145912978345, 0.22632770154402124, 0.227230904906532, 0.2280496421527771, 0.22878895941671376, 0.22956884609825806, 0.23032169412957695, 0.23104525870936912, 0.23174408742409888, 0.23248309704379957, 0.23311840807884873, 0.23372983862136026, 0.23428398304544876, 0.23484976767109017, 0.2354228141136556, 0.23592864343844208, 0.23640825357818682, 0.23683057458975013, 0.23726004069349213, 0.23760557167868548, 0.2379829403943507, 0.23832750827898622, 0.23870280331322957, 0.23897456812232426, 0.23923959418266255, 0.23945114897099654, 0.2396346965335266, 0.23973305940704495, 0.23986638942757915, 0.23999778307154312, 0.24006243051737675, 0.24009653674449816, 0.24001488294520298, 0.23999818885694787, 0.24002425432421556, 0.23992669605322106, 0.23979886055977054, 0.23963183167501967, 0.23944399098602978, 0.23924668539932592, 0.23899348498820205, 0.2387101385404482, 0.23838117474194861, 0.23803888574992038, 0.23766289808087443, 0.2372578627171294, 0.23682122675765915, 0.23633996092320056, 0.23584195707570807, 0.2352725607399564, 0.23471543997491082, 0.23412436002551232, 0.23353471760449826, 0.23287277361626715, 0.23221729614004682, 0.23148956310816635, 0.23073354432272156, 0.22991418208707368, 0.22910556123207954, 0.22828815260997912, 0.2274158277089311, 0.22651462705641637, 0.22554755294045498, 0.2245935478011541, 0.22362852344154246, 0.22261118994818804, 0.22156519170353006, 0.2204471722009934, 0.21935015340130937, 0.21830352688873078, 0.2171363404120315, 0.21594462321738506, 0.21471739594530106, 0.21347782605559948, 0.21216724848463586, 0.21088321558193102, 0.2096262844814121, 0.20828110745260137, 0.20691273444218664, 0.20553437014959758, 0.2041183490332429, 0.20258874430337376, 0.20114046086643378, 0.19966534877202496, 0.19819052639896587, 0.19666123568525412, 0.195124536019882, 0.1935485546781928, 0.19195192286737153, 0.19031981844809276, 0.18868515487317536, 0.1870281542345938, 0.18535403934332947, 0.18366080718035613, 0.18198393832465914, 0.18024980888702025, 0.17845445498265528, 0.176695549865144, 0.17491924714695328, 0.17317859852812942, 0.17136299153708445, 0.1695437192542096, 0.16770246714547726, 0.16584982609564367, 0.1639336940596989, 0.16206565399254994, 0.1602212021742506, 0.15832227245627978, 0.15641346023695427, 0.15444721928231706, 0.15252602981832306, 0.15063724179514637, 0.14868897614796434, 0.14673365336128186, 0.14470412332893995, 0.14274462542928507, 0.14077569722545794, 0.138798383331778, 0.13681367220104096, 0.1348879290317656, 0.1328829182081448, 0.13086595769269438, 0.12886052303876158, 0.1268540383922184, 0.12481858773451193, 0.12281491064083627, 0.12086446681788345, 0.11885202142798423, 0.11684273856317151, 0.11481722350674244, 0.11281748800322532, 0.110824991657459, 0.1088309584610307, 0.10684105467417174, 0.10481214256358941, 0.10283746493135229, 0.10088338783366871, 0.09891366851995541, 0.09694975988921688, 0.09495741277310904, 0.09301145937393814, 0.09114976478272147, 0.08920626060614224, 0.0872746307924186, 0.0852917923171321, 0.08339243744246773, 0.08156961858166792, 0.07968034639555015, 0.07780531155301673, 0.07591632512751975, 0.07407387528990633, 0.07225338975541601, 0.07043680627213976, 0.0686349255978873, 0.06683943424793941, 0.0650692966475449, 0.0633320605207246, 0.06159111326513663, 0.05986756692700055, 0.058187923136766476, 0.0564968700944347, 0.054825702520917334, 0.05317456108795111, 0.05154361605394515, 0.04997450079048962, 0.04837931927380265, 0.04683348168415825, 0.04528125687486086, 0.04375356799302922, 0.042280759964046934, 0.040797786900311404, 0.03937341000394206, 0.03793781367119449, 0.03652950878008914, 0.03516339145611135, 0.03380672035072787, 0.032534055871397835, 0.031224572906100968, 0.029945157142586807, 0.028686527513097804, 0.027466792972798467, 0.026355992446507708, 0.02518235712099966, 0.024041204722313827, 0.02292311662784044, 0.02184608138799716, 0.020864766201132944, 0.019839773272954463, 0.018848286377994357, 0.017948547726026828, 0.01701482698031565, 0.01613380246838754, 0.015267594575953048, 0.014436201082740378, 0.013645516871008746, 0.012881110209080676, 0.012178664300972166, 0.011477530769164157, 0.01081096984721721, 0.010235269786251708, 0.009629534833297496, 0.009034415216672856, 0.008504944260424653, 0.008009673996714083, 0.007611665763611382, 0.007176308435538607, 0.006811041934332822, 0.00644577343141095, 0.006118761109628195, 0.005846849891363355, 0.00559244582733036, 0.005441211129543207, 0.005253563371101157, 0.005106508909913624, 0.004970881931658465, 0.004906289171368251, 0.004937521856226663, 0.004939129160907957, 0.004980570230586783, 0.0050895996838942765, 0.005205433868573483, 0.005343747512060414, 0.005541085236443394, 0.0057763537718051, 0.006060220214992652, 0.006369313760594016, 0.006729478724769642, 0.007112704490867675, 0.007534323677690323, 0.008037744247689405, 0.008530047712665169, 0.00905832361694051, 0.009631397635168511, 0.010243731317820573, 0.010943019913558215, 0.011626999709836166, 0.012326043526499419, 0.013095256376669993, 0.013903221119254454, 0.014773737968338965, 0.01565563716870896, 0.016572798644649826, 0.01753420060897757, 0.01853443162470636, 0.019575492065797638, 0.020652591847877516, 0.02176163848147615, 0.022916418221387982, 0.02410908596413852, 0.025367953718823288, 0.026632699099620866, 0.027958629679358114, 0.02929911520143619, 0.03067972175617765, 0.032078266320314866, 0.03354079510245089, 0.03504776957180013, 0.03658519587929453, 0.03816073838195807, 0.03973938346902237, 0.04139522497852791, 0.04315668933005495, 0.04487556441111909, 0.04663454267973873, 0.04839394307995927, 0.050236863059923434, 0.052149254792202844, 0.05406156781917906, 0.05601249448352877, 0.05799304783846658, 0.06002154102141695, 0.06208526278146511, 0.06418872717457638, 0.06632924092458332, 0.06848490610474703, 0.0707020143047937, 0.07295469425461434, 0.07524304344308286, 0.07757368253951878, 0.07993275869191421, 0.08232805242959226, 0.08477698668510858, 0.08724242907103429, 0.08973843089304376, 0.09227872002296393, 0.09485538608985761, 0.09746177620480713, 0.1001116957755071, 0.10282347372206976, 0.1055414088835945, 0.10829639522758434, 0.1110423639954124, 0.11387645691501677, 0.11677045682062169, 0.11966887060825895, 0.12260277502407692, 0.1255698795862577, 0.1285747136998457, 0.13156661096929, 0.13464750927446817, 0.13776057841287426, 0.14093228236033778, 0.14410721338934976, 0.14734923235252448, 0.15058872290710515, 0.15386430794300782, 0.15714293826223524, 0.16049386625678716, 0.16383013602772453, 0.1672537668613057, 0.17070799632924682, 0.17423242938393418, 0.17774387719208695, 0.18128899559273456, 0.18486765208176958, 0.1884797084609889, 0.19210321222554294, 0.19578439121708824, 0.1995103880807686, 0.2032533965406996, 0.20702888495188476, 0.21080400542845712, 0.2146481798054958, 0.2185225730376169, 0.222427292348474, 0.22636240621644083, 0.2303126815289766, 0.2343105827618971, 0.2383576572038564, 0.2424122356221391, 0.24649755972639995, 0.25062873320756085, 0.25477311815265574, 0.2589136875400276, 0.2631243242251724, 0.2673634507914927, 0.27163322157724457, 0.2759289422898457, 0.2802509269521304, 0.28460368654175483, 0.2889844948373074, 0.29341065083423307, 0.2978448862968321, 0.3022989249582689, 0.3067909757735545, 0.3113103837973512, 0.3158394352597017, 0.32041495729509634, 0.32498550415999583, 0.32961585518403846, 0.3342697327022723, 0.33896245567729305, 0.3436615627232971, 0.34836979618657565, 0.3531194094584425, 0.3578921160115132, 0.3626943267372852, 0.3675119620508912, 0.37234819853145334, 0.37721203078632204, 0.38209799994444466, 0.3870123645180321, 0.3919409060809507, 0.3969128456685301, 0.4018814114899897, 0.40687198815252446, 0.4118883467509306, 0.41692063425927517, 0.4219429092716162, 0.42701950574419006, 0.43211373692413224, 0.4372405453107301, 0.442367122315682, 0.44747189911510404, 0.45263784467193546, 0.45781802550173945, 0.46305586191972326, 0.46825836151648437, 0.47342448347130456, 0.4786648628293392, 0.4839169450579114, 0.48922630147059254, 0.4944952696029957, 0.4997318957211629, 0.5050328478809503, 0.5103432549499048, 0.5157020395660118, 0.5210253530686344, 0.5263177737704994, 0.5316666603295424, 0.5370222642444972, 0.5423580088317553, 0.5477291042106907, 0.5531499275754224, 0.5585227968885103, 0.5639015261764333, 0.5692766285285267, 0.5746658921742512, 0.5800538775298566, 0.5854491684952818, 0.5908459066225459, 0.596254322616838, 0.6016505421131562, 0.6070205911398315, 0.6124193235844319, 0.6178149938417005, 0.6231939296475633, 0.6285833428876194, 0.6339256832849788, 0.639308508612016, 0.6446822259691759, 0.6500661744928901, 0.6554182567161465, 0.6607699851082266, 0.6661021712601177, 0.6714244609049569, 0.6767469887305503, 0.6820457792798574, 0.6872849442341159, 0.6925656049514548, 0.6978301144472072, 0.70307140613995, 0.7083028194403885, 0.7135574366832453, 0.7187465384780831, 0.7239184794240321, 0.7290569745769879, 0.7341934760018415, 0.7392718507411807, 0.744370063199906, 0.7494433858841574, 0.7544999493128776, 0.7595205663921045, 0.7644385453419058, 0.7694154204043858, 0.774360120437721, 0.7792637112085433, 0.7841444386000237, 0.7890308542358057, 0.7938390878663544, 0.7986150931936481, 0.8033427514871322, 0.8080536529551782, 0.8127157683535068, 0.8173561410336377, 0.8219584872912524, 0.826532984272328, 0.8310556838319736, 0.8354819888128332, 0.839931575684725, 0.8443364781486725, 0.8487420329925589, 0.8530503265558844, 0.8572996738877915, 0.8615215434563362, 0.8656968914447297, 0.869794322760389, 0.8738778925472178, 0.8779193401998261, 0.8818994792586322, 0.8858279572785243, 0.8896669319907294, 0.8934944607651113, 0.8972746298502786, 0.9009883846110067, 0.9046454936744946, 0.9082343973282033, 0.911777605112574, 0.915302961722594, 0.9187217281392541, 0.9220822591458468, 0.925342118523664, 0.9285884483440071, 0.9317887479391564, 0.9349053295980788, 0.9379582226897418, 0.9409139574702474, 0.9438413496512031, 0.9466857079155891, 0.9494790294904045, 0.952202773565414, 0.9548478343436464, 0.9574323510503675, 0.9598910491730832, 0.9623394832129192, 0.9647302142734571, 0.967026150273431, 0.9692478621546436, 0.9714125344852963, 0.9734827686834739, 0.9755050412957257, 0.9774232106357476, 0.979267733779839, 0.9810030158628787, 0.982702588519993, 0.9843485374136378, 0.98588952027771, 0.9873535730682015, 0.9887074536584023, 0.990020222331465, 0.9912985141152725, 0.9924447498752023, 0.993512893150453, 0.9944565761080408, 0.9953726643513702, 0.9961912505584642, 0.9969447267387159, 0.9976149625127965, 0.9982216290844306, 0.998723015904346, 0.9991663411851222, 0.9995004428962266, 0.9997535577171589, 0.9998926627712305, 0.9999870543184018, 1.0, 0.9999269366691997, 0.9997705227816707, 0.9995155607137499, 0.99919459324926, 0.998759126054386, 0.9982743134230828, 0.9977042759392079, 0.9970625738607122, 0.9963218301942868, 0.9954804992951477, 0.9945759873812338, 0.9935879681598132, 0.9925168913202828, 0.9913631947389551, 0.9901512984382272, 0.9888306145245818, 0.987429937030188, 0.9858971570505088, 0.9843438376974573, 0.9827192750587107, 0.9810010187734453, 0.979202677254913, 0.9773488465807804, 0.9753891152957777, 0.9733808061172161, 0.9712640407175106, 0.9690727856483561, 0.96677456634622, 0.9644392421773202, 0.9620241143736548, 0.9595391206518069, 0.9569797807825683, 0.954318471805073, 0.951616223475555, 0.9489078708110616, 0.9460506452037464, 0.9431254808836461, 0.9400608375241047, 0.9370102457473879, 0.9338891433060132, 0.9306987083540489, 0.9274400967649198, 0.92413407429495, 0.9207400253907824, 0.9172800918425993, 0.9137598559690663, 0.9101776970079487, 0.906512795598738, 0.9028125295128608, 0.899056484467684, 0.8952365880692313, 0.89135919274314, 0.8873883759303364, 0.8834041297399394, 0.8794095641673416, 0.8753087457309218, 0.8711572577294718, 0.8668972419388601, 0.8626549610365949, 0.8584294573730918, 0.8540785278682375, 0.8496836462775649, 0.8452217676948062, 0.8407448884511248, 0.8361842194793669, 0.8316291184357183, 0.8270318331290868, 0.8223874104649939, 0.8177113182066384, 0.812999524502895, 0.8082489418664632, 0.8034636693447516, 0.7986626302860816, 0.793810179078887, 0.7888934903524247, 0.7839880461250752, 0.7790538656794941, 0.7741121458762559, 0.7691226862707726, 0.7640905806097437, 0.7590588954891562, 0.7540057456520339, 0.7489435182846362, 0.7438504874651428, 0.7386973737037245, 0.7335782679727486, 0.728442924219842, 0.7233017482384599, 0.7181378249730574, 0.7129848727959682, 0.7077980004547622, 0.7026044573008602, 0.6973902368858752, 0.6921890626818904, 0.6869885036375484, 0.6817806677238081, 0.6765720805134691, 0.6713640597892309, 0.666157914001818, 0.6609069623370858, 0.6557145220400997, 0.6505251352050833, 0.6453884403289071, 0.6402040123085364, 0.6349974265380092, 0.6298393630349016, 0.6246922558122742, 0.6195313191053187, 0.6144135575557804, 0.6093333364768762, 0.6042411488901294, 0.5991668185144926, 0.5940766632936367, 0.5890460759667622, 0.5840306006273882, 0.5790409440449094, 0.5740733256442178, 0.5691487361273591, 0.5642267487080694, 0.5592969443055357, 0.5544345862413165, 0.5495994496183481, 0.5448429950210103, 0.5400598023109665, 0.5352929356204058, 0.5305802377043732, 0.5259018235599793, 0.521234594172054, 0.5166304379888017, 0.512088015171045, 0.5075527100660238, 0.5030564663696484, 0.4985302408602041, 0.49412317169355463, 0.4898014329359258, 0.4854642702159452, 0.48116961266484903, 0.476868026465808, 0.47266687971440047, 0.46856641914289276, 0.46444249069677984, 0.4603657171920147, 0.4563234604121699, 0.45234398893413597, 0.4484537032281327, 0.4445650248187816, 0.44072747023698944, 0.43691502846804, 0.43318353049430847, 0.4294367957552295, 0.4258143696106591, 0.4222392800515955, 0.41874514793821105, 0.4152632321022548, 0.41181333407446036, 0.40843759953171516, 0.40511318831735504, 0.40187767055149987, 0.39865264889165863, 0.3954300169937, 0.3923211231397446, 0.3892641081620429, 0.3862245270915234, 0.3832769681138899, 0.38046118819100444, 0.3776061502177286, 0.3748077467220524, 0.37198720337741986, 0.3693112182464343, 0.3666910557785634, 0.3641178223197921, 0.3616209688552751, 0.35914967671770265, 0.3567324470746571, 0.35433208408042427, 0.3520272754183277, 0.3497870816528813, 0.347583766068377, 0.3454328276936687, 0.3433472120774476, 0.34129891171536403, 0.33930754148902126, 0.3373634628795529, 0.3354714491423273, 0.33362015502785825, 0.33183231211449077, 0.33005747761565946, 0.3283740907954401, 0.3267378817221801, 0.32523375347983086, 0.32368062714472245, 0.3220893995862241, 0.32064920744168096, 0.31925334178751413, 0.31795392837660197, 0.3166393879811694, 0.3153625611307466, 0.3141411924859725, 0.3129641647492523, 0.311793674633882, 0.31070782660812596, 0.30969692980189356, 0.3086863322127244, 0.30771680389979966, 0.30676135757590783, 0.3058748250531256, 0.30501889222880757, 0.30420685579711915, 0.30343033224669713, 0.30267125245471926, 0.30196606278672117, 0.30130435107940645, 0.3006623578837654, 0.3000523643237313, 0.2994867152237804, 0.29893681998142785, 0.29839773737997805, 0.2979102929216925, 0.2974503569616599, 0.2970215261782561, 0.2966137363025674, 0.2962640486078195, 0.29590203443761315, 0.2955655020755053, 0.2952140430794973, 0.2949300046234378, 0.29470729239083404, 0.29445701828617865, 0.2942273889483276, 0.29398236189995613, 0.2937950149943675, 0.29360553467329875, 0.2934502213050255, 0.2933076260746719, 0.2931661542093069, 0.2930482737101138, 0.2929926851104687, 0.2928874049150942, 0.292793618363315, 0.2927167083101774, 0.2926416309634461, 0.2925139537314848, 0.2924623974294102, 0.2924136468168238, 0.2923431290925163, 0.2923012400931655, 0.29224805726268316, 0.2922062862674973, 0.29216250243522845, 0.2921772884644387, 0.2921202623082215, 0.29202162987029173, 0.2919684086992703, 0.29191053066601397, 0.2918691014247197, 0.2917970285176624, 0.29167793832183536, 0.29159903522733516, 0.29151042391109816, 0.29145954129249796, 0.29134379300518704, 0.29118225523534047, 0.29105277735321305, 0.2909105607458211, 0.2907528015039527, 0.2905835094486023, 0.2904387319379585, 0.2902343798497716, 0.29001626355878934, 0.2897703711899764, 0.28952364480839443, 0.2892641292661272, 0.28898185086783734, 0.2886812932771041, 0.28833123774914254, 0.28799595208368506, 0.28761906942752014, 0.28724196759291404, 0.286841069260976, 0.2864466963619799, 0.2859936915365813, 0.28552009508080867, 0.2850207637963127, 0.28449779219396815, 0.28395942300927757, 0.28338664836597516, 0.28278935020447593, 0.2821670471541742, 0.28151928942913446, 0.28086092426021025, 0.28015909905388564, 0.27938570721162465, 0.27863768230836206, 0.2778604504889719, 0.27708017729552076, 0.2762411985278356, 0.2753526353983445, 0.2744606321548545, 0.2735391919217352, 0.27260357494971227, 0.2716213144990879, 0.27061700727366367, 0.26957662398697085, 0.2685078075335387, 0.26745405145235973, 0.2663225077199104, 0.265105804023046, 0.26392876233044843, 0.2627214243538923, 0.26149708949972467, 0.2602281470361804, 0.2589346502992026, 0.2576074397697921, 0.2562518071992181, 0.25486786896772684, 0.2534557634511667, 0.2519894793604329, 0.25052484812383763, 0.2490311215094319, 0.24747383518978397, 0.24592761361308904, 0.24440831357400308, 0.2427960531335527, 0.24115854698388736, 0.23950905274245296, 0.2378199469698798, 0.2360873064227772, 0.23435302205240016, 0.23259407401312154, 0.230830476655326, 0.22902089261541245, 0.2271496923645397, 0.22530062426284375, 0.22342757047228232, 0.22155517318841667, 0.21963306123143572, 0.21767061032516138, 0.21570999392676485, 0.21372845486122632, 0.21172880444772543, 0.2097070332786467, 0.2076401763526179, 0.20558449371503404, 0.20350964820825104, 0.20144699771861851, 0.19933241859548526, 0.19720716251604753, 0.19506247496544224, 0.19290405067744135, 0.19065825500060088, 0.1884833006648042, 0.18637056456820664, 0.18415425780526937, 0.18192833191164579, 0.1796626755453576, 0.1774226675289957, 0.17517050129432996, 0.17291156725468018, 0.17064403266946404, 0.1683621129761794, 0.1660804720078723, 0.1637703081696096, 0.1614787890144889, 0.1591809040429439, 0.15690158837888551, 0.15459074257193076, 0.15229943150980285, 0.1499819474200548, 0.14766475032446744, 0.1453003552949611, 0.1429913070792948, 0.14069448997917153, 0.13838302041426026, 0.13607328287978226, 0.13373770125341464, 0.13143732622816745, 0.12916773126324171, 0.1268695931258062, 0.12457082283537713, 0.12228599518662964, 0.1200080303385705, 0.11773981446940933, 0.11547740402987121, 0.11318698578207864, 0.11094805404515806, 0.10871741224959733, 0.10653089280523594, 0.10431518747098296, 0.10209496600656824, 0.09990786294896953, 0.09773377965335692, 0.09560174147950865, 0.09345211459357214, 0.0913037975158393, 0.0891896458287342, 0.08709201088725854, 0.08502669686951397, 0.08296177156995552, 0.0808874601406601, 0.07886444445117999, 0.0768595971322152, 0.07483429522342037, 0.07287262388589767, 0.07094401123580378, 0.06901687173070456, 0.0671100753114966, 0.06529186794297838, 0.0634190854391597, 0.061526446242281235, 0.05971133094444238, 0.057919607905976486, 0.056158249256626054, 0.05441375412086596, 0.05267244521821012, 0.05098102359563042, 0.0493140136806146, 0.04768716170463913, 0.04606845174675346, 0.044443639720935464, 0.04288255350774537, 0.04134675850452441, 0.03989782184487408, 0.03840634716855802, 0.036892619796015255, 0.035467824785902304, 0.03406997134685996, 0.03271249247727669, 0.03136787473292446, 0.030082404062238745, 0.0287912964620331, 0.027530784434956036, 0.02629855105953521, 0.025099112445125634, 0.023886161440307675, 0.022752366631035012, 0.021646068220226338, 0.020550093487260748, 0.01950177497385846, 0.018543918626236063, 0.01754232915697231, 0.016572041582379387, 0.015604389158156222, 0.014699363536867264, 0.013792621984683178, 0.012949048572507968, 0.012132475594877333, 0.0113954115062171, 0.010626672726710265, 0.009831526742706752, 0.009130162310244435, 0.008455148853195791, 0.0078043973250309494, 0.007182589454776614, 0.006615498069548212, 0.006042811197397787, 0.00549799327394653, 0.004991620653983617, 0.004500171297234888, 0.004031838491274927, 0.0035954633188094794, 0.0031854580429143417, 0.0028319643008541447, 0.002469662707746228, 0.002147349967064159, 0.0018365565849242512, 0.0015521401118617788, 0.0012977642303605207, 0.0010634894899239171, 0.0008582014034897477, 0.0006719814436787659, 0.0005093715054419654, 0.00036756301133920757, 0.00025059067770234734, 0.00014438943945893737, 7.160174313482726e-05, 1.8800291863061154e-05, 1.8265811271128484e-05, 0.0, 4.150867116831457e-05, 5.86131501896569e-05, 9.706404157549927e-05, 0.0001275474055311128, 0.00020945172170340048, 0.00036946999610195855, 0.0004771821527129132, 0.0006042497369023218, 0.0007736331112754349, 0.0009333613870073258, 0.0011632535099893968, 0.001350979723934451, 0.0015574853046467804, 0.0018381687404976804, 0.0020712600821283724, 0.002300913941389477, 0.0025720487451863974, 0.002857553435006975, 0.0032152903663065498, 0.0035191103759951822, 0.003901038820426136, 0.004225326321399065, 0.004565626911480405, 0.004940029522894961, 0.005305415801929492, 0.005738282738870423, 0.0061214229229494405, 0.006518178367721573, 0.006937999680115266, 0.007356405032124913, 0.007824395299118677, 0.008257382790609282, 0.00870080363266548, 0.009160008348872239, 0.009620028856922994, 0.01020107668917473, 0.010661120076773471, 0.011133495774519282, 0.011553362186576158, 0.012053807653196637, 0.012565353235345711, 0.013073519638885228, 0.013585551392033546, 0.014194747503238021, 0.014701274739607448, 0.015250565941360018, 0.015767353129572965, 0.016291970708417623, 0.016805881672628423, 0.017345239967413998, 0.01794965974416361, 0.018488723809350065, 0.019034165197101577, 0.01957636322369864, 0.020133098034771257, 0.0206824917636111, 0.021247246222953518, 0.021814060948372203, 0.022404499432196558, 0.02297199293429489, 0.02352255741924933, 0.024097650325612417, 0.02467383695298975, 0.025305626200634552, 0.025877090597514658, 0.02646800838515612, 0.027045533964740576, 0.02762741083542491, 0.028219814433729333, 0.028808538740294175, 0.029374923331107024, 0.02997440000380747, 0.030575861301899113, 0.03125356472928167, 0.031849962133573134, 0.03245725447491702, 0.033065741000800355, 0.03368024601802625, 0.03426776999185283, 0.03489767045817362, 0.03554421274699621, 0.03617976523395623, 0.036820022541577145, 0.03743677170279592, 0.038090474995256175, 0.038749990726963834, 0.03941114308000181, 0.040076970748768447, 0.04076536157436324, 0.041439656538781997, 0.042107845791699745, 0.04279805959802939, 0.04349514795527218, 0.04420173964048361, 0.044913649025319205, 0.045653539754018486, 0.0463801170292555, 0.047117042994973046, 0.04786897947687787, 0.04862697811256062, 0.04943362447246139, 0.05021041986486467, 0.0509143380209942, 0.051730974705138426, 0.0525573189408241, 0.053435714797702066, 0.05427891700048158, 0.05513240099965066, 0.05600591399446568, 0.056894784627588846, 0.05777555841522609, 0.058699792892026544, 0.059692012664106814, 0.06064166871972128, 0.06161139525382465, 0.06256441825533453, 0.06357991773092966, 0.06462533123810886, 0.06567817859904371, 0.06675205556736556, 0.067843206565126, 0.06896151802427737, 0.07008500023525778, 0.07125140865092298, 0.07244076465533622, 0.07368003246967092, 0.07491433596607597, 0.07611213533627614, 0.07740845262679008, 0.07872903878798274, 0.08013166008322066, 0.08149674770669832, 0.08289885934713224, 0.08432454120613404, 0.08578200546458468, 0.08721716569114779, 0.08874641671996951, 0.09031011537980195, 0.0918999104147961, 0.093521841519506, 0.09517453528241586, 0.09686340516825308, 0.09854518117156975, 0.10030871398219618, 0.10210571018377357, 0.10399170867684318, 0.10585172043193508, 0.10772494174565568, 0.10966742129207177, 0.11164861207315477, 0.11363641529444087, 0.1157009852149115, 0.11782819343734496, 0.11996783518355289, 0.12214903554691303, 0.12437012709082045, 0.12663623945908917, 0.12893654159974946, 0.1312900535692041, 0.13368690793434207, 0.13612760358864742, 0.1386126114177039, 0.1411336520786673, 0.14370969494472993, 0.14633081862870734, 0.14898219846404095, 0.15169670817185163, 0.15448284643080895, 0.15728543798077468, 0.1601358653116737, 0.16301250317140226, 0.1659619002332762, 0.16895842711842204, 0.172002408295308, 0.17509413391238224, 0.17820769035651676, 0.18139895465462955, 0.18463499301007166, 0.18792082020037434, 0.19125418021105584, 0.19465499119362337, 0.198081755099066, 0.20155787709577144, 0.20508334920458823, 0.20865814172574948, 0.21229528914200507, 0.21596689394525279, 0.21965998580851034, 0.22343463471606972, 0.227257086726717, 0.2311338776419456, 0.2350510496611881, 0.23902498221992308, 0.24303695616633003, 0.24709709207391503, 0.25117892686309873, 0.2553378023889855, 0.25955116694877406, 0.26380033613198073, 0.2680954478778216, 0.27239913607202193, 0.2767899176673716, 0.28127375730676, 0.28574390677947514, 0.290259535308377, 0.29479603932480036, 0.2994038117017471, 0.304097472348204, 0.3087838244775019, 0.31351397020467986, 0.3182194386312056, 0.32304314430085035, 0.3278890279744407, 0.3327892600519768, 0.3377254300892128, 0.3426754344035624, 0.34768528267080284, 0.3527571034180115, 0.3578302886726314, 0.3629379675478134, 0.36809034484150405, 0.373263493560015, 0.37844118110496366, 0.3836827976686423, 0.3889538951268875, 0.3942384934750995, 0.3995682934658418, 0.4049397004181804, 0.41031952414065265, 0.4157250365251419, 0.42117927318702303, 0.42663023513743237, 0.43208783013940316, 0.4375879242950516, 0.4431086490201258, 0.44860310685614435, 0.45416756831978106, 0.4597859913664463, 0.4653741109292841, 0.47097749845131676, 0.47659492892418426, 0.4822251636228582, 0.4878516843758955, 0.49350569012862566, 0.4991678515049262, 0.5048042902261488, 0.5104833794757747, 0.5161804850651134, 0.521862169955616, 0.5275454605277282, 0.5332247968596485, 0.5389082273571674, 0.5445544463111255, 0.550236413394508, 0.5559115959240658, 0.5615855259132092, 0.5672432238504563, 0.5728869478391659, 0.5785247578190172, 0.5841502462838907, 0.5897316355700449, 0.5953325755314265, 0.6009505497460395, 0.6065102735437813, 0.6120518767503916, 0.6175259174016539, 0.6230329544564953, 0.6284689766136349, 0.6339302825947535, 0.639361571318972, 0.6448012823018382, 0.6501650374611364, 0.6555724346033722, 0.6608644377927791, 0.6661273583628043, 0.6712937807617666, 0.6765009063305949, 0.6816847609879264, 0.6868115925676418, 0.6918981502477866, 0.6969124620224932, 0.701918020664391, 0.7068991019178273, 0.7118081567159485, 0.716669780902771, 0.7214324255083403, 0.7262013744815018, 0.730924661035854, 0.7355827755260094, 0.7401850353818303, 0.7447368807172342, 0.7492232765136394, 0.7536137464943035, 0.757985927200417, 0.7622947701759828, 0.766539369558017, 0.7707187853699907, 0.7748146019086039, 0.7788629283521957, 0.7828421224229366, 0.7867861955233222, 0.7906200361134633, 0.7943316355108244, 0.7980310670459179, 0.8016857602300453, 0.8052300275233841, 0.8086991867988134, 0.8120529251952142, 0.8153736765992444, 0.818635800014357, 0.8217922254185529, 0.8248680290191198, 0.8278535824177866, 0.8307665427378732, 0.8336044379793428, 0.8363479243877019, 0.8390065338739896, 0.8415663380912383, 0.8440543423140572, 0.8464804468613957, 0.8487883347149716, 0.8510083017757392, 0.8531700331313198, 0.8552077985122231, 0.8571438581965001, 0.8590050735055106, 0.8607750780173773, 0.862392087615424, 0.8639852881325669, 0.8655254677264184, 0.8669197975948787, 0.8682197679706299, 0.8694423752568617, 0.8705501062428153, 0.8715261432428133, 0.8724488478305388, 0.8732739530251679, 0.8739839389003078, 0.8746158469257372, 0.8751533624260648, 0.8755873233336626, 0.8759230018873464, 0.8761670240250371, 0.8763055715282297, 0.8763901081047475, 0.8763279534245455, 0.8761707843063165, 0.8758965617957005, 0.8755515015958973, 0.8751097191508886, 0.8745713588625054, 0.8739366034773038, 0.8732209399352977, 0.8723921629072011, 0.8714402683318064, 0.8704257526020084, 0.8693153464602238, 0.8681030423494537, 0.8668033068294785, 0.8653958906254551, 0.8639092657501165, 0.8623286191206955, 0.8606765425804945, 0.8589074474075754, 0.8570239280889145, 0.8550776256632597, 0.8530408306940938, 0.8509187903787945, 0.8487031229142057, 0.8463889851476881, 0.8440004449270433, 0.8415255044513305, 0.8389586246715366, 0.8363147305404727, 0.8335805645806794, 0.83077112643005, 0.8278797724935701, 0.8249185621435635, 0.8218654660240229, 0.818749810383289, 0.815540216890143, 0.8122558442233037, 0.8088584392431455, 0.8054325181214997, 0.802009064609393, 0.7984271876330954, 0.7947785726123003, 0.7909855076265886, 0.7872158215455173, 0.7834168698496988, 0.7795068167875572, 0.775533707833674, 0.7714901110258662, 0.7673958954245048, 0.7631919281732277, 0.7589863128335141, 0.7547211847119965, 0.7504333098320991, 0.7460503223796713, 0.7416109298450759, 0.7371259041856952, 0.7325915955540616, 0.7280051969188436, 0.7233775452691421, 0.718654890372591, 0.713945507908708, 0.7091916934946118, 0.7044063721501059, 0.6995683298534054, 0.6947251081886527, 0.6898089515559928, 0.684860332451666, 0.6798262325510805, 0.6748241119396513, 0.6698804470348134, 0.6648070845183314, 0.6597117123132068, 0.654551902655762, 0.6494216536721824, 0.6442139771180567, 0.639051142922924, 0.6338677852237037, 0.6286922174627867, 0.623470871263961, 0.6182432662768697, 0.6129972578636976, 0.6077423320996607, 0.6024300062249448, 0.5971686126177709, 0.5919179380227498, 0.5866429329449999, 0.5813662213398326, 0.5760852377875278, 0.5708110209167587, 0.5655226980514153, 0.5602591090444542, 0.5550013293295626, 0.5497293685985852, 0.5444913765365751, 0.5393636169282394, 0.5341346299324988, 0.5289248640046461, 0.5236611200767333, 0.518502078935935, 0.5133305669989546, 0.5082131923974059, 0.5031154893280083, 0.498043667357568, 0.49299023174609025, 0.4879555156349829, 0.48295505602849675, 0.47798268968956414, 0.4730727097035005, 0.46815708069868905, 0.4632672455167199, 0.4584229270700466, 0.45361497173329235, 0.44880752565606785, 0.4440806287449856, 0.4394134261789545, 0.4347609991413026, 0.43015053706473433, 0.4255330473925196, 0.4210163327707866, 0.41656617328437295, 0.4121330378607407, 0.40774669967247273, 0.4034301049282426, 0.39913796992292705, 0.39491458191856893, 0.3907236732485736, 0.38658669181094785, 0.38246503787963254, 0.3784428429877577, 0.3745005058668386, 0.3705833355233938, 0.3667231931407907, 0.36288802124888797, 0.3591480218057848, 0.3554564041934977, 0.35183258044435745, 0.34826704217521226, 0.34476497767136194, 0.34131788008173314, 0.3379338014042815, 0.3346087291248317, 0.3313458212170947, 0.3281826702695645, 0.3250409137825896, 0.3219168526794061, 0.3189126144510347, 0.31597155985562214, 0.3131465135636237, 0.31032660285458585, 0.30749559044034985, 0.3048203378035618, 0.30220791213973547, 0.29964577410765497, 0.2971622156397255, 0.29473779202491773, 0.292382204622861, 0.29009064206694324, 0.28787431641297795, 0.2857102732068831, 0.2836202956590178, 0.28158584515984153, 0.2796171997386122, 0.27767712807128714, 0.27584427698298997, 0.2740767561423552, 0.2723699649235509, 0.2707504397772068, 0.26916705209460245, 0.2676479979313793, 0.2662299318046988, 0.2648335665684937, 0.2634870053977683, 0.26222191342794704, 0.2610194514683715, 0.2598484328218537, 0.2587731209821735, 0.2577632792595542, 0.2568045569445246, 0.25590421117934176, 0.25507039315154983, 0.2542839488154933, 0.2534978568257727, 0.25283196153231446, 0.2522184552223908, 0.2517180883146004, 0.25120061805037963, 0.2507247129716499, 0.2503171840862019, 0.24996154440456522, 0.24964380148371648, 0.24939086007198472, 0.24917540675035246, 0.24901978659665444, 0.24891023500439713, 0.24888084009453, 0.24885655966480982, 0.2488603386348359, 0.24892809478721173, 0.24903801993275318, 0.24919126530533875, 0.24938215072334963, 0.24959475291586364, 0.2498650881317865, 0.25017143022765154, 0.25050627412182164, 0.25088254422346756, 0.2512936719404977, 0.25173403790298177, 0.25220521262619416, 0.2527017837783913, 0.25323195597938764, 0.25381129157483107, 0.2543923447368368, 0.25499981710959735, 0.25561934189838253, 0.256277469902826, 0.25690293519942997, 0.2576105195852884, 0.258334580909707, 0.2591463554971453, 0.259892009346387, 0.26062309061354433, 0.2614076898135084, 0.26220567729815913, 0.2630180807677825, 0.26383910254425896, 0.2646548898207047, 0.2654967187721742, 0.26634534862853976, 0.26720407725761375, 0.2680625519840663, 0.2689139377356277, 0.26978028991883146, 0.2706475783250579, 0.27151257395861145, 0.2723788560720081, 0.2732754932722539, 0.27413186783052895, 0.27498560631274077, 0.27581357398590856, 0.27666085250093897, 0.2775221963023449, 0.27835016970300647, 0.2791695096690898, 0.27999208014592336, 0.280788864363664, 0.2814869377942061, 0.2822705642578994, 0.2830353815403597, 0.28386162290503003, 0.284577186191928, 0.28523986553005504, 0.2859272578315083, 0.28659432540709445, 0.28724239943038743, 0.2878659991768234, 0.28842325023470583, 0.2890060609120219, 0.28956201923988373, 0.2901451817387799, 0.29063911364212514, 0.2910706971147891, 0.2915177950349293, 0.29193562693438685, 0.2923497637839144, 0.29270395476602684, 0.29303509434633684, 0.2933284674730469, 0.2935910423555577, 0.2938285729125971, 0.2940263962728438, 0.2941522804737147, 0.29428897309745256, 0.2943893638226976, 0.2944422165057552, 0.2944703869517128, 0.29446937329095313, 0.2944203867667752, 0.29433350057300917, 0.2942367518472904, 0.2940695470944126, 0.29383022606293624, 0.29359248176751057, 0.29331458339842614, 0.2929723964522972, 0.29261679454968414, 0.292210551110024, 0.2917722844642416, 0.2912917324741886, 0.2908060850018823, 0.29023660233994075, 0.28964466424336477, 0.2889929533155362, 0.2883019186842698, 0.287532013005909, 0.2867664715317329, 0.2859564962324987, 0.28510689139489903, 0.28421524867554143, 0.2833122952034413, 0.2823333048038175, 0.28126879257992293, 0.2802161188883216, 0.2791211353465554, 0.27799952759430496, 0.27681924368215677, 0.27559656215286943, 0.27433640145994287, 0.2730364786056519, 0.2717341987476827, 0.27035106701045053, 0.2689596387808341, 0.2674997029342146, 0.2660049184106106, 0.26444034423385887, 0.2628802111546947, 0.2612964392274768, 0.2596616479984905, 0.2579917823636862, 0.2562305281360935, 0.2544988883954545, 0.2527695238994955, 0.25095990573829496, 0.2491173781577222, 0.2472316193653362, 0.24532641979317787, 0.24343312404207634, 0.2414597081054452, 0.23945848789757201, 0.23736660817814223, 0.23531900122333557, 0.23320210684391388, 0.23110044198564253, 0.22896860024380636, 0.22684933055233927, 0.22465577315737742, 0.22242068635240894, 0.22018199596793336, 0.21791989595131656, 0.21568333527078648, 0.21337124130457896, 0.2110325717187559, 0.20868642289190975, 0.2063230639881511, 0.20389738747325312, 0.2015074988149055, 0.19911306192859662, 0.19668737888412952, 0.19424702497688937, 0.1918365905621461, 0.1893642879632261, 0.1868041423687936, 0.18432370685317773, 0.18183077302421785, 0.1793353676605202, 0.1768201960355852, 0.17431423436267687, 0.17178148560753337, 0.16924365947590297, 0.166703849944543, 0.164158328247394, 0.16159531189886106, 0.1590481475830753, 0.15649966401116064, 0.15398357828154471, 0.15143131313551106, 0.14889343012084527, 0.14634743509009443, 0.14379167001357804, 0.14125924036024248, 0.13873276067607604, 0.13617378751389164, 0.1336666145429179, 0.13117872405522102, 0.12868342753007975, 0.12619729754760473, 0.12372347197839526, 0.12125824962465413, 0.11878113617645328, 0.11634402534442853, 0.113919411672276, 0.1115563168385675, 0.10915371646693345, 0.10674532594819665, 0.10438270513716015, 0.10203804672682558, 0.0997186619078631, 0.09741139313670362, 0.0951181767751629, 0.09285360153760176, 0.09061059923334519, 0.0883637126517563, 0.0861692914753531, 0.0840472315820889, 0.08189174730516768, 0.07976299461645193, 0.07765918817862266, 0.07558537464886834, 0.07348269071493725, 0.07147215841749656, 0.06948716995118913, 0.06758751463617749, 0.06564882486368911, 0.06375461445806407, 0.06187732822443469, 0.060032722762558235, 0.058142471041970845, 0.05637373126055071, 0.05468840071082818, 0.052971403579363745, 0.05128801094962982, 0.0496276099843303, 0.04801367455452232, 0.04645975927128015, 0.0449105715483607, 0.04339739851670363, 0.04186800612686187, 0.040433810345475496, 0.03908537314996618, 0.03771193203700684, 0.03637587115792866, 0.03500087453260256, 0.033749278869642664, 0.03259190667609942, 0.031399543819221824, 0.030244964911117594, 0.02911508272585497, 0.02803771535849273, 0.02700609785323666, 0.026001762928151283, 0.02503508802198297, 0.02409731906248872, 0.023206963577983703, 0.0223122120942557, 0.02150117949774961, 0.020724841687481163, 0.01999221127457844, 0.019284963814894723, 0.018617944741862874, 0.017981921738856193, 0.01738205395298074, 0.01683353467515615, 0.016303795486370395, 0.015863096342366694, 0.015399848764856805, 0.014975652513693262, 0.014539616733704838, 0.01419771693349475, 0.013900886059162587, 0.013625717252258265, 0.013384863686527712, 0.013212868100048715, 0.013035166953658976, 0.012925366523170797, 0.012813239788267382, 0.012736833932335094, 0.012706172975381375, 0.012697239118841073, 0.012682885906630904, 0.012745755972252776, 0.012838637111275173, 0.013030884409200616, 0.013173656063009116, 0.0133490373984692, 0.013556016566029422, 0.01379364453752608, 0.014080656161748435, 0.014374468844954951, 0.014697492912447443, 0.01504880701742202, 0.01542754211101376, 0.015889579041151822, 0.016313558044591548, 0.016770149334169458, 0.01724890540621586, 0.017753895094729313, 0.01831023887349601, 0.01886130499035021, 0.01945893242344242, 0.020055670574869903, 0.020676309384082617, 0.021367718722714604, 0.022026841283916503, 0.022777065436795876, 0.023473344000170888, 0.02419444945820978, 0.02492784767691043, 0.025695246511698536, 0.026550012760887778, 0.027347242103530026, 0.02816584184729887, 0.029019576174470495, 0.02987462225796247, 0.030791419364397048, 0.031675973945009164, 0.03257874137542985, 0.033487443645167744, 0.03442403005870822, 0.035396295868759343, 0.03635694089074557, 0.03733091502123849, 0.03836525622640424, 0.039357082233087315, 0.04042560052866419, 0.0414352251164574, 0.04245976073256171, 0.04350434984983774, 0.04455382799808697