0.025532934743390766, 0.025316977489821178, 0.025109890113915852, 0.024915382897407194, 0.02473162498372887, 0.024557023254373575, 0.02436828241517378, 0.024210821549988572, 0.024057710995342298, 0.023908270605024935, 0.023761937468302925, 0.02362799375059909, 0.023485360285477788, 0.02334527184583287, 0.023170910011312496, 0.023039731087439775, 0.022898643752425514, 0.02276855589108199, 0.022638154833689562, 0.02256130796696309, 0.02242438266559273, 0.022249619690688952, 0.022124897202286328, 0.022001152893920205, 0.021898134709124276, 0.021774676398458225, 0.021646763182117165, 0.021530018218961455, 0.021415901699790716, 0.02134841423337939, 0.02123451393968552, 0.021087239480428163, 0.02098925523766266, 0.020894338234982043, 0.020802691129263196, 0.02071450979111506, 0.020608066450870925, 0.020530147541361916, 0.020455010204878082, 0.02042683214853577, 0.020352720286579747, 0.020265318637478342, 0.020205967305815076, 0.020151564183910408, 0.020082739995821938, 0.02004103138862773, 0.019979156968841144, 0.019949162737309546, 0.019922493049167458, 0.019906871769188005, 0.019887140592460564, 0.019843055308945076, 0.019837001315672977, 0.019834644308192095, 0.019853467449991304, 0.019857612024399656, 0.019906546040502914, 0.019917588865349223, 0.01993697180900292, 0.01994991141243367, 0.019987331478415395, 0.02000748012851568, 0.020062158624185783, 0.020122594037341388, 0.02016953107383269, 0.020244603485783535, 0.020359056887816696, 0.020440728455449142, 0.020530235707027132, 0.020630012169770187, 0.020734886529967696, 0.020806355431357344, 0.020932452780491943, 0.02106423550038003, 0.021253197068985836, 0.02139091533932985, 0.02154789834748765, 0.02170328830015049, 0.02186848736394545, 0.022006797950322426, 0.02219575730149815, 0.02237501552759988, 0.02258103373047033, 0.022793854476424957, 0.023004063628642674, 0.023232673639691188, 0.02353419033760225, 0.02376913112032559, 0.02401555071526842, 0.024222056306502232, 0.024497179316391636, 0.024794880997390054, 0.025084361379225525, 0.025383147975946627, 0.025669436676846482, 0.025989941792228424, 0.026367556478914176, 0.02669899601043218, 0.02704211211605867, 0.02731395134308385, 0.027690446315855776, 0.02808575759016758, 0.02847457786763977, 0.028871827229164343, 0.029285177610756843, 0.029699420871292438, 0.030157579666144314, 0.030587357590509713, 0.0310292485881599, 0.03140520978684393, 0.031880844834903894, 0.03237852530079731, 0.0328677327448492, 0.03336623009393099, 0.03392302762138538, 0.03443482620840873, 0.034937534552331895, 0.03547756337627848, 0.036028820254068734, 0.03661567599951282, 0.03718636065972052, 0.03778185509910365, 0.03837607464812988, 0.038983244640532544, 0.039576324492646454, 0.040212049800475415, 0.04081714455600189, 0.0414796764519295, 0.04217750657945734, 0.0428540296314646, 0.043541230819628324, 0.04424402954680985, 0.04495210533250476, 0.04567367699930676, 0.046403540196412754, 0.04714454323063671, 0.047899065164649174, 0.04866186915348984, 0.04938707001679201, 0.050178149848009355, 0.05097742959573815, 0.05180956787266078, 0.052623038990947744, 0.053434676482035016, 0.05427034684709363, 0.055115613356719606, 0.0560192278200912, 0.0568776497593953, 0.05768516352982679, 0.05857599796385039, 0.059474904103260784, 0.06039665453228508, 0.06131030283383725, 0.06223078084590031, 0.063163206298962, 0.06410462473530838, 0.06507444964588993, 0.06603117261310909, 0.06699286620792788, 0.06796962355163419, 0.06895543039115347, 0.06993546768503842, 0.07094059908783554, 0.07194116556266754, 0.07296297242125009, 0.07399152089626429, 0.07507793510527892, 0.07611343258203915, 0.07714138161983049, 0.07819753921772848, 0.07926128921783415, 0.08028850696351682, 0.08137211961151498, 0.08247949937218553, 0.08356930562804442, 0.08466462429381372, 0.08577018262443428, 0.08687546900752358, 0.08800312324329596, 0.08911668210360466, 0.09023608415345373, 0.09136583886371644, 0.09249524182813766, 0.09356883644632664, 0.09471571412822323, 0.09586352891568624, 0.09705869851639362, 0.09820293448805391, 0.09929743108309592, 0.10045574992933529, 0.10161418414936972, 0.10280691202814665, 0.10396147634734378, 0.1051279306250095, 0.10628524553236159, 0.10744462324887707, 0.10857644581001141, 0.10974246604803971, 0.11090044307383311, 0.11206577572176149, 0.11322966618095241, 0.11441147575693879, 0.11556963234822487, 0.11674648655926834, 0.11790026593531155, 0.11905366319695254, 0.12020130704844519, 0.12135307359669839, 0.12245403759713341, 0.12360735847558275, 0.12475504510996284, 0.12590927797507082, 0.12704412980535335, 0.12821532530487545, 0.12933463086320335, 0.13045078224067536, 0.1315266834136281, 0.13263946793446116, 0.13377221104841214, 0.13486775265570833, 0.13595755542500318, 0.13708500898323994, 0.13815647504639691, 0.13920876215803707, 0.1402721840478285, 0.1413287612403532, 0.1423438673169561, 0.14338949472925844, 0.14441023959753962, 0.145436993927097, 0.14645228948364936, 0.14744143181358943, 0.14843538257958588, 0.14943377922754095, 0.15040034075614003, 0.15135515973235092, 0.15230287446956012, 0.1532328870866618, 0.15413366133158826, 0.15504114951181516, 0.15593489648217781, 0.15682935278922736, 0.15769327089583118, 0.15853643069080514, 0.15937404319535428, 0.16019714835328783, 0.16098844095047313, 0.16178390608775772, 0.1625923418622415, 0.16335147788254603, 0.1640957217871695, 0.16480275654022664, 0.1655188015521705, 0.16625409621490367, 0.16693078559362623, 0.16759187648186105, 0.16821009135464335, 0.1688419312575005, 0.1694796389054606, 0.17007124101036133, 0.17064534206211898, 0.1711455420777507, 0.17169057390524944, 0.17221629212255593, 0.1727176420967285, 0.17319758964359108, 0.1736732141630885, 0.17410827365613996, 0.17454969569364093, 0.17494034378047546, 0.1753117190217067, 0.17567073569010225, 0.17600149546215846, 0.17632934648468407, 0.17661766906862142, 0.17688627995965814, 0.17710794155689794, 0.17733920741666315, 0.17754559703654405, 0.17773217226484875, 0.1778959435283239, 0.17801003995268452, 0.1781313426866013, 0.178247580070927, 0.17831746954499755, 0.17836417052211248, 0.17840954503637133, 0.1784069365059985, 0.1783505562305265, 0.1783075000705987, 0.17824013510690226, 0.17815097875114788, 0.17803492563435994, 0.17785595758298817, 0.17769696613771202, 0.17751191156556853, 0.1773376695180417, 0.17709687406011337, 0.17684273565739153, 0.17655449045515564, 0.1762436165916663, 0.17590513443909558, 0.17554931098218585, 0.1751751862797253, 0.17477239002088138, 0.17434668021653815, 0.17385906508357998, 0.17339238470084012, 0.17290787176242678, 0.17239032266431875, 0.17184868323924005, 0.17130996698555906, 0.17071742808771223, 0.1700761627962471, 0.1694431154359263, 0.16878661281395219, 0.16816290353530947, 0.16745311865749704, 0.1667237179496204, 0.16597447213787397, 0.16520520470051134, 0.16439387092743632, 0.16358699190068487, 0.1627245146260731, 0.1618791060487437, 0.16101063307657437, 0.16016826877718005, 0.15924889408644666, 0.1582788730843877, 0.15732554077006525, 0.15637829807395626, 0.1553805197383718, 0.15436421560396713, 0.15334167647070385, 0.15228715094462647, 0.15113483964048421, 0.15005571210754304, 0.14895485429419, 0.14788906815827108, 0.14673999218980738, 0.14557211633570522, 0.14439081646709473, 0.14319342796823098, 0.1419850723437982, 0.14075565709287072, 0.13946981964681737, 0.1382158389983706, 0.1369450229399936, 0.13564824126163386, 0.13434678942153874, 0.1330637982816803, 0.13172738521124738, 0.13037845068539647, 0.12903432490982988, 0.12765905488208293, 0.12627066918363894, 0.12487452458855058, 0.12346794634955927, 0.12202926665478045, 0.12060535872336026, 0.11917546200989423, 0.11772969960289432, 0.11627430398983006, 0.11479022157548033, 0.11331930611986286, 0.111868169199877, 0.11037525540657489, 0.10887568646385132, 0.10738195087911256, 0.10586848359404272, 0.10436706869770448, 0.1028417109750662, 0.10131284420573805, 0.09973435880810907, 0.0982048365170829, 0.09666978826764092, 0.0951298407563514, 0.0935856000324419, 0.09203278281063486, 0.0904823153358813, 0.08900448284552778, 0.08743933742839523, 0.08587671240034381, 0.08434820331369153, 0.0827864914560357, 0.08121932667467302, 0.07966727080961816, 0.07811872944288652, 0.07655916241345985, 0.0750197615514758, 0.07352481433084668, 0.07198661579073827, 0.07045446885056204, 0.06894545266196257, 0.06742340928272963, 0.06587698025891424, 0.06437353168635887, 0.06287573154727924, 0.06145704462996575, 0.05996254412723822, 0.058481489574797874, 0.057008555267102475, 0.05554655255098665, 0.05410520442436697, 0.05266384461345767, 0.051307151821119015, 0.049879853815781645, 0.048468473305828846, 0.04709451724298598, 0.04571108561605744, 0.04431955044937696, 0.042971414551502184, 0.0416377017395301, 0.040330694655662615, 0.03902466321266864, 0.03774882587950282, 0.03647226426774877, 0.03521245488283908, 0.03401335182136558, 0.032781915587236275, 0.03163594361852388, 0.03043551808949515, 0.029258362650691316, 0.02812103087435318, 0.02698690477636959, 0.025868575800653704, 0.024781276515576822, 0.023716166790040363, 0.022729203136902458, 0.021701303362260095, 0.020686605849238628, 0.01971068508561644, 0.018758926908142, 0.017860525310971122, 0.0169533786467545, 0.016135453782637636, 0.015272024772632837, 0.014437945805473062, 0.013654667253941679, 0.012875235045877979, 0.012115579656465097, 0.011396081952473821, 0.01070499161059579, 0.010039808916393899, 0.009405715091441412, 0.00884859539803033, 0.008265015103863791, 0.007712740300864906, 0.0071794082323100375, 0.006690799865838185, 0.00626412996811109, 0.00583219245454026, 0.005432573067308267, 0.005082243959119914, 0.004744940520739761, 0.004501733850605088, 0.004223105823176891, 0.003981042614863776, 0.0037848341166414556, 0.0036134166172673778, 0.0034317782426718135, 0.003338043088456506, 0.0032773098406610316, 0.0032985356572206243, 0.0032984208501594375, 0.003312918687018444, 0.0033885229570840922, 0.0034992568526098842, 0.0036647636649889655, 0.0038437953615865655, 0.004156988794934279, 0.004397257601151391, 0.004679863687218637, 0.004974896220470192, 0.005343921892550493, 0.00574947877727824, 0.0061966015292379785, 0.006682318070396967, 0.007216340811857028, 0.007777964046973385, 0.00842501328451519, 0.009059086609932127, 0.009734915995528585, 0.010491135799493779, 0.011244633448722185, 0.012021803643476643, 0.012863612271092442, 0.013746645639325566, 0.01461718508512288, 0.0155890541479531, 0.01663536699524064, 0.017678854788420736, 0.01876309440295538, 0.019907630133906954, 0.021071111457336606, 0.022276662196549127, 0.023524219105377178, 0.024813743687314555, 0.026169570281532793, 0.027539916086435762, 0.02896820428060871, 0.030423195760637015, 0.03192203328715716, 0.033457187198897634, 0.0350440077983472, 0.03664204817080335, 0.038318564065128125, 0.04003607482617785, 0.04182402828387066, 0.04362049129751038, 0.04545046761299736, 0.04733460475911467, 0.04926132973329108, 0.05124528739764269, 0.05325543956381026, 0.05534318593105194, 0.057435938120321176, 0.059573930708592786, 0.06174707551911459, 0.06397577912096472, 0.06624825196552772, 0.06856433340067611, 0.07092388060868973, 0.07332189549031966, 0.07576861949853653, 0.07826062359127174, 0.08079267228495972, 0.08336758983202004, 0.08601208884930593, 0.08866913589404132, 0.09133380896739124, 0.09408349532333028, 0.09687473732237141, 0.09974898772946884, 0.10261825318805069, 0.10551446417999609, 0.10847354119384818, 0.11149207111749769, 0.11453366483994441, 0.1176183424241134, 0.12074339526190705, 0.1239137460090989, 0.12709461698093547, 0.13035311763076615, 0.13365161108320534, 0.13701451003512605, 0.1403900658461872, 0.14377542773183868, 0.14723770320254634, 0.15073924752933895, 0.15427036762672597, 0.1578517928952672, 0.16146712105260913, 0.1651267469487813, 0.16882491444814082, 0.17259085620887024, 0.17636240887390148, 0.1801789443251999, 0.18402978665894537, 0.1879203786673898, 0.19182844971997742, 0.19580025652906513, 0.19984119608890105, 0.20388378847270824, 0.20796528968838993, 0.21207550653251234, 0.2162347152357293, 0.2204334086564298, 0.22466607523292859, 0.22893526176454182, 0.2332406154333983, 0.23758178498948354, 0.24189754011325265, 0.24631698697369211, 0.25076777991914234, 0.25531093468896915, 0.25981706761993534, 0.26434114229976724, 0.26891888111836215, 0.27352961324254976, 0.27817540962013787, 0.2828507204430802, 0.2875677876173944, 0.2923054929641434, 0.2970749461435162, 0.30182451601780586, 0.3066624592368456, 0.3115594750887396, 0.3164481765779729, 0.3213658821649267, 0.3262732110935286, 0.33125258843610145, 0.3362648069888343, 0.3412941994111588, 0.3463492249305642, 0.35142229573637956, 0.35652863193054896, 0.3616836016686123, 0.36683510920842277, 0.3720116069648433, 0.37715408003215684, 0.38238623392543714, 0.3876481191769331, 0.39291891326504513, 0.39820996435457245, 0.4035574953417947, 0.40888348622731524, 0.41417961134957515, 0.4195539040938786, 0.42494518475950654, 0.430362905166243, 0.43578601645308884, 0.4411842610857026, 0.446645174416069, 0.4521192797032328, 0.4576380230650753, 0.46313381323988134, 0.4686364514981545, 0.47416083736107545, 0.47969768190185286, 0.4852268997311558, 0.4907892942400282, 0.4963538818417829, 0.5019356984757694, 0.5075255725369275, 0.5131424817506155, 0.5187444616428729, 0.524366156953149, 0.5299809226054326, 0.5356023981174722, 0.5412224158977929, 0.5468556565737619, 0.5524707170466849, 0.5581134197696918, 0.5637570632872384, 0.5693961681663271, 0.5750404585390836, 0.580683521250716, 0.5863247225474187, 0.591963406358115, 0.5975063589994346, 0.6031496598251399, 0.608812388084054, 0.6144324203061756, 0.6200442229963553, 0.6256059762820685, 0.6312052315091015, 0.6367827606977816, 0.6423590315769535, 0.6479221965525702, 0.6535230696979353, 0.6590525058176205, 0.6645705101268474, 0.670076141107867, 0.675568454184893, 0.6809856230726151, 0.6864561571100586, 0.6918973737564134, 0.6973295279436973, 0.7027405827753781, 0.7080837767243311, 0.7134569468760118, 0.7188680917219755, 0.7241823018389232, 0.72947409092447, 0.7346962450832224, 0.739946201425329, 0.7451804670927703, 0.750372567281796, 0.7555362706604697, 0.7606537618284323, 0.765760495784612, 0.7707746209999797, 0.7758249003465452, 0.7808386139868184, 0.7858495902700513, 0.7907849844931278, 0.7957017357148052, 0.8005628317691558, 0.8053876422800879, 0.8101265171413667, 0.8148820753564993, 0.8196055172278515, 0.8242755782639253, 0.8289031812201321, 0.8334535196865563, 0.837998351477199, 0.8424673790458737, 0.8469222397892651, 0.8513278265096337, 0.8556569947159003, 0.8599662822917549, 0.8642113548964208, 0.8684177874179488, 0.8725707937313293, 0.8767138556353019, 0.8807533462470112, 0.8847235791397217, 0.8886599241213157, 0.8925413453417012, 0.8963524937681192, 0.9001236886765662, 0.9038101047968544, 0.907468054613762, 0.9110651939427089, 0.9145499176045553, 0.9180304652100922, 0.921460436418803, 0.9248086087580379, 0.928092034464088, 0.9313078703817091, 0.9344608456204768, 0.9375329851916608, 0.9405548650169876, 0.9435086863580988, 0.9463842841629676, 0.9492019156327728, 0.9519349685298699, 0.9546140875120127, 0.9572215425957502, 0.9597569783522062, 0.9622200079365704, 0.9646102186508445, 0.9669271770000141, 0.9691704332811287, 0.9712956922342391, 0.9733956925156555, 0.9754376045423618, 0.9773798767889476, 0.9792453789333863, 0.9809899161913698, 0.9827063252112596, 0.9843667425972183, 0.985919354171976, 0.9873928813815207, 0.9887699682847664, 0.9900865460188089, 0.9913221356645261, 0.9924765528244124, 0.9935520332710871, 0.9945431884248994, 0.9954526806002226, 0.9962827042253196, 0.9970278420046921, 0.9976858685527636, 0.9982668925959995, 0.9987649177412069, 0.9991846291512003, 0.999515494117206, 0.9997533659902567, 0.9999187655815779, 1.0, 0.9999994279986022, 0.9999118049066316, 0.9997082980677303, 0.9994561632481341, 0.9991179179785429, 0.9986937880021205, 0.9981839851052751, 0.9975960163612331, 0.9969145415134076, 0.9961483905297625, 0.9952587311702223, 0.9943285551753018, 0.9933411580652574, 0.9922348744537434, 0.9910447092283762, 0.9897732893231677, 0.9884156406229254, 0.9869675551223612, 0.9854447806170232, 0.9838389089113672, 0.9821624244812398, 0.9803897564698479, 0.9784918038605203, 0.9765620254187692, 0.9745488622748011, 0.9724870627066221, 0.9703047689796813, 0.9680502278508769, 0.9657082451042073, 0.9632878278770686, 0.9607649602421746, 0.9581917945843381, 0.955571592953092, 0.9528376671138112, 0.9500280895202452, 0.9471164618970433, 0.9441601744977643, 0.9410841840792517, 0.9379824187176174, 0.9348037696302649, 0.9315712413403171, 0.928239283027712, 0.9248129203297174, 0.9213395815512142, 0.9177941741175462, 0.9141923136594018, 0.9105039177993364, 0.9067569794403672, 0.902931631171211, 0.8990402447032949, 0.8950957785890571, 0.8910731430359647, 0.8869656406432437, 0.8828206173801222, 0.8786129276919132, 0.8743338085934964, 0.8700049571521747, 0.8655939285879864, 0.8611484043238427, 0.8566435420507484, 0.8520611118860547, 0.8474437710804196, 0.8427672600658773, 0.838038112951635, 0.8332547746424018, 0.8284453496477292, 0.8235541690782908, 0.8186312273574405, 0.8136413141508193, 0.8086056373425371, 0.8034983345779926, 0.7983773208397977, 0.7932508633836453, 0.7880373327110958, 0.7827840258285262, 0.7774626273338948, 0.772136222366394, 0.7667980227789443, 0.7613923175479592, 0.7559520356696794, 0.7504002893942663, 0.7449038507175408, 0.7394276703290834, 0.7338543918962653, 0.7282519383520423, 0.7226190630402365, 0.7169621439088285, 0.711289252020918, 0.7055809135580752, 0.6998498933454537, 0.6941071057059277, 0.6883330263921758, 0.6825135900220967, 0.6767068944289607, 0.670882419819005, 0.6650610390788743, 0.659202707170005, 0.6533172226661774, 0.6474368613661559, 0.6415455618181541, 0.6356057048850328, 0.6297014802166785, 0.6237540495215914, 0.6178375454563836, 0.6119132424144077, 0.6060755006803197, 0.6001292964947427, 0.5941419121791486, 0.588207438105088, 0.5822749577643929, 0.5763141186191403, 0.570393529108464, 0.5644916409230686, 0.5585789033379667, 0.5526740698781104, 0.5467955039996691, 0.5409082522342495, 0.5350288757826887, 0.5291688475890658, 0.5233235227668069, 0.517484311877581, 0.5116730713608171, 0.5059062044707339, 0.5001279553371027, 0.49437118825712756, 0.4886173758760381, 0.4829089083191651, 0.4772480709985831, 0.4715842150007334, 0.46594725622729494, 0.4602942684507602, 0.4547193767115187, 0.44918384388827454, 0.4436630577418569, 0.43817265478515344, 0.43266259676244434, 0.42724270325762775, 0.42189251396276517, 0.416530615473929, 0.4112044490669414, 0.40591499844632417, 0.40066322290300266, 0.3954208358067387, 0.3902508891450899, 0.38511971608901363, 0.38009173490932036, 0.3750333634356205, 0.3700083054765819, 0.36504290572060155, 0.36012324062070444, 0.3552231143717466, 0.3504000818606096, 0.34562793049053736, 0.3408971119515435, 0.33621416414802774, 0.33156275108582856, 0.32697980781959546, 0.3224750625690979, 0.3179871546975639, 0.31355138072022143, 0.3091268095573953, 0.30480193240161, 0.30054772740432223, 0.29632354437253067, 0.29215314581996843, 0.2880321806902153, 0.28397149846273045, 0.2799097972884515, 0.2759666582394462, 0.2720762976627985, 0.26829803201995317, 0.26450837067024635, 0.26075765664305434, 0.25708748494428624, 0.2534749779465427, 0.2499301841904468, 0.24643266891851742, 0.24296984928467602, 0.23959365245959363, 0.23627540853947315, 0.23302760000700184, 0.2298246007942279, 0.22668834165043328, 0.2236033794683728, 0.22057842249295417, 0.21761102361615553, 0.21470633481450008, 0.21182003708783728, 0.2090401246481157, 0.2063175873386222, 0.2036867784767488, 0.20107540387422665, 0.19852392694716084, 0.19603216941624843, 0.19358776337327468, 0.19121639439047278, 0.18890344385400723, 0.18664390523707217, 0.18444797249158443, 0.18231456849677735, 0.18023316346462395, 0.17820931535256895, 0.17624275646933016, 0.17433319821617155, 0.17251442447916002, 0.17071361113991507, 0.1689707277422445, 0.16725347749430952, 0.16562855486252875, 0.16403599643001332, 0.16252206182922624, 0.16106046496599838, 0.1596461207544896, 0.15828912744503432, 0.1569347226404854, 0.15568617374176646, 0.15448554682909194, 0.1534253940347847, 0.1523088722516004, 0.15119899878654505, 0.15019320270294867, 0.1492358391053806, 0.14830932923653686, 0.14744936454080237, 0.146625466981214, 0.14585788666673835, 0.14513460492578492, 0.1444697778602383, 0.14383184013725286, 0.14326919502441218, 0.14271384098487624, 0.14220251476567583, 0.1416977191409676, 0.14127617675379117, 0.14088157961923173, 0.14053919097106424, 0.14023395972274288, 0.13998479085402246, 0.13974964930412026, 0.13953145339428738, 0.1393708078845463, 0.13924384850608407, 0.13914259568211884, 0.13908188682643957, 0.1390888920224231, 0.1390852584436599, 0.1391134796221261, 0.13914818564619255, 0.13924015837414608, 0.13932552226850559, 0.13947599782221634, 0.139650481731708, 0.13992150705267453, 0.14013316027091802, 0.1403273974038418, 0.14059620306815337, 0.14088655991175844, 0.14118063112819254, 0.14151386607712774, 0.14189939369296772, 0.14226404402269893, 0.14264743806804686, 0.14301692988627482, 0.1434388661207495, 0.14389433695715084, 0.14434123163877588, 0.14480188680694883, 0.1452608187616137, 0.14574823156301708, 0.14629225679098556, 0.14679377342973332, 0.1473067560395099, 0.1478179105083977, 0.14835205214253008, 0.1488572170685567, 0.14941017589917938, 0.14996684970655855, 0.1504804004486988, 0.15104862782956233, 0.1516527411200017, 0.15221482153614666, 0.1527777635908724, 0.15334092121558554, 0.15390364013584684, 0.1544457783179172, 0.15500809702538615, 0.1555668904776674, 0.1561800909637873, 0.15672288860810535, 0.15725654515198093, 0.15779556628268146, 0.15833033205367833, 0.15884291946021467, 0.1593687348230368, 0.1599038576441369, 0.1604113997461382, 0.16091089183782525, 0.16141619329329784, 0.16189551267120159, 0.16228994417381612, 0.16275923025845548, 0.1632133542032388, 0.16367900274463607, 0.16409907401198945, 0.1645464675071124, 0.16493273081738602, 0.16530639891390964, 0.16561558139772753, 0.1659683153694525, 0.16630102580805245, 0.16661867615305975, 0.1669181574815439, 0.16722360055531874, 0.16748299008195355, 0.16771514155792297, 0.16794032464811595, 0.16814659691160053, 0.16828492896745945, 0.16845857012088586, 0.1686339707921404, 0.1687594437103004, 0.1688638442878838, 0.16897135412998412, 0.1690300168364053, 0.1690514086796606, 0.16907140738337437, 0.16906951080280616, 0.16904066717047975, 0.1689950592582561, 0.1689559845608079, 0.16886118696944594, 0.16874511201006276, 0.16861472520755513, 0.16845418820368377, 0.16824264897940092, 0.16804195175917785, 0.16781728250296696, 0.16759300684527037, 0.16731736034110334, 0.16701185877262287, 0.1666918712712689, 0.166348624059585, 0.16593093168324038, 0.16554751176716256, 0.1651451881546352, 0.16470884870043445, 0.16424752212983856, 0.1638443068435014, 0.163323425975814, 0.1626856536831975, 0.16213771362801926, 0.16156408092046456, 0.16100423372875042, 0.16037579912494407, 0.15970338483994084, 0.15903370343693887, 0.15834096059598668, 0.1576741748503749, 0.156930088362679, 0.15614224683335723, 0.15536234041884922, 0.154561525258791, 0.1537424288171629, 0.15290008044899644, 0.15202053592022205, 0.15114026000432676, 0.15023932711887666, 0.1493035108666454, 0.14836426287076, 0.14742903660954382, 0.14644654588376452, 0.1454460700630433, 0.14443275296227967, 0.14339652500481992, 0.14232396402650166, 0.14125676913757682, 0.14017219158396613, 0.13907556294216214, 0.1379569827464383, 0.13688597750031264, 0.13572832187984596, 0.13455930215790882, 0.13328385249407704, 0.1321038981889756, 0.13092907769703233, 0.12971363616995607, 0.12848429528054217, 0.12726599336835237, 0.12600751882065886, 0.12472361557253465, 0.12344570289390437, 0.12215686526511231, 0.12083811381158076, 0.11953136386934755, 0.11823841527015462, 0.11690812503099242, 0.11554068629224522, 0.11419864066777129, 0.11284783968887484, 0.11152059003371871, 0.11015019938694115, 0.10876983789483985, 0.10739019187739089, 0.10600584555393677, 0.10461475920671108, 0.1032225130346737, 0.10179497737839269, 0.10039990183230985, 0.09900028323186749, 0.09764307959762016, 0.09623056250884413, 0.09482538397173637, 0.09341224310540538, 0.0920000362995652, 0.09057680672373697, 0.0891686905805198, 0.0877006768775964, 0.08630260785834588, 0.08490288011669776, 0.08351455343053178, 0.0821125625244773, 0.08072182031004693, 0.07932224102437119, 0.07792593920670361, 0.07658210680034318, 0.0751876495812395, 0.07377626658595514, 0.0723997905913958, 0.07102950924368316, 0.06966086445421657, 0.0683045285935578, 0.06697210693013854, 0.06562771093330072, 0.0642918544931962, 0.06293552979167101, 0.0616211031449132, 0.060306949431963366, 0.059009084566176345, 0.05771932822710927, 0.05644061242729635, 0.0551682287757589, 0.0539030665846438, 0.05265070580858262, 0.05140864880542977, 0.05017240844878191, 0.048952704713997944, 0.04775142843557855, 0.04655341115111212, 0.045367637085513265, 0.04418706685677669, 0.04302748994812662, 0.04189268659152622, 0.04075705696871717, 0.039635273803982275, 0.03852506138502699, 0.037431753921681514, 0.03636236447444871, 0.03529634738080022, 0.03424538220806358, 0.03316571075226915, 0.03215061971888212, 0.03120679727967951, 0.030210396962367898, 0.029230921275043877, 0.02825607257638404, 0.02731164170068207, 0.02637584210940486, 0.02546424010872372, 0.02456822921005933, 0.023673290066591968, 0.022810576212542004, 0.022009153620404075, 0.021170820392761087, 0.02035045474925256, 0.019506428262763116, 0.018726567589518624, 0.017998263487246893, 0.017244013105074875, 0.016507159893357177, 0.015802145852785835, 0.01509774736307405, 0.014401361175280956, 0.013733452796199731, 0.013082279125835967, 0.012474501899769026, 0.011853042633229173, 0.011188587643926473, 0.010610271867303385, 0.010045809180816993, 0.009495422530215175, 0.008959296470405883, 0.008442450248964629, 0.007934643020885762, 0.007441719209912872, 0.007024575857176782, 0.006553751919371009, 0.006091476583229457, 0.005657931272531236, 0.0052411088574936, 0.00487716631688139, 0.004488083639798286, 0.0041654373152787486, 0.00380506421769478, 0.003464015624263705, 0.0031560154452287947, 0.0028491982047577046, 0.0025820452976392395, 0.0023071942497582807, 0.002049884831744456, 0.0018093341248969516, 0.0015848443899207174, 0.0013855344708980596, 0.001190136634528346, 0.001009674795876755, 0.0008704151368207445, 0.0007149315443719218, 0.000628059691934923, 0.0004952896522398563, 0.0003794528317028166, 0.0002504301720593568, 0.00016956776963190055, 0.00013082974046742498, 7.169231886790274e-05, 2.637137723820662e-05, 3.085629803417536e-05, 6.99614610986421e-06, 0.0, 4.021196247366085e-06, 2.1349142268000124e-05, 0.00012449881533502157, 0.00015764485543229138, 0.0002213703169548879, 0.0002836471678599883, 0.0003609119093888512, 0.0005058831125204731, 0.0006038901880109184, 0.000698153135567094, 0.0008290991341955191, 0.0009728194459030015, 0.0011506310467132898, 0.0013154119784829312, 0.0015437743246710805, 0.001726417589374627, 0.0019233382807471659, 0.002182420099049456, 0.0023993895617617903, 0.002604446578687388, 0.0028536411998365797, 0.0031145120337978823, 0.003415825612386566, 0.0036950606022082694, 0.00401080895832161, 0.004310793141397184, 0.004623395117180547, 0.004969990293214587, 0.005303518921772445, 0.005656825397593011, 0.006013887198717997, 0.006382937226697372, 0.006795239952795373, 0.007183155832816889, 0.00761308495539753, 0.00802243013939521, 0.008445371188313988, 0.008854580410867735, 0.009306570720386402, 0.009815567594528502, 0.0102831064397125, 0.010763863542364433, 0.011296424474917344, 0.0117976347390338, 0.012303594756912886, 0.01283452923032279, 0.01337852248153984, 0.01397186595442618, 0.014536712489605166, 0.015108836193147646, 0.015703411591449154, 0.016311519715113, 0.016894048344865523, 0.017533757258195757, 0.018269759526152805, 0.018921130681952572, 0.019588978100719072, 0.02025588621782503, 0.020957817943028256, 0.02170119250900164, 0.02242904387037892, 0.02317308775350457, 0.023908833890037912, 0.024687987482807764, 0.02554260749526719, 0.026343458060703637, 0.027162773214094774, 0.027997885289767103, 0.028853815372270775, 0.029703242060003677, 0.030597938248961353, 0.03152375904695465, 0.032449917843365476, 0.0333939926826773, 0.0344000133861119, 0.035374994414719224, 0.0363271853204761, 0.03734971118825733, 0.038390714647817556, 0.039465192984502614, 0.04054246865427901, 0.041686485862861763, 0.04279914105306275, 0.04393545121140328, 0.04508562114117426, 0.04627036955401043, 0.04749284802084854, 0.04872217283939865, 0.04997584186891143, 0.05120528271332803, 0.05251423285776935, 0.05387209216403722, 0.05522253074500412, 0.056597836600394684, 0.05802517310819483, 0.05944796443920425, 0.060861752781382165, 0.06234439588578211, 0.06385291267122137, 0.06541462711551899, 0.06697310340531853, 0.06854592183333617, 0.07016444024814707, 0.07181168482609301, 0.07345886973434822, 0.0751685684200192, 0.07698945177074147, 0.07874612193659074, 0.08053712212081544, 0.08233073141947242, 0.08419425942082118, 0.08608787559463638, 0.08801709821286292, 0.0899793950197137, 0.09198487985721547, 0.09401321491527477, 0.09607629571575241, 0.09817442072543303, 0.10030789751253044, 0.10243807787977367, 0.1046481346624692, 0.10691910328677307, 0.1091946629669584, 0.111507093869007, 0.11385431357541662, 0.11624184747188838, 0.11867689763048121, 0.12113910519645261, 0.12364033430518231, 0.12614674982592453, 0.12873110540507213, 0.1313557765286329, 0.1340161139037098, 0.13671548942813758, 0.13947138763310357, 0.14224796911935322, 0.14504142095733658, 0.14790374333402853, 0.1508063482975437, 0.15378372577272922, 0.1567637445734151, 0.15980653710810586, 0.16287070904207007, 0.16597933767533965, 0.16910795938724105, 0.1723082685798782, 0.1755684455710542, 0.1788523864548467, 0.1821803831247978, 0.1855402454293881, 0.18895785638779622, 0.1924042015109628, 0.19591044565975782, 0.19945939351397243, 0.2030073998124368, 0.20664783413684962, 0.21039230992514166, 0.2141066529641673, 0.21786612977865533, 0.22162185747209384, 0.2254772271039961, 0.22938421249192353, 0.2333223210401318, 0.23730324298507605, 0.24134650673531882, 0.2454106996511802, 0.24947987874124763, 0.2536366918215088, 0.2578348489553338, 0.262098791582779, 0.2663767773556202, 0.2706635057398815, 0.2750312285443124, 0.2794393691669206, 0.28392932407730026, 0.28841301126179364, 0.29289789090835755, 0.2974715204937624, 0.3020844719233945, 0.30674634599828615, 0.3114362466067043, 0.31616546952329555, 0.32093367551855434, 0.3257404997182542, 0.33053441369481396, 0.33542374820246745, 0.34033541654191407, 0.3452952632015227, 0.35028877017962845, 0.35533533097804854, 0.3603933577887709, 0.3654637427236179, 0.3705926422525481, 0.37575365270912364, 0.3809391236150109, 0.3861641902493371, 0.3914075874946732, 0.39669476913038176, 0.4020108486478417, 0.4073724364132483, 0.4127427939802635, 0.41814397434282374, 0.42357007590546497, 0.4290232300671469, 0.43452212721149247, 0.4400245308738831, 0.44547959516292535, 0.45104166650706506, 0.4566233535127747, 0.4622242466858524, 0.4678438647083044, 0.4734573086353616, 0.4791157540447983, 0.48478974115184764, 0.49044953079352877, 0.4961566749931161, 0.5019149283295279, 0.5076409636204601, 0.5133803002290083, 0.5190784197356636, 0.5248482714380904, 0.5306352426863277, 0.5364180285913167, 0.5422074815650998, 0.5479808723054496, 0.5537839412568167, 0.5595557674008664, 0.565368070219682, 0.5711796970078126, 0.5770460413325403, 0.5828473049052088, 0.5886099873848447, 0.5944156531447417, 0.6002169345690405, 0.6060006747454895, 0.6117917433966044, 0.617594165377563, 0.6233655223369682, 0.629127819687948, 0.6348262580175217, 0.6405735216318311, 0.6462855257746793, 0.6520028694280264, 0.6577016261208797, 0.6633444814359557, 0.6690082547177939, 0.674651269066877, 0.6802676698310034, 0.6858595759338043, 0.6914188261348434, 0.6969600351777785, 0.702458975596129, 0.7079457485462219, 0.7134020557597299, 0.7188805244044284, 0.7242662320874268, 0.7295995700044207, 0.7349256251067664, 0.7402169808828346, 0.7454528519939426, 0.7506733575738409, 0.7557835305248675, 0.7609323890441495, 0.7660352504860701, 0.7710963684546968, 0.7761046875261933, 0.781084677392777, 0.7859940377283803, 0.7908548818132857, 0.7956319918558968, 0.8003967204959859, 0.8050856768636305, 0.8097445709885956, 0.8143465488401274, 0.8188737683934475, 0.8233616300322377, 0.8277988240849894, 0.8321638444061696, 0.8365087665073191, 0.8407445982859961, 0.8449193092690271, 0.8489609399700254, 0.8530183472938769, 0.8570968332890421, 0.8610041086017819, 0.8648459872928472, 0.86855278600291, 0.8722680575269585, 0.8758732577654791, 0.8794452787377353, 0.8829401241580893, 0.8863767555310688, 0.8897131803800686, 0.8929669609226527, 0.8961476589466932, 0.8992487127694286, 0.9022474387230042, 0.9051896687042984, 0.9080681915725184, 0.9108409832571915, 0.9135304657940572, 0.9160871492411041, 0.9186138230354118, 0.9210399519161504, 0.9233910681584708, 0.9256523805116846, 0.9279014934062193, 0.929972347002553, 0.9318933966804434, 0.9337982483255988, 0.9356110607702944, 0.9373728327439445, 0.9389951275832528, 0.9405118814367955, 0.9419534235238536, 0.9433017801281748, 0.9445734639613615, 0.945731721962153, 0.9467597082867557, 0.9477345128746525, 0.9486124014249818, 0.9493931743279581, 0.9500766389345847, 0.9507015749355872, 0.9511849580147796, 0.9515727058291699, 0.9518010469299406, 0.9520042153749594, 0.9521508227243491, 0.9521478714424537, 0.9520473942441033, 0.9518419202888189, 0.9515468566639217, 0.9511412972108222, 0.9506511372034573, 0.9500620099240532, 0.9493618975956826, 0.9485768659319198, 0.947714624600303, 0.9467288772807044, 0.9456458574449254, 0.9444243159171088, 0.9431524656709677, 0.9417669546732396, 0.9402994324919822, 0.9387331909859015, 0.9370543009076857, 0.9352944965695641, 0.9334931607228544, 0.9315319537938531, 0.9294778516725034, 0.927297038534294, 0.9250623327618129, 0.9227605715653214, 0.9203354774611869, 0.9178194189030007, 0.9151812238465202, 0.9124887333830711, 0.9096709784821019, 0.9068013058275235, 0.9038402529666805, 0.9008157406416497, 0.8976719149695033, 0.8944878077616015, 0.8911658858279162, 0.8877617331279513, 0.8842125471202165, 0.8806535381529796, 0.877029948307605, 0.8733015501583054, 0.8694925699590882, 0.865625948704647, 0.8616561212132863, 0.8575784028568612, 0.853461006393588, 0.8492674287068469, 0.8450208114881218, 0.8406757788723661, 0.8362473065041406, 0.8317623498843082, 0.8272076038228992, 0.822550195391157, 0.817863855156699, 0.8131533497279598, 0.8083270091099922, 0.8034381891910457, 0.7984490794186394, 0.7934437157921062, 0.7884113278957928, 0.7832809739836079, 0.7780945124553607, 0.7728532011978402, 0.7675583243176738, 0.762211190736569, 0.7568131328379175, 0.7513655051623115, 0.7459037758779692, 0.7403568444590543, 0.7346909505611914, 0.7290677780514827, 0.7233992618461457, 0.7176921320417764, 0.7119378580331785, 0.706168346976061, 0.7003335457482601, 0.6944639624154916, 0.6885245668697451, 0.6825945400947968, 0.6766492472986984, 0.6706542570808751, 0.6646315149429752, 0.6586069966046477, 0.6525305364004107, 0.6463887095195998, 0.6402761347125341, 0.63414240523494, 0.6279600969698588, 0.6217931186920973, 0.6156646659121572, 0.609457592393757, 0.6032400356496861, 0.5969890503308962, 0.590757839332429, 0.5845385186408943, 0.5782913001208196, 0.5720408444505335, 0.565786167948513, 0.5595339060491467, 0.5532607237981946, 0.5470147098602428, 0.5407714300354646, 0.5345374129720298, 0.5283039361550259, 0.5220661941964806, 0.5158516284755196, 0.5096473740893582, 0.5034477414241492, 0.4972698535985479, 0.49116994839902584, 0.4850149866651101, 0.47888140725610867, 0.47270935752951143, 0.46662935680794715, 0.4605875502822759, 0.4545492979226233, 0.44853632687948836, 0.442559772751152, 0.4366002990929246, 0.4306464314696662, 0.42475121447153813, 0.41888710359549086, 0.4130604081518163, 0.40726217536209525, 0.4015068403404186, 0.3957801666697713, 0.3900920655523497, 0.3844266778963229, 0.3788214205971932, 0.3732597208671504, 0.3677376687606083, 0.3622593760360965, 0.3568041033545782, 0.35141960107278014, 0.346137075992343, 0.34083868934595984, 0.3355918862570472, 0.33033649932392123, 0.3252027077854301, 0.32014846902504224, 0.31511286574986463, 0.31013161734545336, 0.30520803010064096, 0.3003377727079935, 0.29553915890603405, 0.2907818981674972, 0.2860840264309915, 0.28138528177131594, 0.2768157309149789, 0.27232589663436396, 0.26787025225224415, 0.2635000717056772, 0.25916433133365435, 0.2548925449219347, 0.25063405273584805, 0.24649806232892005, 0.24243672195915647, 0.2384249809820718, 0.23447800963775325, 0.2305769348859665, 0.22676374225285947, 0.2230792212089876, 0.21938936128040654, 0.21576959912419652, 0.21220775495100638, 0.20872972490524516, 0.2052992037877248, 0.2019629069300601, 0.19869501528416872, 0.1954909200644155, 0.1923612031247123, 0.1893100358348048, 0.18631690022025496, 0.18339347242128942, 0.18052274825054007, 0.17774099203562818, 0.1750402122708899, 0.1723946200791377, 0.16981867463336597, 0.16726602950678213, 0.16483496753566673, 0.16249255936245882, 0.16019241576252238, 0.15796059814778687, 0.15581892391527383, 0.1537206488700777, 0.15168420719102932, 0.1497247430084825, 0.14783321342392794, 0.14597516732228966, 0.14422272072140346, 0.14259847102247192, 0.1409676353650495, 0.1394048854217654, 0.13784857976838225, 0.1364274291610404, 0.13508088178362987, 0.1337828111225917, 0.13254732695111138, 0.13136425128570114, 0.13025382505626348, 0.12922594069970023, 0.12823353547569288, 0.12730202961298606, 0.12643558293949028, 0.12562311569947193, 0.12482581807329075, 0.1241361112073759, 0.12350136367329782, 0.12293329948358392, 0.12240552283693497, 0.12193674997974627, 0.12151592877413983, 0.12114809389984559, 0.12086411164819123, 0.12059585282423817, 0.12033852526387982, 0.12017905641564426, 0.12006740170109677, 0.11999794718763776, 0.11998027515100636, 0.11998590663552178, 0.12006065619606834, 0.12017778685074416, 0.12038289736544312, 0.12057688426392094, 0.12078935266484504, 0.12107091685384601, 0.12139162221927338, 0.12173103612203641, 0.12212961847033121, 0.12255604549443812, 0.12302501587964154, 0.12352702341268665, 0.12404175053519696, 0.12460975509220491, 0.12527285186576084, 0.1258904609483118, 0.1265395271920973, 0.12716023139595098, 0.12787550958932617, 0.12861249920440185, 0.1293755620321513, 0.13016096841424077, 0.13103117339773213, 0.13185065351548295, 0.13264710068027258, 0.13351745842428475, 0.1344056119523313, 0.1353471024724648, 0.13626326090560065, 0.13719628209065773, 0.13814486592206987, 0.13910774513622545, 0.14009585907199734, 0.14108210839611837, 0.14206509962373692, 0.14307464856073202, 0.14409225854562563, 0.14506328776580235, 0.1461006067040664, 0.147154435480362, 0.14819311321515663, 0.1492332878496624, 0.150276611916858, 0.1513171088286222, 0.15235684704048394, 0.1533949851679813, 0.15443067604714716, 0.1554484574706157, 0.15647854586430496, 0.15753933682251806, 0.15855242102927983, 0.1595602477253692, 0.1605106279865177, 0.1615112853009234, 0.1625616326258236, 0.16353165954962767, 0.16449278201989057, 0.16540981970228538, 0.16635422478399228, 0.16730416000692777, 0.16821751022754478, 0.16911662778114694, 0.16996901748501372, 0.1708411844646306, 0.1716705519465188, 0.1725083927962848, 0.17332539102677577, 0.17409199557746502, 0.17486998887888447, 0.17571453550159463, 0.1764338745347933, 0.17713434803810746, 0.17780524436531603, 0.17846636367481516, 0.17909802298060562, 0.17971502843789858, 0.18030805091864344, 0.1808497092228668, 0.18139639836457655, 0.1819353837887131, 0.18242494238035528, 0.18288781449515515, 0.18329188952275918, 0.18370405421292083, 0.1841108148095853, 0.18446025596869892, 0.18478103273526805, 0.1850435774684522, 0.1853097038431319, 0.18554698400573202, 0.18575018823174563, 0.18592213532187749, 0.18608465479663958, 0.1861910533597266, 0.18629638289541478, 0.18633824235620505, 0.18635095340689026, 0.18626588613690923, 0.18622764185992632, 0.18616255319365851, 0.1860553410289243, 0.18591487692365014, 0.18577297247097513, 0.18556245569880261, 0.1853062920524165, 0.18503543298949218, 0.18473251193636137, 0.1844170688681235, 0.18404774948099623, 0.18364524244031452, 0.18321466950096135, 0.18275312834695226, 0.18223629634276664, 0.1817160137221036, 0.18114652093061534, 0.1805643715946061, 0.17994971328921364, 0.1793273423007892, 0.17864590598855187, 0.1779443613303638, 0.17720220920499918, 0.17643120024235467, 0.17566072740795194, 0.17482884889810232, 0.17392407623057723, 0.1730448090983191, 0.1721363967044713, 0.17118471247530873, 0.17022130890712778, 0.16921721363888423, 0.16819891782485694, 0.16720861840181084, 0.16612788809642837, 0.16502361325648549, 0.16385944967016805, 0.16271329548262076, 0.16151786370356516, 0.16032552632276834, 0.1591080702889946, 0.15793689285700466, 0.15666257413061316, 0.15531334450027492, 0.15400844318412704, 0.15268182727461205, 0.15138045528710167, 0.1500066182670334, 0.14859865365677422, 0.14719309750670884, 0.14577011865599585, 0.1443083001864636, 0.14285476189345545, 0.1414206434345496, 0.13992898963810707, 0.13842370617766234, 0.13686136678259173, 0.13533561630473215, 0.1338437848473104, 0.13228314471637903, 0.13071210657973842, 0.12907506491224485, 0.12749155403362644, 0.12594206919105652, 0.12432915865728886, 0.12270843932219636, 0.12107066913059394, 0.11943707786193528, 0.11779667916100857, 0.11615009815381827, 0.11449796271800249, 0.11282629167239397, 0.11116678607085892, 0.10949549399963912, 0.10782870012204405, 0.10615850007825757, 0.1045124606073753, 0.10283437993051117, 0.10115667575814793, 0.09947985566161818, 0.0978044376040457, 0.09609198530624388, 0.0944258852370748, 0.09281904586187224, 0.0911480465077829, 0.0894828242079448, 0.08780665342352424, 0.08615613125704305, 0.08447981597167332, 0.08284555779768565, 0.08121645411546652, 0.0796054700177743, 0.07798747120131763, 0.07634349090210624, 0.07474662617013332, 0.07315714736527336, 0.07162704071700375, 0.0700483624453455, 0.06847990884757377, 0.06692716378495638, 0.06538756717987489, 0.0638541646596078, 0.062342849765325094, 0.06083804223637903, 0.05935570453271002, 0.05788762064010622, 0.05642452676634854, 0.05498760010497763, 0.05354385623292063, 0.05214041654940672, 0.05075185781489888, 0.04938369981072046, 0.04802619316601486, 0.04671245250122679, 0.04538600929786638, 0.04407900449865224, 0.04277948343016463, 0.04151356007586929, 0.04026705848463641, 0.03904029856581644, 0.03783358636481684, 0.03666669592742015, 0.03549848036538111, 0.03439851284826348, 0.03326850359194204, 0.032163272735882105, 0.031058206884505748, 0.03000487744828619, 0.02897675484987082, 0.027968727990556497, 0.026983753143432123, 0.026058422251495517, 0.025115132855579935, 0.024124102717304193, 0.02324046703538994, 0.02237765788058992, 0.02161404604035669, 0.020784326739494863, 0.019925001113833808, 0.019154862300907165, 0.018407409490209782, 0.01770964902453784, 0.0170048139606777, 0.016358844353585162, 0.015699176158448014, 0.015066062570935462, 0.014461604497014568, 0.013880324977292729, 0.013356493543437034, 0.01282253212341162, 0.012315642478385059, 0.011830486375237759, 0.011377002310036412, 0.010992889825431434, 0.01058464287514065, 0.010203828278580046, 0.00984741388291767, 0.009520045064560565, 0.009242717499678667, 0.008963241016649607, 0.008710046525442454, 0.008514264415668025, 0.008308104649836185, 0.008121273854609035, 0.007968669349196895, 0.007841081804869395, 0.007784327821493799, 0.007699612833243589, 0.007643718859728766, 0.007610760580270226, 0.007602985319954927, 0.0076733810744464325