0.028707757456610028, 0.028291309611221387, 0.02802997530389327, 0.027661536899673617, 0.02722602343487782, 0.026928933635818192, 0.026649334339159836, 0.02639662897009105, 0.026142787104839995, 0.025992973515158075, 0.025748177959446422, 0.025516719402820968, 0.02519182497578361, 0.024994978337832808, 0.024740367144272968, 0.02455650623720581, 0.024371797760019784, 0.024346145743618677, 0.02414128724015136, 0.023897859451960452, 0.02371814442634351, 0.023544403259770086, 0.023320202316300095, 0.02316576376191439, 0.023030626774601905, 0.022881179399824134, 0.022737196081551985, 0.022611328528873775, 0.022478391285078402, 0.022260456927424788, 0.022155271929531158, 0.022053557294117915, 0.022089632335737887, 0.02198150599346147, 0.02179281511622011, 0.0217250093267168, 0.02166589245400195, 0.02175335278964495, 0.02169640054103039, 0.02148036389188659, 0.021482177135540386, 0.02149151235451362, 0.02150139473015805, 0.021529974619292146, 0.021746117111189074, 0.02177325757687132, 0.021822108282152457, 0.021841545473106627, 0.021938213562883647, 0.022078216364708338, 0.022205805476540566, 0.0223520337761055, 0.022470370524978404, 0.02265938245517064, 0.02278146899789173, 0.023012865624266268, 0.0232561440492716, 0.023520399946983645, 0.023789414618398796, 0.024218817497398456, 0.024500506870312914, 0.024806891216468785, 0.025034546962391616, 0.025401771708299124, 0.025810758050772504, 0.026210584108336907, 0.026630394840657358, 0.026967620533742694, 0.027441314177516295, 0.02796643685289297, 0.02846691631884058, 0.028986720967848593, 0.029470022057121476, 0.03003752122461565, 0.030633077559860066, 0.031236224958343852, 0.031859780915067595, 0.03249640693919744, 0.03316392812244047, 0.0339098949827964, 0.03461483923992591, 0.03534612832938697, 0.03605341406214881, 0.03684402157928249, 0.03765237656834712, 0.03849187620540883, 0.03935585710923501, 0.04025491301017605, 0.041168070846801894, 0.04223275838046578, 0.043183378058777824, 0.04416813932279002, 0.04516012222934429, 0.046214502959365654, 0.04716263014958145, 0.04829599330365566, 0.04945227097718867, 0.050743437123275996, 0.05193452850323318, 0.053036572938678035, 0.054306815662996305, 0.05560207148945841, 0.057072548871105994, 0.05840170296197006, 0.05975875644277664, 0.061160371375628984, 0.0625965950558888, 0.06390175438460388, 0.06542735061622038, 0.06699577864051981, 0.06856964789741403, 0.07017151326245102, 0.07177194494877062, 0.07343602105811105, 0.07530612654014547, 0.07700564394940924, 0.07874521949817583, 0.0804655823960567, 0.08229044299398872, 0.08411171410794169, 0.08601085186520284, 0.08794250853364684, 0.08997353955795664, 0.09196266271106576, 0.09382947713031298, 0.09591250149503089, 0.09802300709155928, 0.1001781585815044, 0.10234454193797779, 0.10462068869884912, 0.10683986601293405, 0.10909556678686892, 0.11143192623213231, 0.11375435251083207, 0.11595171898440773, 0.11837088262225619, 0.12081811336795874, 0.12330836930847895, 0.12581234028505048, 0.12849053804303265, 0.1310388141591897, 0.13362683302979395, 0.13609231112193787, 0.1387775454827873, 0.14163818707040562, 0.14436171219810803, 0.14712273240816112, 0.14976916926513958, 0.15262197514877765, 0.15561653880792653, 0.15850895190484557, 0.161435644671611, 0.1643900085209456, 0.16738437727390576, 0.17031022711172977, 0.1733815707224189, 0.17647870253782907, 0.1797351281059259, 0.1828680421506175, 0.18584748206349544, 0.18907138904773838, 0.19231703206575423, 0.19563550257315798, 0.19892009401126293, 0.20230345035000621, 0.20563103449451572, 0.20898853749772014, 0.21242557237712714, 0.2158341219561113, 0.21911774067432369, 0.22260555011020058, 0.2261128012174393, 0.22968611709567666, 0.23322697533119222, 0.23669345550205056, 0.2402910197763899, 0.24390472211661968, 0.24756310096876755, 0.2512062837553235, 0.25485764430478297, 0.2585383651719574, 0.262236192671369, 0.26595082317457264, 0.26968189081769045, 0.27339064872141694, 0.27715811854206823, 0.28104939963136377, 0.2848283331147832, 0.2886257841911345, 0.29231338927323147, 0.29616013060183366, 0.3001880092187627, 0.30402802251159744, 0.3078850880337995, 0.3116465705471253, 0.3155467807643702, 0.31938040488545505, 0.32330132081195256, 0.327223084876568, 0.3312989722163989, 0.3352028753762987, 0.33899483161565774, 0.34293065342350354, 0.34686575664005165, 0.3507674435827937, 0.35470385735057475, 0.3587956441688744, 0.3627036287954256, 0.3666158479234757, 0.37039540336877513, 0.3743280153728331, 0.37838744290700493, 0.3822859053874783, 0.3861827526874954, 0.3898928194246668, 0.3938048953264893, 0.39769642746279665, 0.4015760814461065, 0.40543904996840713, 0.40946272038029996, 0.4132694211625439, 0.4170586596894523, 0.42085005482275906, 0.4246299537568809, 0.4283685639133929, 0.43212445400869826, 0.43570749964762173, 0.43944684187288163, 0.4431577078258862, 0.4469169146286247, 0.4505615055335202, 0.45426473510589915, 0.45784993233464744, 0.4614140605740375, 0.46489105478670345, 0.46841671765469056, 0.4719456008762652, 0.47540826008090065, 0.4788420298123969, 0.4821469709546041, 0.48553217468908144, 0.4888393585571915, 0.4921540598099096, 0.49542824370663713, 0.49876873909226616, 0.5019480363627987, 0.505068077509057, 0.5081791154840222, 0.511251341831655, 0.5143100200500205, 0.5172984376487572, 0.5201599230110546, 0.5230777625867892, 0.5259482721624861, 0.5286944164047263, 0.5314787428587022, 0.5342222198102909, 0.5368991928040234, 0.5395239405696906, 0.5422192739265981, 0.5447232429286756, 0.5470397807700231, 0.5494677089597512, 0.5518387038284237, 0.5543281034818174, 0.5565625215552612, 0.5586221124806738, 0.5607753354914059, 0.562870279341504, 0.5649306500461823, 0.566904458056936, 0.5687310404272863, 0.5705983803912387, 0.5724007969401301, 0.5743258819655207, 0.5759746709608877, 0.5773873312955176, 0.5789482004875518, 0.5804410493721167, 0.58203736964469, 0.5833725573789457, 0.5844637193751148, 0.5857039656905711, 0.5868724818331628, 0.5879574138894242, 0.5889846727569237, 0.5899945197672073, 0.5908713003590453, 0.5916795129296889, 0.5923804386382864, 0.5930551889508588, 0.5936520202878424, 0.5941837508880604, 0.5946431522335087, 0.5951875152275488, 0.59548222075783, 0.5955740698484295, 0.5957576677862613, 0.5958672275700347, 0.5959875245063033, 0.5959384587557917, 0.5956931769349955, 0.5955212532120482, 0.5952718489683273, 0.5951209862078245, 0.5946959851673281, 0.5941503425952852, 0.5935988521872576, 0.5929762373082312, 0.592312449974178, 0.5915429141186574, 0.590658857821182, 0.5897542826955137, 0.588776435270162, 0.5877900210760496, 0.5866579728144703, 0.5852833661163938, 0.5840347948458691, 0.5827069324670903, 0.5812950153308292, 0.579813101136186, 0.5783459063663448, 0.5767014926023815, 0.5749882024550782, 0.5731114424801054, 0.5712730498851272, 0.5695386964158355, 0.5675320053302215, 0.5654638966502624, 0.5633399529916685, 0.5611469693324427, 0.558877765662874, 0.5565622129797126, 0.5541835693994157, 0.5516028247029477, 0.5491161804058531, 0.5465170075822656, 0.5438968806631634, 0.5412071300101913, 0.538461550558436, 0.5356359950909206, 0.5327321510931392, 0.5297813585810622, 0.5267681753126713, 0.5238169595309111, 0.520667326326336, 0.5174942253916442, 0.514237781011844, 0.5109316467368925, 0.5075577807441063, 0.5041550003774995, 0.5005851555230587, 0.4970975616196822, 0.49355447275754055, 0.49005834337799314, 0.48639624939304305, 0.4827050737462443, 0.4789511229092959, 0.475154157137035, 0.47136520510410035, 0.4674777040728399, 0.4635459642247731, 0.4595832323895187, 0.45558283383905823, 0.451373938762798, 0.44732183018791977, 0.44330117575833533, 0.4391511983763533, 0.43496463998242524, 0.43084777077509046, 0.426578918653616, 0.42225120080293216, 0.4179337440480098, 0.41358897767455305, 0.409211790448399, 0.40481603586812526, 0.40029271368565844, 0.3958616861992553, 0.3914024415325935, 0.38700370494605546, 0.3824829500212591, 0.3778598640022506, 0.3733156656458262, 0.36875126927625373, 0.3641825965252022, 0.3595813612003158, 0.35492156499766275, 0.3502990847054434, 0.34566292371965246, 0.3411782729491151, 0.3364994421742885, 0.33163574177623434, 0.32698207829003306, 0.3223637872225067, 0.31768850612794547, 0.31301061649822826, 0.30829325440942845, 0.30361934077882113, 0.2990780766500617, 0.2943880484083262, 0.2897082976009208, 0.2850675458661239, 0.2804063073101518, 0.2756295183471925, 0.2710121613919365, 0.2664021345191078, 0.2619181017030093, 0.2573129014178925, 0.2527224052081044, 0.24815575691471312, 0.2436088207199697, 0.23893507785749002, 0.23444841868297853, 0.23014295431211537, 0.2256647233443965, 0.22121363626439788, 0.2166308211499113, 0.21225567339589402, 0.20791448141000873, 0.20357916433815093, 0.19926825032865947, 0.1950660535818846, 0.19079824888973976, 0.1864612201020749, 0.1822744391834154, 0.1781169944923399, 0.17400862055533547, 0.16991220356826617, 0.1660079489814091, 0.16196248010157183, 0.1579629806910462, 0.15399111178031247, 0.15008540221654557, 0.14624457993454126, 0.14242601153200082, 0.13865386823013182, 0.13478110975735225, 0.13112111899721862, 0.12762918658584224, 0.12403235966555201, 0.12048474861544621, 0.11700482026079555, 0.1135543216037131, 0.11006433217256789, 0.10672812577979852, 0.10343866001829603, 0.10026960800543509, 0.09706755126551628, 0.09379423335109054, 0.09071587392613742, 0.08768488799696565, 0.08469654634035545, 0.08176492163840166, 0.07889403991467532, 0.07606349968434956, 0.07328617269187987, 0.07066771957140368, 0.06798579877722197, 0.06539533130605034, 0.06283169950242687, 0.06033044847370901, 0.05786088268029793, 0.05548696418741187, 0.05305358375529843, 0.05081377347744285, 0.04862677769210642, 0.04655808428777191, 0.04447126417333825, 0.042505896298372224, 0.040529116950160336, 0.03861494644591803, 0.036779068446176344, 0.03498675352748207, 0.033081213399082515, 0.03143512094834367, 0.02984050174435842, 0.028306414156365027, 0.02681654169394055, 0.025492068339561896, 0.02409759976721349, 0.022764733460003617, 0.021398080593245754, 0.020198667894058386, 0.019227305105089944, 0.018115346665392728, 0.017068073442816075, 0.016114414100585856, 0.01518880574869561, 0.01414435704787648, 0.013365800717210745, 0.012637262591607518, 0.012104326325094892, 0.011458420253312198, 0.010931957608481235, 0.010395165800632863, 0.009918573531461536, 0.009327251216200226, 0.00898872054772424, 0.008795428142006956, 0.008537430300718905, 0.008331738011905277, 0.008258280632948591, 0.008144751521047352, 0.007958761245036418, 0.007969164702148042, 0.008024408150453313, 0.008273575829561865, 0.008399027304429882, 0.00846402560315988, 0.008707221051510467, 0.008993590827368798, 0.009346892449211037, 0.009715174259763258, 0.010277828738224826, 0.010712428099789948, 0.011197130629636246, 0.011776368064471947, 0.012349673441754326, 0.01297224210475259, 0.013637844950965091, 0.01434707819552925, 0.014955057791873262, 0.015764767936185954, 0.016617511081134448, 0.017487355868768817, 0.018388358841819503, 0.019453239645682796, 0.02039846303266412, 0.021334582742524914, 0.02235866103890034, 0.02341434599732729, 0.02466802876107322, 0.025762711976315866, 0.026867175013227027, 0.02803918395698357, 0.02924325111165602, 0.030522056685735485, 0.031779667292782324, 0.03293599001777358, 0.03426810630398905, 0.03561938511466451, 0.03721129289098879, 0.03857157865339916, 0.03995813207055558, 0.04137726418479721, 0.04282213733812303, 0.044155752047283205, 0.04566378762908213, 0.04739464762799201, 0.048901910189762886, 0.05043328304166229, 0.05201694992850942, 0.05358669003567919, 0.05519472506055762, 0.056800650376621103, 0.058424299831094, 0.059926881620536755, 0.06159858396020998, 0.06327586255756919, 0.06495859839953105, 0.06664664318165542, 0.06847698277431348, 0.07015774913033172, 0.07192353353218614, 0.07361857432760616, 0.07532750986240734, 0.07691146649999409, 0.07866056550458785, 0.08059274834615529, 0.08232183036075862, 0.08406232051890383, 0.0858266961788005, 0.08758345993498134, 0.08921284396091358, 0.09100092877359861, 0.09278673888773392, 0.09474581233902647, 0.0965050168052095, 0.09813068724779303, 0.09992164640043265, 0.10170965730846111, 0.10361777530672071, 0.10538435994643086, 0.10721340239778893, 0.10897950884565492, 0.11075096233255395, 0.11250633540998023, 0.11428741721078066, 0.1160552711444867, 0.11783924606227704, 0.11962206301502987, 0.12132265515950838, 0.12311226984994862, 0.12489119531609222, 0.1266684446547991, 0.12845780122946543, 0.1302210639274535, 0.13198007088307487, 0.13371283048435909, 0.13546671384391806, 0.13726407731166174, 0.1390023396018251, 0.14073908405084856, 0.14260131326199255, 0.14431876489993278, 0.14589848890588364, 0.14764401360991455, 0.14938512907569979, 0.15116665020812783, 0.1528946381154217, 0.1547490575379693, 0.15645973308491354, 0.15817702175920287, 0.15979714698749192, 0.161538112279118, 0.16320504945111255, 0.16495272637534247, 0.16669564408011597, 0.16857597032491073, 0.1702943745807276, 0.17204491445619566, 0.17377151299669613, 0.17550496318508366, 0.17707549470197276, 0.17884317549956466, 0.18059742664123793, 0.18236101939874602, 0.18412326450285615, 0.18590960613273144, 0.1876697315867819, 0.18940914442966034, 0.19118013983995694, 0.19295488424169838, 0.1947666056157861, 0.1965475806328926, 0.19843567111397967, 0.2002212668484001, 0.20202180782980636, 0.20377654560260686, 0.2056140195037691, 0.20748481114003794, 0.2093422611880556, 0.21121314461520396, 0.21304740564740623, 0.21495268017777083, 0.21695852388950834, 0.21887708243963383, 0.22081415652365455, 0.22280213081353598, 0.2247725582264088, 0.2266024792752465, 0.22863506887203783, 0.23067962097446093, 0.23289899256975766, 0.23495144191633824, 0.23698876151096393, 0.23909666814521716, 0.24122747732559505, 0.24340380347425078, 0.24557892340779008, 0.24765248486795555, 0.24989503885431652, 0.2521566830346154, 0.2545618911054218, 0.25685035845692644, 0.2590800886091022, 0.26143998896569653, 0.2638253373884399, 0.2661382857493966, 0.26858994373816375, 0.271066338830464, 0.273564823313538, 0.2760892841568564, 0.2786551988120573, 0.28123378636294205, 0.28397197724580797, 0.28659619403011255, 0.2892599578422595, 0.2919771462322498, 0.2947175624792904, 0.29748165745595984, 0.30030357744385117, 0.30316413605866105, 0.3058758261070823, 0.308837658380224, 0.3118440765045798, 0.31486243957285315, 0.3179133346410203, 0.3211674181715072, 0.32426549408180005, 0.3273100765595169, 0.3305108556922601, 0.3337505437681382, 0.3370195086909837, 0.34033960923073664, 0.343689207792517, 0.34709016974648044, 0.35053094343963487, 0.35393731083546204, 0.3574683370612431, 0.3610502024681687, 0.3646537562220282, 0.3682964533431917, 0.37194655830274337, 0.37567315256574263, 0.3794102086218298, 0.38321834026413615, 0.38706461962946787, 0.39097990652354697, 0.3949003554532515, 0.39889037676800665, 0.40288997703670726, 0.406932551742841, 0.41093714095922174, 0.41507501783213513, 0.4193815669491548, 0.42357830805465013, 0.42782050843781805, 0.43199025556399845, 0.4363354509167934, 0.4408843344496223, 0.44528105062928197, 0.44972364629718076, 0.45413209725367665, 0.45867242040235967, 0.4633048720730751, 0.46791317344753997, 0.47256124534524435, 0.4770645983181782, 0.48181265478597074, 0.48663993181932896, 0.491435549678103, 0.4962620052821858, 0.5010607119140813, 0.5059558813875048, 0.511005162701016, 0.5159384808011656, 0.520906131046239, 0.5257557156797991, 0.5308078300999324, 0.5358945996381494, 0.5409904408851821, 0.5461096774618703, 0.5513953089009046, 0.5565424831941715, 0.561740315498545, 0.5669442619640859, 0.5721765875332896, 0.5774033249094378, 0.5826914776434162, 0.5879609771735248, 0.5932963601152207, 0.5986486882044949, 0.6039202462203656, 0.6093159902643344, 0.6147729136718895, 0.6201792916682272, 0.6255968138351741, 0.6310911809684507, 0.6365199357222149, 0.6419265434050161, 0.6473823828932177, 0.6528453930415733, 0.6583022599573605, 0.6637774939160798, 0.6691264511444729, 0.6746224867794384, 0.6801117609896787, 0.6855356131627024, 0.6910181142239433, 0.6966025936071374, 0.7020487489998727, 0.7074898817943892, 0.7128520388290188, 0.7182882679683138, 0.723830319767539, 0.7292243095721779, 0.7346100613887286, 0.7399533560854221, 0.7453209234995404, 0.7505174296664129, 0.7558715904920572, 0.7611981880317343, 0.7666280386731165, 0.7718819007394665, 0.7771001240665769, 0.7823109834998403, 0.787496056729914, 0.7925428159970237, 0.7976855881605646, 0.8027613533544229, 0.8078337797554298, 0.8128663164515638, 0.817876499407955, 0.8228249981400239, 0.827661857387242, 0.832536142046078, 0.8375185665017637, 0.8422782648266343, 0.8469981976482267, 0.8515109071273679, 0.8561661193048632, 0.8609075086555376, 0.865434295601932, 0.869912810298984, 0.8741757795835503, 0.8785731040454279, 0.8829054101119026, 0.8871766081107071, 0.8913838179604741, 0.8955083051003055, 0.8995879998896587, 0.9036309382347968, 0.907572106302691, 0.9114465308889595, 0.9152027219583755, 0.9189468201285207, 0.9226241332861973, 0.926221073614161, 0.9297440163801766, 0.933181995719004, 0.9365555407701444, 0.939886069345901, 0.9430997774984371, 0.9462363019079205, 0.9494013390433221, 0.9523663724731345, 0.9550892403354583, 0.9579239458429193, 0.9606706380583817, 0.9633773264645076, 0.9659406170463796, 0.9684918930148494, 0.9708715321139929, 0.9731668896017395, 0.9753986736727027, 0.977518321272248, 0.9794499269279052, 0.9814065694514944, 0.9832677045118168, 0.9851499523771705, 0.9868041584549293, 0.9883682854220868, 0.9898410051614733, 0.9912211080032927, 0.992317888009037, 0.9935335326971765, 0.9946308155177056, 0.9956361797583323, 0.9965359140446913, 0.9973427241707876, 0.9980313834585243, 0.9987800142412019, 0.9992414492782103, 0.9996091105937973, 0.9997870533024481, 0.9999758593682396, 1.0, 0.9999924271839545, 0.9998791936139263, 0.9997596503363626, 0.9994240933465068, 0.9990604303128311, 0.9985181425246517, 0.9978803945060819, 0.9971362828606571, 0.9963065741640305, 0.9952880219263813, 0.9942732897418283, 0.9931547878236973, 0.9919693967931636, 0.9906404809886268, 0.9890784184491239, 0.9875665773184799, 0.9859478475228256, 0.9844213347805446, 0.9825680345178587, 0.9806027941784484, 0.978568103591792, 0.9764398445539672, 0.9740566743544592, 0.9717618511797987, 0.9693607270326592, 0.9668634736241036, 0.9642668312053253, 0.9615904249433738, 0.9587970570363873, 0.9560588080996227, 0.9530594312546301, 0.9499765732259242, 0.9466508007145564, 0.9434210145215456, 0.9402361161190973, 0.9368060179145301, 0.9332944506625278, 0.9295767388268078, 0.925919297940898, 0.9222433971469018, 0.9184048738435714, 0.9144864557271722, 0.9105436424325113, 0.9064617009120051, 0.9021528476512863, 0.8979437701940435, 0.8936539786724524, 0.8893824006246817, 0.8849251832488254, 0.8804754319266764, 0.8758712793308719, 0.8712045350726211, 0.8662841693483625, 0.8615183662861393, 0.8568205148781892, 0.8518971134113901, 0.8469151013932028, 0.8417566136727417, 0.836675914497108, 0.8315779002669529, 0.8263704690813342, 0.8211082858391855, 0.8156962964334856, 0.810342135127892, 0.8049854914275257, 0.7995173555066831, 0.7940021512723408, 0.7885769147411412, 0.7829561302068543, 0.777125963042382, 0.7714603006937205, 0.7657524615395208, 0.7601742379861867, 0.7543676147163894, 0.7483576625737148, 0.7425226135935147, 0.7366534528419426, 0.7308736272909193, 0.7249281214280672, 0.7188493582345863, 0.7128787518592, 0.7068840009365184, 0.7010246758045919, 0.694968391337768, 0.6889093690468114, 0.6828355394502944, 0.6767549664126185, 0.67052337774561, 0.6644506489509064, 0.6583460027377618, 0.6522547103032957, 0.6461552190249388, 0.6401467396363673, 0.634025694366474, 0.6279612482407029, 0.6218432567187676, 0.6157351435608467, 0.6096500217407653, 0.603563241765144, 0.5972986444852165, 0.5912648174266043, 0.585236329868654, 0.579298651693468, 0.5732785504166471, 0.5672541288723687, 0.5612742744113017, 0.5553144251262714, 0.5494449886826119, 0.5435219094209746, 0.5376260024133435, 0.5317626932930016, 0.5259307604870743, 0.5200487060847051, 0.514293606496515, 0.5086455441702346, 0.5029434345201399, 0.4972797487296372, 0.4916636966510073, 0.4860792727410979, 0.4805432274261211, 0.4750437897087235, 0.46958922105133, 0.4640393874370044, 0.4586956031331368, 0.45344037925431663, 0.4481729840112271, 0.4429527311661344, 0.4379102591373731, 0.4327725301473828, 0.42767747112676086, 0.42265969672055376, 0.41770049357902767, 0.41279840277060037, 0.40795830642972414, 0.4030755691561001, 0.3983696005453958, 0.39371942407396726, 0.3890377997610754, 0.38451486740154006, 0.38017407277019444, 0.375747147362455, 0.37138614963525773, 0.3671300109559276, 0.3628978273143044, 0.35857009264149786, 0.3544987694008754, 0.35051474923543036, 0.3465638818181148, 0.34267863038463486, 0.33894077859702143, 0.33517975278759926, 0.33157254648437773, 0.3279477498877415, 0.3244009315260467, 0.3209114229227142, 0.3175216925846884, 0.3141671864692188, 0.31093354743245794, 0.30777295510581776, 0.3046029410081531, 0.30159957092403983, 0.29865716178674057, 0.2957936931718291, 0.29300033787501867, 0.2902555856380448, 0.28760719297770304, 0.2850051961131867, 0.28250163476998297, 0.28006834925213087, 0.277853148580306, 0.2755433686331848, 0.27315211437278625, 0.2710215853399195, 0.2689600758622818, 0.2671354714282644, 0.26519211783253444, 0.2631406499571542, 0.2613787609073454, 0.2596834873010044, 0.2580532572594246, 0.2564926754633831, 0.25501568955777215, 0.2535880888921019, 0.2522289565176879, 0.25098042796248377, 0.2497521364489826, 0.2486765165639316, 0.24757695357706838, 0.24655047664219493, 0.24548671740607378, 0.244615917905564, 0.24381199202162954, 0.24306597890540038, 0.24238220623905915, 0.24171980059960113, 0.24116396604066598, 0.24075512276991454, 0.24030420296122046, 0.23991573909633268, 0.23951590834910141, 0.23925793624838318, 0.2391273990157812, 0.23896931757195497, 0.2388689370711093, 0.2387301899692711, 0.23875342674276195, 0.23893625384431671, 0.2390423203243894, 0.2392022941410149, 0.23939451456110677, 0.2396604274707324, 0.2398456784294253, 0.24022356489787533, 0.24064022356514722, 0.2411761803481198, 0.2416595866497172, 0.24217134397855825, 0.2427403352271452, 0.24334871029359514, 0.2439349067642667, 0.24462652722622846, 0.24536907039568542, 0.24612330473468613, 0.2469099913633102, 0.2477019849317379, 0.24855407649421057, 0.24941205947903677, 0.2503222800484925, 0.251257605883126, 0.2523524142471994, 0.2533184925919323, 0.254367206008024, 0.25538500004463166, 0.25643194644268047, 0.2574573480793974, 0.25856198561344423, 0.25971077147242194, 0.26085068460692057, 0.262008845812573, 0.2630282849621388, 0.2642376798430175, 0.2654518265893415, 0.26667049148257016, 0.2678933329539755, 0.26917840793641273, 0.27040080391934085, 0.27154235732261267, 0.27278636128451333, 0.2740291007794504, 0.2752741592062919, 0.2765124205412916, 0.2777440066073886, 0.278976780729528, 0.2802052015007826, 0.28154749054877454, 0.2827497529995957, 0.28390545991644667, 0.28511140415026975, 0.2863109561839766, 0.28759357628051535, 0.28876497502482834, 0.289872754035793, 0.29103936001115066, 0.29219379950320906, 0.2932238952241709, 0.2943643599333387, 0.2956361472082119, 0.2967130562055171, 0.2977760774688176, 0.2987308346835661, 0.29977313783999276, 0.3006930203287562, 0.30170007659441717, 0.30267683203385864, 0.3036254905401465, 0.3045418402682091, 0.3054221955653471, 0.3062793024433766, 0.3071058101500799, 0.30792369684030796, 0.3086855105131818, 0.30946154272320203, 0.31015688548922205, 0.3108234558106098, 0.3114966343405859, 0.312098326771663, 0.3126484301779212, 0.3131930203755314, 0.31370482606788636, 0.31409027525980326, 0.31454592763314265, 0.31497345746536254, 0.3153472109727659, 0.31568152672501154, 0.31602469716399995, 0.3162736359806365, 0.31643701318026146, 0.31661719540186894, 0.3167563956086957, 0.31701384816370154, 0.3170505763597898, 0.31697621548838467, 0.3169566190548022, 0.3168974901335182, 0.31671966897754933, 0.3165899947871532, 0.31643723834636567, 0.3162145086243609, 0.3159483008929216, 0.3156225284752975, 0.31527155354508624, 0.3149408896038007, 0.3144934639984062, 0.3140057779106166, 0.3134290653204801, 0.31286597050791054, 0.3122993463680802, 0.31164360911781386, 0.31094666660745357, 0.31025277481113, 0.30946749617263813, 0.3085988994358467, 0.3077409982110628, 0.30684104867811773, 0.3059234218312812, 0.3049368390999899, 0.30382744051757576, 0.3027711293333928, 0.3016701996361955, 0.3005254517825432, 0.29933764390055156, 0.29826281311127156, 0.29697138044650523, 0.2956476791843561, 0.29429110194377667, 0.2929011776952517, 0.2913101416279302, 0.2898737645770709, 0.2883939342307578, 0.286884061888403, 0.2853196391957871, 0.28373630243584574, 0.28209215013683103, 0.2804119798022924, 0.2786360199337234, 0.27689367172478413, 0.27512215510128407, 0.27330549949444133, 0.2714563798925375, 0.2695714969618036, 0.2676541791743262, 0.26586264553864764, 0.26386319109085155, 0.2617055340141167, 0.2596808762559658, 0.2576266876622757, 0.25567296035004944, 0.2535460603808928, 0.25126839307049, 0.24911855705048944, 0.24694141999152855, 0.24470577914541342, 0.24248129519674275, 0.24042040942214804, 0.23812116701310804, 0.23580896156133171, 0.2332937845362412, 0.23097856173621586, 0.22872365982876247, 0.22635044238770563, 0.22396051978687753, 0.22164331432060258, 0.2192107879620783, 0.2165931104166118, 0.2141634444510743, 0.21171436844813799, 0.20927572339319023, 0.20678896768996125, 0.20435144709214384, 0.20183131298384935, 0.1993035849809995, 0.19684746333544734, 0.19429623085301806, 0.19161037444879786, 0.18907295875699023, 0.18652662729566677, 0.1841339800749767, 0.18155306016807893, 0.17894758524311197, 0.17637739370424263, 0.1738090007243519, 0.1711660015194482, 0.1686116986761163, 0.1659811906071651, 0.1634342198394168, 0.160883540940452, 0.15840940287377397, 0.15584600737255472, 0.15336845338816124, 0.1508058433592094, 0.14825426201845276, 0.14555236556988793, 0.1430433927599413, 0.1405871170909275, 0.1380778396107706, 0.1355766183604629, 0.13313883701297655, 0.13064957058894555, 0.1280772501184573, 0.12562813330592068, 0.12318812270934872, 0.12083708012017459, 0.11840884154947205, 0.11593494634422036, 0.11354870133862455, 0.11117651908455486, 0.1089766064189772, 0.10661522883024867, 0.10416021071090828, 0.10186408501357826, 0.09958570436393342, 0.09728134063874597, 0.09504597852194718, 0.09282370413268298, 0.09062402617549939, 0.08844303709521044, 0.0862613994040425, 0.08412277703237495, 0.08206656154765071, 0.0799606124866114, 0.07787963155727035, 0.07594685275839097, 0.07390083163774593, 0.07185903531302468, 0.06988072853293398, 0.06793185737793683, 0.06603630626238373, 0.06414235575853819, 0.0622683587876186, 0.06043543707165659, 0.05863141254416548, 0.05671296543738343, 0.0549845681097233, 0.05326877132385927, 0.05158389244528022, 0.04992143475392297, 0.04829853735788685, 0.04668178227489862, 0.04523426297133402, 0.04365202403024762, 0.0421049357209694, 0.040436982569506334, 0.03897781999683335, 0.03758156568287723, 0.0361675036996269, 0.034781638986436034, 0.033404088862408234, 0.03207799128641563, 0.03085231466058785, 0.02957297959394611, 0.02832613572655634, 0.027095290885588243, 0.025914429742427345, 0.024850898654178628, 0.02372010590228885, 0.02262446610661236, 0.02154699164442105, 0.02052123129072958, 0.019549602318824834, 0.018584433379980572, 0.01765151743147686, 0.016724047249998104, 0.01585725323963289, 0.01486029566505943, 0.014071793913791916, 0.01330308910469755, 0.01255726762625127, 0.011830954992523039, 0.011189839743752867, 0.010501585024044129, 0.009840649218631875, 0.009251314257734298, 0.008639090907365731, 0.007953428147602252, 0.007412534428333919, 0.006894235759341384, 0.00657837394696514, 0.00608344322395555, 0.005553311167914735, 0.005132451224383813, 0.004738517281727266, 0.0044556367049021954, 0.004103097784083645, 0.003746251358042005, 0.0034568110178382406, 0.003193125807889549, 0.002954463081464416, 0.0027401387506591594, 0.0024143668732831396, 0.0022639209201335596, 0.00212841371168558, 0.002048731493953369, 0.001939524940594012, 0.0018952285384271604, 0.0018171106545035193, 0.0017599119347677912, 0.00175537308098423, 0.0017343460133200017, 0.0017768448565100882, 0.001792036942697895, 0.0018292960522586857, 0.0019904726974945275, 0.002055872867900877, 0.0020010424016870805, 0.0021331639090148196, 0.002279011787123535, 0.002626002670118257, 0.00277505163163918, 0.0027844058890910887, 0.002999765076751476, 0.0032263649685764792, 0.003522617091197276, 0.0037640275323962222, 0.004023676474040595, 0.004292366843959099, 0.004574290163409447, 0.004862818740497047, 0.005170278914294791, 0.005626166762409729, 0.005938383198352229, 0.0062687165542490205, 0.0065208646425647405, 0.0068950727183097, 0.007503933610886725, 0.0078667309691356, 0.0082503128346437, 0.008606177012453847, 0.009031104195535548, 0.009363686588366052, 0.009825871299238467, 0.010292655766349666, 0.010911277132461513, 0.011368608910552223, 0.011834726278146168, 0.012316999261226284, 0.012809589537325571, 0.01324098974016689, 0.013760521146562829, 0.014445360133088796, 0.014952319742950472, 0.015544797469631739, 0.016067046676770065, 0.016603768829029267, 0.01700005939135853, 0.017580496725589735, 0.018368321237372563, 0.01892621279693861, 0.019497648153778614, 0.020093243778507058, 0.0206859768002858, 0.021226519731967458, 0.021846790068466963, 0.022471948864659384, 0.023115861750960733, 0.023748310175366594, 0.024333405185759886, 0.02498245588368967, 0.025633286583792013, 0.026512121874274687, 0.027138870261496643, 0.027663985559958467, 0.028334703347491712, 0.029011350438938013, 0.02966146162532599, 0.030353528129788802, 0.031182425643706005, 0.031865282622726525, 0.03255975296040427, 0.0332024643059567, 0.0339256756275941, 0.03465485756696593, 0.03539003776576721, 0.03613127931502457, 0.03691700105365479, 0.03766582951500825, 0.0384958465004469, 0.03925249929738199, 0.04002157532751265, 0.04073992798445268, 0.0415400236109971, 0.042361643510728283, 0.043174967479623357, 0.04399691972176765, 0.0448175480111858, 0.045658462831290964, 0.04650792959716411, 0.04736624574376527, 0.0482337201029234, 0.04932044876786163, 0.05018068271217417, 0.05089138024225546, 0.051815782209362726, 0.05275000975156074, 0.053688457553010535, 0.054644443047306784, 0.055764561737725336, 0.056723337959745664, 0.0577025565638844, 0.05875392634994678, 0.05976534210621151, 0.06063700424408304, 0.061711297675070276, 0.06279680534762021, 0.0639387530414901, 0.0650435961783593, 0.06624931775209608, 0.06737617495789945, 0.06852477389295977, 0.06963234244785, 0.0708317016962733, 0.07212751646216482, 0.07335303231222695, 0.07460180933701688, 0.07583139495090578, 0.07713185162761979, 0.07837044977706768, 0.07972351528214013, 0.08109373343941649, 0.08252865794218359, 0.08393072526582716, 0.0854143151714522, 0.08685562872876257, 0.08832441903648108, 0.08976027281340765, 0.09129201478543689, 0.09293702934309542, 0.0945073089808651, 0.09610849977690951, 0.09771029986025187, 0.09937706776871566, 0.10098838507609458, 0.10272477258455946, 0.10448643622022959, 0.10631278387541414, 0.10812332984647853, 0.10988567008777467, 0.11176765419005844, 0.11367680558364872, 0.11567480181099028, 0.11763403579634335, 0.11972185247631549, 0.12173707601776332, 0.12379222246684475, 0.12582842981461329, 0.1279698033315529, 0.13005417671734446, 0.13227918526697893, 0.13453543738999527, 0.1369631916731801, 0.1392674796318718, 0.1415290731097328, 0.14392782489087527, 0.14636332543710448, 0.14876347502893397, 0.1512831694417483, 0.15381278688868963, 0.15640480857890063, 0.15903152255094188, 0.16176857722857732, 0.16445818167371595, 0.16713494426486045, 0.16991479807406806, 0.17273345767429815, 0.17573065215180578, 0.17861091632735876, 0.18148884590576225, 0.18447093809182313, 0.18749691999018114, 0.19053638426991085, 0.19365354216479866, 0.1968770545455113, 0.20006982171965393, 0.20330831380721878, 0.20662441030499185, 0.2099491397930504, 0.21326187144879716, 0.21668647022183055, 0.2201533043031725, 0.22365639175953328, 0.22720866038835066, 0.23068399575593682, 0.23433554750904745, 0.2380226488190405, 0.24172613300583856, 0.24548975764086398, 0.24941950133114646, 0.2532416387451721, 0.2571094878234522, 0.2610507916907141, 0.2650050284595403, 0.2688679773139134, 0.27293063999060124, 0.2770301911084505, 0.28120143565467715, 0.28537186522285746, 0.28967714398398015, 0.29391562486573636, 0.29819931618030154, 0.3024143528878769, 0.30680007551266075, 0.31114746496383555, 0.3156153611606618, 0.3201155681321785, 0.324806007372388, 0.32935256866841894, 0.33393557576389205, 0.3385668346788897, 0.3432381783806883, 0.34783976636080266, 0.3526023309480697, 0.3575111823294732, 0.3623218796300679, 0.3671703428564323, 0.37197887486481834, 0.3769094584589637, 0.38188459939013053, 0.3868739484737764, 0.39189382818629237, 0.39681864398514105, 0.40191376155429887, 0.40706095322798497, 0.41219626476154664, 0.41735570901965585, 0.42259763390683874, 0.42779740994602916, 0.4330581732233443, 0.4383061297970303, 0.44358093976984014, 0.4487946900943735, 0.4541306607560245, 0.45955776166264406, 0.46492115940599, 0.47030623220119167, 0.47575621378331073, 0.48117561264767655, 0.48658754929007697, 0.4920506084165092, 0.49752998389929026, 0.5028732561912774, 0.5084009905425693, 0.5140804202779033, 0.5195985433176965, 0.5251294548247867, 0.5305749871539316, 0.5361397029699015, 0.5417844617131075, 0.5473457795415124, 0.552754377677795, 0.5583478455130746, 0.5639364962812686, 0.5695889557181454, 0.5751592855147074, 0.5807868412790793, 0.5863463214728557, 0.5919059441457942, 0.5974884505720074, 0.603040931728861, 0.6085784937832449, 0.614125283775204, 0.6196654455639236, 0.6250745297976413, 0.6306127949287962, 0.6361636308129527, 0.6416623460547141, 0.6471442621598342, 0.6525863948105932, 0.6580350736836805, 0.6635740991079864, 0.6689667984781186, 0.6743435377901367, 0.6795270578765265, 0.6848888094085754, 0.6902700428911024, 0.6955633372119304, 0.7008280072918635, 0.7059603438108295, 0.7111782060282298, 0.7164497746708938, 0.7215818849721852, 0.7266815881898832, 0.7316710939399206, 0.7367122316788696, 0.7418806013441603, 0.746819626978806, 0.7517266337767347, 0.7565813910668948, 0.7614205265972814, 0.7660754609068937, 0.7708533678541717, 0.7755809163584056, 0.7802214350941118, 0.7848516737054283, 0.7894866538282235, 0.7940016698793226, 0.7984654779912569, 0.8029799733223348, 0.8073254114667237, 0.8114287941778449, 0.8157000378493691, 0.8199083982514871, 0.8240315778858601, 0.828116536045784, 0.8323021139559753, 0.8362363665086476, 0.8401145621282475, 0.8437453510487701, 0.8475302647260706, 0.8512636829224093, 0.8549027446089364, 0.8584712176051854, 0.8620292642883093, 0.865447788352686, 0.8688301427133955, 0.8721066823173351, 0.8753145719082983, 0.8783375962958233, 0.8814190508273043, 0.8844016611814547, 0.8873281509045774, 0.8901744290056461, 0.8929484283603553, 0.8956327853300102, 0.8981903798256897, 0.9007194776836996, 0.9031647940036985, 0.9057098046327776, 0.9079640435288765, 0.9101322658246892, 0.912238475428387, 0.9142667714439803, 0.9161371279735426, 0.9180155751218885, 0.9198482809417083, 0.9215490434798076, 0.9231651624992704, 0.9246273387160215, 0.9260807410018133, 0.9273690232259851, 0.9286508729287533, 0.9298379976969218, 0.9309470808147884, 0.931944267105284, 0.932847003504017, 0.9336597640536378, 0.9343803067739899, 0.9349926199769301, 0.9355311121005209, 0.9359606343655295, 0.9363156817873084, 0.9365773231447901, 0.9368587726876936, 0.9369200582951508, 0.936769894953266, 0.9366734804459149, 0.9364822881382514, 0.9363621784930107, 0.9359618567145341, 0.9352856841026985, 0.9347401677273433, 0.9340978783621873, 0.9335190160384438, 0.932665516255474, 0.931641827008245, 0.930627489949014, 0.9295218336898302, 0.9282706987749989, 0.9269902120470485, 0.9256667325383199, 0.9241938217361665, 0.9226318692939489, 0.9209267359097538, 0.9191945786181224, 0.9174318811848142, 0.9155108066128919, 0.9135037261846952, 0.9113746350757373, 0.9092010843119622, 0.9069849002837802, 0.9046324381745151, 0.9021968949226121, 0.8997472190461918, 0.8971379959095261, 0.8942793406849604, 0.8915357966642727, 0.8887046831254216, 0.8857734324304735, 0.8827735438632373, 0.8798631966814987, 0.876674980614864, 0.8734154300363429, 0.8699715336908586, 0.8665835565958807, 0.8632431634310518, 0.8596856198337938, 0.8560599967188571, 0.85222324397773, 0.8484801730353463, 0.8446315520753391, 0.8407433484683425, 0.836781356202633, 0.8327775995313862, 0.8286694349065361, 0.8244660323979923, 0.8202287695378017, 0.8159255598589373, 0.8115478357484738, 0.8071185187143474, 0.8026674625558047, 0.7981103711912003, 0.7934964020633132, 0.7889839830297172, 0.7842396647070461, 0.779420369151366, 0.7745903076605913, 0.76971374527891, 0.7648092804221875, 0.7598388672264934, 0.7546350264197236, 0.749601548696875, 0.7445149200163508, 0.7395529488316759, 0.7343446898357866, 0.7290352392965188, 0.7237624746920176, 0.7184507854294407, 0.7131297370370203, 0.7077406218800941, 0.7021749757546241, 0.696738471150297, 0.6912629266242504, 0.6857325495379328, 0.6801881907082709, 0.6747860142092836, 0.6691550578491701, 0.6635049422109146, 0.6576769126716716, 0.6520105038163626, 0.6464067971356591, 0.640679193508426, 0.6349346818182031, 0.6291704663541627, 0.623396377447701, 0.6176169766717758, 0.6118164140309241, 0.6060055428076142, 0.6002178878309109, 0.5943860847701068, 0.5885051957655568, 0.5826706050857897, 0.5767643321713488, 0.5709293719063504, 0.5650884449274424, 0.5592193030235856, 0.553375292811922, 0.54767482298103, 0.541811000156551, 0.5359574116656821, 0.5299754770782552, 0.5241618234557954, 0.5184574889937522, 0.5126413487041941, 0.506839265947124, 0.5010904689971398, 0.4953143980681999, 0.4894322773614219, 0.4837107152851456, 0.4780025568629595, 0.47242860106167145, 0.46673749509194196, 0.4608920883561589, 0.45527473059835183, 0.44967379252459505, 0.44424472760210926, 0.4386635733211277, 0.4330751810234843, 0.42756158968028407, 0.4220780695503242, 0.41670221093678217, 0.4112719629938203, 0.4058365449589813, 0.4004863452597401, 0.3951716577047118, 0.3898630138958287, 0.38462555139242655, 0.3793557169401226, 0.3742003992062052, 0.3690795245563807, 0.3639986777987024, 0.3589507350973954, 0.35393174711051373, 0.34896441012014107, 0.344037974851658, 0.3391576659819344, 0.33431602223322293, 0.32947247012450864, 0.3247266142171707, 0.3200244894609769, 0.31542984406402097, 0.3108108364830887, 0.3062000896909862, 0.30168813087674917, 0.29722531027948396, 0.2929374578331024, 0.28855935900752794, 0.2841165274487326, 0.2798702182523254, 0.27567462045357305, 0.27151435093936205, 0.26742441633672676, 0.26353563500604604, 0.2595313193751884, 0.2555886322534617, 0.25171704807933665, 0.2478946028731847, 0.24408437762831328, 0.24038886922212538, 0.23675045922509072, 0.2331772985289925, 0.22965232012120187, 0.22602580905458036, 0.22263664193006039, 0.21929641286974205, 0.21601249068874603, 0.21277316546723693, 0.20957651832465085, 0.20644482187438032, 0.20336685759075943, 0.2003796132088789, 0.19740645292891185, 0.1945896187977945, 0.19171902444035416, 0.18891158723398138, 0.18613019700996714, 0.1834513139186829, 0.18071431560151727, 0.17816761598866107, 0.17567250760620373, 0.17330016976959067, 0.17090094300402642, 0.16854656538604232, 0.1662624596053585, 0.16403398055966842, 0.16180237697691743, 0.15969174878640546, 0.1577879209159216, 0.15576075098823838, 0.15379395188586625, 0.1518922931587891, 0.1500417107283002, 0.14825832584952792, 0.14651959175663898, 0.14483640082869165, 0.14319155993639238, 0.14161838820424122, 0.1399697862681303, 0.1385152106631666, 0.13710364694005986, 0.13568295325992089, 0.13436484081498404, 0.13307729567767834, 0.13184218159368563, 0.1306478511901712, 0.1294965555295041, 0.12838411420477575, 0.1274662063998008, 0.1264167287596497, 0.125416751662544, 0.12433565319578892, 0.12344649290699536, 0.12266784649365076, 0.12184502552976996, 0.12106355383730259, 0.12036076049704908, 0.11965416958690148, 0.11885500656760654, 0.11824509453782342, 0.1176657857002946, 0.11711495973294693, 0.11659670850188547, 0.11622737238889248, 0.11575354534356096, 0.11531554780773917, 0.11489782638977282, 0.11452903345249499, 0.11419720712070333, 0.11388832857454526, 0.11360843505947953, 0.11334428624827034, 0.11312051248173641, 0.11273010314586705, 0.11257958094247338, 0.11244139920918071, 0.11244526071172854, 0.1123170834227354, 0.11219567159525344, 0.11211012749669708, 0.11204282772033354, 0.11187193151482809, 0.11185395965958841, 0.11202446820032254, 0.11200183417275765, 0.11199833858740293, 0.11197206845640265, 0.11200731268295308, 0.11206099089431824, 0.11211919919549528, 0.11218807666762716, 0.11218992699176875, 0.11228671667053745, 0.11246143462138548, 0.11255501660940609, 0.11265530004278576, 0.11262001967190002, 0.11274838111177429, 0.11301359734798798, 0.11311557536542362, 0.11322132431189184, 0.11328930142957844, 0.11340413930481852, 0.1135492994857973, 0.1136554167712003, 0.11375991873316575, 0.11386987838254413, 0.11396717868140648, 0.1139252887891662, 0.11403062410503599, 0.11412244315006798, 0.11433810371016873, 0.11438603335719297, 0.11429530896364225, 0.11434783728520023, 0.11438507091887928, 0.1144332461322437, 0.1144365404696956, 0.11443995208834937, 0.11441305549174219, 0.11437212101622028, 0.11437508239972721, 0.11429698775817125, 0.11420039468898602, 0.11409713661880139, 0.11397908513606421, 0.11386554515701375, 0.11371280686781197, 0.11336846431338683, 0.11320478578157515, 0.11301341464540895, 0.11285952966301716, 0.1126063842856974, 0.11228834765346112, 0.11199527369492226, 0.11167682856725382, 0.11131695542483148, 0.11094999066017636, 0.11055279060373144, 0.11013399367302773, 0.1097654860580657, 0.10928427288873054, 0.10878094934396251, 0.1082427141263446, 0.10769465047901261, 0.10711377080143697, 0.10651676458432904, 0.10589365192679367, 0.10525820681471729, 0.10458007867164114, 0.10396441031160458, 0.10322207706288059, 0.10245766816670622, 0.10161769420137795, 0.10081274969109874, 0.09999210424696249, 0.09912973090332264, 0.09823969041686485, 0.09724098855419291, 0.09630492990361143, 0.09542261610202461, 0.09441008007081224, 0.09337031678211308, 0.0923211713740765, 0.09122378606781681, 0.08992595376242787, 0.08879623996944304, 0.08762925990333315, 0.08658153106281193, 0.0853238635389525, 0.08387347794618329, 0.08258600017596592, 0.08126313644825235, 0.08006734872290737, 0.07865648527271143, 0.07706290861990127, 0.07562496778923122, 0.07415380656118127, 0.07284198967562039, 0.07128289574523039, 0.06968171789001962, 0.06808480372073179, 0.06646521162179851, 0.0648245535886332, 0.06315822265794402, 0.06130094794890881, 0.05960855202651838, 0.057882939337961146, 0.05612943779591771, 0.05434065194096892, 0.0526797687701812, 0.05081319254895755, 0.04892786604614076, 0.04701124320266133, 0.04508871378591726, 0.04314571014473026, 0.041182155936208095, 0.03919803773638106, 0.03720751927998395, 0.035180672841209876, 0.03308391315830776, 0.03102454509799082, 0.02894306380978335, 0.026706923345852777, 0.024599786082973446, 0.022525301288181365, 0.020356424702892506, 0.01816620973433107, 0.016070513049905432, 0.013825680968922636, 0.011417180444697098, 0.00916652155560169, 0.006894702153364771, 0.004725948327284542, 0.002399715915858818, 0.0