0.0490260724065858, 0.04845698736467718, 0.04794730883181611, 0.047398368399678946, 0.04686219177153881, 0.04633340328012547, 0.04581781122565667, 0.04526441132387906, 0.04476870917491025, 0.044275944546552655, 0.04377165760149916, 0.04328522155883653, 0.04285925893050058, 0.04236724280528403, 0.04187943250309254, 0.041395346342468435, 0.040914600719354384, 0.040345968306763805, 0.039882584927423324, 0.03941676502523235, 0.03900509872169684, 0.038529189286707975, 0.038066254670093426, 0.0375940513626434, 0.03712507451126304, 0.03666633955540904, 0.03620301834309575, 0.03579940593981916, 0.035336541357575746, 0.034880647080122555, 0.03430194122136214, 0.03387527572988543, 0.033531314937299654, 0.033092423636134335, 0.0326586290840399, 0.03220547079256332, 0.03178504381243856, 0.03143140101833947, 0.03101094057495551, 0.030598353662142384, 0.03009544361612127, 0.029710219683928275, 0.029274243359137177, 0.028899716501474874, 0.028525189318455855, 0.02815860767752592, 0.02778594464935801, 0.027444202356926357, 0.02707449662684041, 0.026710454016543, 0.02629287259984498, 0.025948401903637824, 0.02559993708940236, 0.025263005003652292, 0.024929908029357403, 0.024657162445886796, 0.02432626831771181, 0.024010819517166982, 0.02369586417706381, 0.023389602629423155, 0.023067433640733322, 0.02278130955478707, 0.022547653908179074, 0.022269907705055263, 0.022001944842214363, 0.021715521192622062, 0.02146990369511457, 0.021287770723467554, 0.02105019826405546, 0.020823426075862208, 0.020649042174315766, 0.020437483941181063, 0.020115707495317964, 0.019943445287577927, 0.019775474469919934, 0.019692823840853246, 0.019524984986219088, 0.019259155025703592, 0.019125676456115955, 0.019076620560480723, 0.018941691253732972, 0.018816687460611305, 0.018719057692914116, 0.018611599052455182, 0.018378593549776147, 0.018309949911829902, 0.01824427624338977, 0.01823156203342085, 0.018168607321605804, 0.018152597931620124, 0.018102058579641762, 0.01806277908553149, 0.018066192359541974, 0.018045335747912193, 0.01801992412287728, 0.018026877859260014, 0.018045294738490137, 0.018110101709833466, 0.018146900082838816, 0.018092111622085478, 0.018168555255582527, 0.018251917432861166, 0.018395301628799265, 0.01848773110779248, 0.018577766772499685, 0.018695191340808354, 0.018823498284954037, 0.018934858881375395, 0.019088903867547774, 0.019249173307688976, 0.019423440822848886, 0.01960786868746225, 0.01978176386668484, 0.019990002431648144, 0.020281436147707367, 0.020500254217753398, 0.02073362314387933, 0.021016198373856335, 0.021273329063167364, 0.021500656937892833, 0.021794357063828453, 0.022100221239272976, 0.022393744954027756, 0.022726965920204185, 0.02307091617633546, 0.023425776741725492, 0.023791705308077973, 0.024179329961306596, 0.024566456498744244, 0.024962092799397137, 0.025373672187820107, 0.025797050097225764, 0.02618327820005497, 0.02663647722776054, 0.027154700268919352, 0.02761934094241876, 0.028096898195313344, 0.028636160176693282, 0.029132846889082856, 0.029571259610346755, 0.030107029249043574, 0.03065281726825433, 0.031187792200827028, 0.03175669808577281, 0.03240126545489727, 0.03298043508362903, 0.03357298361614702, 0.03409809590150135, 0.034726471709030184, 0.035390646234281134, 0.03603147472332956, 0.036682333907130146, 0.03735023007143605, 0.03802028007635226, 0.038777667645755874, 0.039458680478980566, 0.04015419464512398, 0.0408075155850586, 0.04153696402797599, 0.0421988203274671, 0.04295659335145854, 0.04371918842117544, 0.044518585773241255, 0.04528827533319997, 0.04607631674542292, 0.046860423635376576, 0.047652996567519076, 0.04848539229033051, 0.049290545535512535, 0.0500111033050926, 0.05084744649292238, 0.051687515586886515, 0.05260163999871369, 0.05344138824598029, 0.05436315372995367, 0.05521037180139407, 0.05606951499341706, 0.05693263127468376, 0.05781372091325647, 0.058672239115713905, 0.05957444449908587, 0.06048249690431449, 0.061417064027563036, 0.06233322123846983, 0.06323450635491852, 0.06416508781504855, 0.06509972713602744, 0.0659787400308809, 0.06692832348135257, 0.06790591908136831, 0.0688522810587566, 0.06980068411323156, 0.07077551805114433, 0.07172461162410836, 0.07262781895663145, 0.07358890591890353, 0.07454962904215871, 0.07556949974896346, 0.07652210580861965, 0.07747772976880456, 0.07843583245557664, 0.07939590180056012, 0.08035045557660475, 0.08131390185275265, 0.08219708493195703, 0.08317067925734174, 0.08413919790212147, 0.08507495200052542, 0.0860376515489146, 0.08707479681770487, 0.08801565358338492, 0.08895557485975861, 0.08980313964982767, 0.09075122743770538, 0.09183523236564206, 0.09275052207659722, 0.09366686116478602, 0.09455174767211923, 0.09547116596008155, 0.09639401371100635, 0.09730486087630674, 0.09821145072779776, 0.09912371636482374, 0.10001881887348298, 0.10083172368535688, 0.10172548012527197, 0.10260857304790102, 0.1034951115039808, 0.10435541774896269, 0.10528999464301798, 0.1061202297273283, 0.10694523044149853, 0.10765923141281553, 0.10848455682487107, 0.10932089360622749, 0.1101163602258835, 0.11090002733791694, 0.1116542812558404, 0.1124161578058709, 0.11318929218296205, 0.11392158342171524, 0.11464190658957836, 0.11525203594054485, 0.11595989994341863, 0.11672283706348457, 0.1173851576279207, 0.11803409911941698, 0.11870434322501426, 0.1193212255970389, 0.11984186880948766, 0.12044417316874151, 0.12102832996706996, 0.12158050530668191, 0.12213054649201534, 0.1227668807405706, 0.12326652361922606, 0.12375361663564156, 0.12412591656470663, 0.12459833393908734, 0.12513067106462872, 0.12555205224186514, 0.12595772028479285, 0.12627016218781836, 0.12665245569021943, 0.12705858338288953, 0.1273920239120366, 0.12770665466221673, 0.12803365850707168, 0.1283058215246601, 0.1284341899744728, 0.12868597350979935, 0.128911809058668, 0.12921369323695714, 0.12937644217727923, 0.12949941234364212, 0.129626739925626, 0.129733162439173, 0.12989537621872824, 0.12994953831546804, 0.12991646813916344, 0.12994407348128145, 0.12994889806676982, 0.12992734627554248, 0.1298867600140875, 0.1298683774711907, 0.12977546125031642, 0.1296302429191204, 0.12949923226934126, 0.1293448331864272, 0.12926489305868438, 0.12905111262875354, 0.12878426108747104, 0.1285378687609593, 0.12826984620039353, 0.12794136882817397, 0.1276339400622512, 0.1273158017602708, 0.1269573053967133, 0.12657509383496549, 0.12626358313921254, 0.12582198347578905, 0.12532001186496833, 0.12484618334989962, 0.1243502484650248, 0.12374808532010055, 0.12321803630547969, 0.12275866710776129, 0.12216235811050377, 0.12154547224372302, 0.12087626250662159, 0.1202214460097341, 0.11968702826519302, 0.11896823790947961, 0.11823479200943693, 0.11742624499888965, 0.11666818479433645, 0.1159840314235939, 0.11517289510180609, 0.11434640035194055, 0.11344084380499249, 0.1125894742899702, 0.11174883389112485, 0.11085211920945393, 0.10993671774105401, 0.1090410457592616, 0.10808330506851536, 0.10705659074894525, 0.10607225548252988, 0.1050681443715607, 0.10416703982024664, 0.1031090428850935, 0.10207428018874078, 0.10098781106910425, 0.09989055171929026, 0.09875391874313907, 0.09763694246587953, 0.09657964250811416, 0.09542584645363494, 0.09426248031944308, 0.09318002467435176, 0.09198480494700188, 0.09077016347531719, 0.08956502423233781, 0.08835220634189173, 0.08714184280749533, 0.08591139919311268, 0.08465219528488047, 0.08340877095351913, 0.08215633579999498, 0.08097911175224808, 0.07969896350982981, 0.07842254699899674, 0.0771347639806175, 0.07584378634102053, 0.07464749439292245, 0.07333771901168516, 0.07203041820082737, 0.07072504479359276, 0.06942122324425762, 0.06809774736891878, 0.0667991522350305, 0.06557410227709663, 0.06426673623231269, 0.06296429173413237, 0.061691111148655255, 0.060395128101543356, 0.05900397767741612, 0.05773333935253453, 0.05646340130304107, 0.05529662733328353, 0.05401837923849258, 0.052809065432871005, 0.0515424478306991, 0.0502891097505571, 0.04908389881791141, 0.04785244888923436, 0.04659776282567758, 0.045401580698177096, 0.04421846790351574, 0.0430978650287415, 0.041936193957939454, 0.04071150600649768, 0.03959508720104502, 0.03849214043314098, 0.03755759625376684, 0.036465270668241075, 0.035261765206749715, 0.03423688723512591, 0.03322925169256975, 0.032330919108977264, 0.031349636797668556, 0.030355544065885802, 0.02943077025019581, 0.028530213303007097, 0.027724579548312433, 0.02686590661823043, 0.025974743535550897, 0.025185184428769183, 0.024423092693782237, 0.02372082480879399, 0.023012326658858516, 0.022332195674589585, 0.021688482975431533, 0.021077692230148173, 0.020566961506049128, 0.020015695277179172, 0.019517178954150977, 0.019041857607793998, 0.01860654093703825, 0.01814849720907345, 0.017801880929257403, 0.01747861398761763, 0.01720936038015072, 0.01697847944860793, 0.016825442015998913, 0.01666941486386642, 0.0164868895813436, 0.016427211110017843, 0.01640828532580335, 0.016529230933486412, 0.01658294928400841, 0.01663385764808783, 0.01679374349603948, 0.01700085399809477, 0.0172979052034197, 0.017596388739340666, 0.017873208979336107, 0.018284905496107066, 0.018745020290435933, 0.019355982197187267, 0.019903076673216454, 0.020426706431366605, 0.021097959945885883, 0.021821813732612053, 0.02257108592427376, 0.023406031651145784, 0.024346750871966027, 0.025282610439108517, 0.026276507667235702, 0.02732183266412517, 0.028433845718965935, 0.02954870514797888, 0.03078584174379046, 0.03207951490926339, 0.033535515353534606, 0.03493154342791615, 0.0363994106482931, 0.03792408689761579, 0.039513739367501854, 0.041115793402484974, 0.042841732858051595, 0.044566541172121915, 0.04642450869365629, 0.04834159553192109, 0.05040961875327997, 0.05243602247015851, 0.054578021681549, 0.05673141949627941, 0.05895405858770241, 0.06121403069651653, 0.0635778992456097, 0.066018622637146, 0.06851388083596135, 0.07107608231072716, 0.07365618884405706, 0.07635825475654502, 0.0791068422729681, 0.08193948596709344, 0.08483581262852241, 0.08778223622465524, 0.09080884846467277, 0.09393436836944898, 0.09708477690873403, 0.10030171765847455, 0.10364459043192496, 0.10698689436998157, 0.11030091745714893, 0.11379429653962653, 0.11735067424295134, 0.12097381200551355, 0.12465646675434353, 0.12851481651430635, 0.13231092230402774, 0.13617711494777224, 0.14004248461519672, 0.14405486869398956, 0.14802928681372113, 0.15218117465909398, 0.156393831630011, 0.16066034783205416, 0.16498525729687805, 0.16952619119601062, 0.17394864016124195, 0.17831985681382323, 0.1828913906778704, 0.18752139842347063, 0.19223765409985236, 0.19698039878217577, 0.2018033824891934, 0.20666138753980912, 0.21157861149172463, 0.21648779968850115, 0.22152944725493984, 0.22673958113723905, 0.23187251441986045, 0.23706438698391433, 0.24226140703739119, 0.2475738509180716, 0.25295594194153137, 0.25836973421199344, 0.26383512988355273, 0.2693337099703752, 0.274901728262258, 0.28046511603684937, 0.2861346343258175, 0.29184743451634854, 0.2976555656979221, 0.30344699280200826, 0.3092482298145114, 0.31513261193284137, 0.3210577435584097, 0.3270613328528372, 0.33306077147806534, 0.33911120339266976, 0.3451891318371277, 0.35130578309233945, 0.3573654678803096, 0.36356773085491795, 0.3698241477725983, 0.37608218834788243, 0.38237024227396066, 0.38862801682920367, 0.3949810497720365, 0.40151547827199696, 0.40789614821471115, 0.41430857519378705, 0.4206668761246554, 0.42714766394636955, 0.43369884086890126, 0.4402152267835986, 0.4467536299705063, 0.4532600787393407, 0.45984463827400385, 0.4664927692707402, 0.47309933246270985, 0.47972116984304464, 0.48633581294498446, 0.49298641748309907, 0.4995942609532266, 0.5062696310376837, 0.5129492185218242, 0.5196881220265709, 0.5263664347832675, 0.532958427521368, 0.539655987165621, 0.5463501245395014, 0.5530925816189957, 0.5597710072325187, 0.5664325767433546, 0.5731056779474648, 0.5797724016286887, 0.58649444046674, 0.5931366548395597, 0.5996497902184317, 0.6062923229548824, 0.6129177394824449, 0.6195637794659707, 0.6261478279155659, 0.6326865189982307, 0.6392380939021642, 0.6457681952154055, 0.6522862535379526, 0.6587688567366992, 0.665174815427114, 0.6716144297337622, 0.6780243947332778, 0.6844388238129988, 0.6907824263540088, 0.6970501174598815, 0.7033372687555745, 0.7095888010301042, 0.7158492261343613, 0.7220208646803457, 0.7280585150674439, 0.7341689653327312, 0.7402349859695323, 0.7462139841017326, 0.7521944945798654, 0.7581715742367254, 0.764048040089151, 0.7698770566663344, 0.7756016163372381, 0.781339628917768, 0.7870308140100868, 0.7926596267645932, 0.7982335977816336, 0.8038078267757772, 0.8092624230754505, 0.8145646956501447, 0.819921456210511, 0.8252155147540245, 0.83041132786561, 0.8355826264278264, 0.8407258281851991, 0.8457586653387348, 0.850726092652865, 0.8556376886544591, 0.8604702121143931, 0.8652526139118364, 0.8699466750009927, 0.8745720463520974, 0.8790331416046921, 0.8835296250988119, 0.8879732117553759, 0.8923115323297217, 0.8965731615443657, 0.9007609693194462, 0.9048668694678236, 0.9088978291231423, 0.9128457057038214, 0.9167139254474167, 0.9204527881029428, 0.9241656776874002, 0.9278394360087416, 0.9313770670915505, 0.9348319835068165, 0.9381125083919413, 0.9414112746788214, 0.94467950553976, 0.9477908294052758, 0.9508155433637105, 0.9537181292400275, 0.9565724220246405, 0.9592840848740929, 0.9619644473301813, 0.9645512322057767, 0.9670970674576176, 0.9694905084025541, 0.9717237013838258, 0.9739449735455015, 0.976071216406529, 0.9780921253183894, 0.9800301477797052, 0.9819673990435854, 0.9837032302715444, 0.9853494149865457, 0.986901773972716, 0.988367132479907, 0.9896708638854023, 0.9909612518274697, 0.9921551852738881, 0.9932668750156418, 0.9942667780770788, 0.9951191694437431, 0.9959356718347303, 0.9966543279989184, 0.9972931365908999, 0.997815386158457, 0.9982142169522714, 0.9985493961144347, 0.9987881062695494, 0.998993792505366, 0.9990330605579177, 0.9989703114873892, 0.9988277842730369, 0.9985930529071844, 0.9982487471924796, 0.9978322058192381, 0.9973124498729475, 0.9967121586744467, 0.9960193118228663, 0.995349811055363, 0.9944587414998052, 0.993430635705035, 0.9923766427586956, 0.9912344520685535, 0.9900358064194758, 0.9887140990875556, 0.9871740327258002, 0.9856983822518409, 0.9841302423074503, 0.9824395317122339, 0.9806945105001168, 0.9788837083452742, 0.9769565399991699, 0.974943352584769, 0.9729082310737184, 0.9707184124427215, 0.9683969523274562, 0.9660559446858287, 0.9636339379710923, 0.9610865150309683, 0.9585113890347865, 0.9558977869180054, 0.9531578492428053, 0.9503425376241593, 0.9474528036508676, 0.9444896035276616, 0.9415168513381156, 0.9384016545331934, 0.9351459925371984, 0.9319065211961148, 0.9285969450119737, 0.9251485314068734, 0.9217112193921452, 0.9182034872637899, 0.9146270843235821, 0.9109836851863348, 0.9073518392712923, 0.9035694869606999, 0.8997605906667987, 0.8958590557753906, 0.8919029794201254, 0.887847554846079, 0.8837901843991323, 0.8797373414076055, 0.8755638053283765, 0.8713410958812824, 0.8669545415696254, 0.8626503626308081, 0.8584118520776969, 0.8539880055157727, 0.849521221686272, 0.8449737982177449, 0.840428374331319, 0.8358193668696948, 0.8311926546234761, 0.8265246915892369, 0.8217784542357024, 0.8170371819665827, 0.8123372424597621, 0.807509310883465, 0.8026501844229007, 0.7977398637569064, 0.7928239954402493, 0.7878333622573954, 0.7828659069484489, 0.7778691368544973, 0.7728691781321971, 0.7678155785844265, 0.7626829009223519, 0.7575914733213865, 0.752476456033977, 0.7473361278325156, 0.7421796394146406, 0.7370394852789436, 0.7318429308034822, 0.7266329167151283, 0.721442174624239, 0.7162050219590335, 0.7109144577021772, 0.7056681429369042, 0.7004133198679164, 0.695081436686664, 0.6898225975414922, 0.6845799108804352, 0.679303200598048, 0.6740232070030739, 0.6687869046415288, 0.6634990726437294, 0.6581379455502614, 0.6528681345625407, 0.647599658890564, 0.6424390667570489, 0.6371648088851023, 0.6317975272127072, 0.6265609092821928, 0.6213315128435096, 0.6161912932540199, 0.6109706540986415, 0.6056996584298708, 0.6005202919494048, 0.5953546893072594, 0.5902006262320921, 0.5850667673186701, 0.5799711464105265, 0.5748703173660252, 0.569790229695376, 0.5647702829035005, 0.5597295874227282, 0.5547075442091057, 0.5497196064342715, 0.5447581072360993, 0.5397153120169484, 0.5348224546687754, 0.5300219726683392, 0.5251667068703113, 0.5203408451884016, 0.5155906665521252, 0.5108202875543921, 0.5059828280089514, 0.5012943485592402, 0.4966353315278988, 0.49210146225514007, 0.4874931224488506, 0.48288810495025947, 0.4783610487764153, 0.4738708962133231, 0.46942524789446866, 0.4650098220951872, 0.460615981228525, 0.45628141570161423, 0.4519859446646362, 0.4477861545417486, 0.44356365826059735, 0.43925930027833826, 0.4351409052890777, 0.4310597145599247, 0.427100830125527, 0.42308683031094635, 0.4190724742839033, 0.41515464265869917, 0.41127977394599236, 0.4074169611364914, 0.40363365703609466, 0.39990360849264867, 0.396205193050366, 0.39255143516162516, 0.38901274842747063, 0.3854408138986727, 0.38180680393305133, 0.3783484616453261, 0.37493323589493144, 0.37163179094059123, 0.368296017812746, 0.3649252405854881, 0.3616978479071371, 0.35851448513766704, 0.35547365375140977, 0.3523676130529995, 0.3492041589327704, 0.3462133834587462, 0.3432666587762904, 0.34039244262213547, 0.3375316344487334, 0.33474911227615434, 0.3319779644691034, 0.32925539536897885, 0.3266020836972535, 0.32397310291868464, 0.32134050112400675, 0.3188153529837174, 0.3163351623674623, 0.3139278854658457, 0.31153396618053925, 0.3092143713651126, 0.3069092500935671, 0.3046513289401437, 0.3023770678485631, 0.300219764495903, 0.29808694332490937, 0.2960157664440016, 0.2939854844539657, 0.29203459299699663, 0.29008125343476465, 0.28813939582150583, 0.28627550495079424, 0.2844519049974767, 0.2826613932357048, 0.2809185965312901, 0.2791694957809333, 0.2775105103513839, 0.27588757839244565, 0.27434270200554595, 0.2727865969433226, 0.2712792723864185, 0.2697979053383291, 0.2683543753204585, 0.26699352151328093, 0.26561803753988517, 0.2641831341910686, 0.2628960454812794, 0.2616400161452356, 0.2604114214584938, 0.25921750808772537, 0.258057390482873, 0.25692336127583165, 0.2558192355673523, 0.2547935818167289, 0.2537418536353446, 0.2526620334039608, 0.2516796594203057, 0.25072355793055384, 0.24985631326342458, 0.24894365490148496, 0.2480316043258939, 0.2471786737166863, 0.24635082846154194, 0.24552639225397863, 0.24474929405795914, 0.244025503886036, 0.24328756904242424, 0.2425721707032963, 0.24179805948107094, 0.24113548690430647, 0.2405619931488569, 0.23992128492369755, 0.2393140154948274, 0.23870959977589262, 0.23812376259908008, 0.23752761300889405, 0.23697976412535107, 0.23642179563828267, 0.2359051634854274, 0.23540031165924277, 0.23487535252737826, 0.23439677887571153, 0.23401084210345424, 0.23353882899473344, 0.23307971957675294, 0.23262901978089703, 0.23219321505245116, 0.2316868218085919, 0.23128004373690939, 0.23087694661771374, 0.2304738976918791, 0.23007814521465708, 0.22982870766386085, 0.22942042677532198, 0.22902258120185565, 0.22853577076373305, 0.22816686367337127, 0.2277393438409052, 0.2273792577495445, 0.2270159051209848, 0.22667034487425505, 0.22629796281965978, 0.22590603282567645, 0.22553146191031564, 0.22515326711711312, 0.22482721879475182, 0.2244341042042294, 0.22396639638634602, 0.22357953506527883, 0.2231859674002171, 0.22283807222055463, 0.22242417200528836, 0.22197816097928735, 0.22155891457966698, 0.22113275103402874, 0.22067833856728858, 0.22023994428981855, 0.21975392531087742, 0.21930189524849175, 0.21883814756032288, 0.21841522017725995, 0.21792158605673254, 0.21747172067119594, 0.21695358941309453, 0.21642876489212315, 0.21593135299777452, 0.21538618925535183, 0.2148339010666389, 0.21427353817691785, 0.21370424207506244, 0.21316720639237946, 0.2125724928117865, 0.21186768322407312, 0.21126754770213393, 0.21065135237050017, 0.21008915471262832, 0.20943231258863138, 0.20867968538575712, 0.20800926086293367, 0.2073213430052304, 0.20672813679924543, 0.20599192064714325, 0.20518581130089372, 0.20443553450539304, 0.20367017001037982, 0.20283370688740257, 0.20204509393260256, 0.20119616329343132, 0.2003765906517533, 0.1995371357150863, 0.19868897677323785, 0.1978104123145886, 0.19694586529489266, 0.19602879833162754, 0.1950967833903552, 0.1941673654408564, 0.19320341662981994, 0.1921976928621984, 0.19120960420638736, 0.19020599911457198, 0.18915907707546625, 0.18812850044727417, 0.18716527839490815, 0.1860913062260593, 0.1850061897068498, 0.1838955845328788, 0.18278894306936935, 0.18157855252553332, 0.18045769392389596, 0.17931879355736188, 0.17823251556272, 0.17705077921460624, 0.1759268467854089, 0.17471197148124162, 0.17348888540738594, 0.1722011113052842, 0.17096721163217923, 0.16971367804638732, 0.16845557042768042, 0.16718481838141344, 0.16591917977624543, 0.1646217478587314, 0.16329949542414868, 0.16198231794435752, 0.16065384332482324, 0.15933885718162738, 0.15798561153671825, 0.15653244134798805, 0.15517282617907924, 0.15379938652211844, 0.15245499751532407, 0.15105125746009004, 0.1496525644641447, 0.14822955897912846, 0.14679916483319172, 0.14540361219786657, 0.1439539308301174, 0.14235664021658304, 0.14091660011243948, 0.13946424250948508, 0.13807070918837935, 0.13658835628189953, 0.135041444458604, 0.13355675286174165, 0.13206432062504891, 0.13060693583147193, 0.1290961136916121, 0.12750524276571673, 0.12599824467309226, 0.12448443989777436, 0.12309065475899109, 0.12155000818547719, 0.11998768096103926, 0.11845542987254437, 0.11692407297191872, 0.11534117911494442, 0.11381836221287979, 0.11234263985334632, 0.11081043773363684, 0.10928017072500672, 0.10776942146079452, 0.10624112892826179, 0.1047231142717387, 0.10320053317594384, 0.10168172403128238, 0.10004782232294249, 0.09855176066492251, 0.09714396627060055, 0.09563218035300605, 0.09412493895458522, 0.09260494624978617, 0.09110959129167885, 0.08968136442458861, 0.08818677229199526, 0.0867006206815644, 0.08521576356802676, 0.0837469790926281, 0.08229644222689425, 0.08084189804732302, 0.0793958422149851, 0.07784989069653031, 0.07643465277047952, 0.07513393222277251, 0.07371074836601382, 0.07229835913258181, 0.07081975980721443, 0.06943853731594855, 0.068084701287589, 0.06671429366607008, 0.06535274278232531, 0.06400044824770688, 0.06265778872294225, 0.06128315527412906, 0.05996612969980229, 0.05865740475935584, 0.057333141644624636, 0.056045982352838135, 0.05488991364587001, 0.05360532670874705, 0.05233758532460771, 0.05112472578755916, 0.049884575091289976, 0.04862384788282437, 0.04742378487095595, 0.04623841430653968, 0.045018681875238525, 0.04386864140853826, 0.042677896972804705, 0.04155838158913833, 0.04044840969801557, 0.039457143085895416, 0.03835470741142152, 0.03715099868635266, 0.0360985272903385, 0.03504938879091207, 0.03401916186966503, 0.033000199113669894, 0.03212250786761336, 0.031111458899195588, 0.030033109195410985, 0.029072744194163832, 0.028126408110415824, 0.027250265747564048, 0.026325508312310127, 0.025313543746997583, 0.02443715810729786, 0.023571993476204672, 0.022806071679926286, 0.02195398365160554, 0.02105311568081255, 0.02024444111083627, 0.019449082807181103, 0.018782714864537555, 0.018000142303643555, 0.017269503034727473, 0.016523084668096384, 0.015797411903162053, 0.014990187763227702, 0.014316304079287998, 0.013725082647477073, 0.013067995277213928, 0.012427936023080326, 0.011794001664393629, 0.011188135502765064, 0.010657056644811692, 0.010074130513640178, 0.009509477030934703, 0.008916982511764884, 0.008392751234623637, 0.007924477723720657, 0.007422836426150144, 0.006937379864995849, 0.0065551321529818, 0.006089810145977969, 0.0056619729815778124, 0.0052334479908052725, 0.00482404438318661, 0.004478323527252693, 0.004098815770680616, 0.003738595842778691, 0.003396697525510435, 0.0030722794659652644, 0.0028380553053235593, 0.002537221142505737, 0.002245593666211728, 0.0019844280851991393, 0.0017404035431485933, 0.0015303035962149331, 0.001316342708861701, 0.0011501638988155728, 0.0009642626195108075, 0.0007953744682441227, 0.0006708148921918633, 0.0005305245907418026, 0.00044558226299165295, 0.0003335564380893166, 0.00023940903989259506, 0.00014489619532108037, 8.655634139773063e-05, 4.3163595780164955e-05, 1.4398402912337171e-05, 0.0, 0.00012566204496731407, 0.00012349389217688897, 8.629954142821999e-05, 0.00013196166186772948, 0.0001933544892099112, 0.0003330626797252718, 0.00041692231965742923, 0.0005401177354101225, 0.0006573287778087358, 0.0007927773600988888, 0.001036726862156436, 0.0011952582028490492, 0.0013439571435520607, 0.0015486379557810071, 0.0017711249533953052, 0.0020108632614549817, 0.002267396425108101, 0.002550846889254742, 0.002838611319553943, 0.00314287144630028, 0.0035018467326793945, 0.0038335431801635247, 0.004155341057171967, 0.0045263381199744015, 0.004913130677121476, 0.005441599697417416, 0.005844031785443054, 0.0062308862564075, 0.006683023378696913, 0.0071541522048758684, 0.007685884248933402, 0.008188701032501036, 0.008663063319019369, 0.00921260523336731, 0.009779041149460979, 0.010355471067786807, 0.010956890476081067, 0.011676595137236618, 0.01229913889533204, 0.0129446910736778, 0.01359868722254463, 0.014290407105581432, 0.014995941849891364, 0.015729992475141976, 0.016484177586474937, 0.017282980471866317, 0.0180743878873809, 0.018869945482691018, 0.01970675503170954, 0.020564108318369963, 0.021498120642446408, 0.02238998554078905, 0.023271106114990368, 0.024215622847901404, 0.025182021812315002, 0.02620546504636262, 0.02721179549045916, 0.028218120172348288, 0.02927646285998775, 0.030357888420848994, 0.03152560454398424, 0.03264601936809757, 0.03369593563955749, 0.03488337239532555, 0.03609238761774916, 0.03734817340419546, 0.03859934244911087, 0.039847499817269406, 0.04115254206933462, 0.04248177787266481, 0.043888279935771705, 0.045261074763811034, 0.04657181634314677, 0.048013959033931415, 0.04948009577758156, 0.05100957444085311, 0.05252139773593581, 0.05409327971950394, 0.0556586676397773, 0.05725514927039488, 0.058886323306155994, 0.0605448756093539, 0.062147651031878026, 0.06388070101680211, 0.06564078097000846, 0.06749171213613941, 0.06930042953465655, 0.07119806709687701, 0.07306580432373883, 0.07496999257918772, 0.07688938664762666, 0.07886841059264019, 0.08089610044152235, 0.08294279158241007, 0.08502513609891842, 0.08717113251052137, 0.08932134111861778, 0.09146346885308596, 0.09369408250688088, 0.09595935692447073, 0.0982736327629228, 0.10060750950873404, 0.10292191477092184, 0.10533606083386714, 0.10778400599120533, 0.11025244717894518, 0.11277176601513159, 0.11533300040573838, 0.11792193118540813, 0.12054742936721305, 0.12322047952372904, 0.12591922426201319, 0.12867747135716642, 0.1314508984563135, 0.1342645981268993, 0.13711866024635747, 0.14001317741723243, 0.142986714488109, 0.14595756182157604, 0.14897130845905937, 0.15201724801797567, 0.1551175133471488, 0.15822457862381878, 0.16141277897055678, 0.16464073712298982, 0.16790522835453806, 0.17121393575484906, 0.17457693397178156, 0.17796470104858414, 0.18139397898172044, 0.18492078618644484, 0.18842618521700477, 0.1919833848520472, 0.19557709326660735, 0.19921520930201392, 0.2028868518875514, 0.20661398388406907, 0.21037689175788696, 0.21419025284140858, 0.21795818206809447, 0.2218664875324183, 0.2258116643992678, 0.2298082941250792, 0.23382713236178165, 0.23793410511819515, 0.24202532899144014, 0.24615888071352543, 0.25040443680839913, 0.2546129918750827, 0.25877606156910465, 0.2630861690374687, 0.26743501626236016, 0.27183311667269705, 0.2762581417698393, 0.2807259407979063, 0.2852289018637683, 0.2897709626580749, 0.29437635592129274, 0.2989927574394067, 0.3036383414942126, 0.30833492006817365, 0.3130695945461892, 0.3178034924988895, 0.32261800936512913, 0.3275057041269263, 0.33238465410539264, 0.33730018722313787, 0.34224478922542323, 0.34723281062798145, 0.35224146293969105, 0.3573000164205192, 0.3623914375316219, 0.367536318676531, 0.3726896199969586, 0.37785472714001256, 0.38307562218267077, 0.388326848619435, 0.3936429024600307, 0.3989489127130207, 0.4042262554837216, 0.40960052468325636, 0.4150005923938123, 0.42048208375640234, 0.42592562637711223, 0.43131302610365224, 0.4368218412187772, 0.4423519020855093, 0.44795894133818104, 0.45352367157866524, 0.45903146078419155, 0.46465247719239666, 0.4702907176340739, 0.47600190303767226, 0.4816667251489673, 0.48738593469113395, 0.4930842499951214, 0.49880210853442314, 0.5045348050420431, 0.5102885969469795, 0.5159777560718181, 0.5217722251485197, 0.5275757928380695, 0.5334160091647298, 0.5392328823285959, 0.5450554412018773, 0.5508902804153955, 0.5567323977269135, 0.5625424619447329, 0.5684013931406544, 0.5742697852299685, 0.5801321462353808, 0.5859960722913269, 0.5917908335601938, 0.5976643425453184, 0.6036099642760503, 0.6094637578572706, 0.6153162802525145, 0.6211663934461512, 0.6270129557345216, 0.632798865391208, 0.6386419643249522, 0.6444749309723601, 0.6502411074109615, 0.6560587247409846, 0.6619237529692421, 0.6677019242544515, 0.6734671809946918, 0.679155477362475, 0.6848995670885969, 0.6907148149062597, 0.6964072380065736, 0.7020836702074406, 0.7076551882784646, 0.7133062568322209, 0.7189250631320612, 0.7245257898922067, 0.7300994153970405, 0.7355857386512179, 0.7411103851004487, 0.746686134123195, 0.7521340905237753, 0.7575530059760933, 0.7628401917841053, 0.7682100572869027, 0.7735903778663853, 0.7788766134805524, 0.7841261495413271, 0.7893379965126149, 0.7945111426924135, 0.7995676171159137, 0.804669984707287, 0.8097262014044754, 0.8147323223631633, 0.8196952537367634, 0.8246172504511385, 0.8294827988658453, 0.8342994711539233, 0.8390629629474643, 0.8437798667784292, 0.8484241873653203, 0.8530396721147088, 0.8576006082679096, 0.8620572841076328, 0.8665130291352215, 0.8708846445447703, 0.875223739438453, 0.8795008453434059, 0.8837260727708821, 0.8878766537057495, 0.8919749638492803, 0.8959980280924281, 0.8999575512705918, 0.9038352287815503, 0.907667411949172, 0.9114080975913141, 0.9151086345039285, 0.9187393430721389, 0.9222821889917127, 0.9257737732804501, 0.9292382702057796, 0.9325785068864852, 0.9358477192471087, 0.9389995191147418, 0.9421296847072014, 0.9451416062202925, 0.9481240380933915, 0.9510268429475304, 0.9538848074917111, 0.956623324114894, 0.9593324288339337, 0.9619074038325413, 0.9644055522934034, 0.9667699333326674, 0.9691186107466416, 0.9713110990263587, 0.9735032047681303, 0.9756077049295782, 0.977715746505338, 0.9796341172285095, 0.9814809223814873, 0.9832331509681891, 0.9849025559700166, 0.9864289891604121, 0.9879382363658912, 0.9893524061158807, 0.9906863105560503, 0.9919316045362301, 0.9930847651076099, 0.9941531917123497, 0.9950627569062589, 0.9959621750419686, 0.9967687034076179, 0.9975563187940882, 0.998169312728251, 0.9986319905277004, 0.9990779796643704, 0.9994326314106218, 0.9996997749128815, 0.9998722729714853, 1.0, 0.9999865024233507, 0.9998857586245804, 0.9996941116159797, 0.9994188802353409, 0.9990278729176636, 0.9985805747235008, 0.998043925170981, 0.997390230939266, 0.996679277722599, 0.9958642891823107, 0.9949755464072595, 0.993997023625209, 0.9929608142050671, 0.9918005820451485, 0.9904666939680977, 0.9891453816233896, 0.9877335835121857, 0.9863582610708567, 0.9847526829964145, 0.9830107193226438, 0.9812512391253437, 0.9794080357666521, 0.9774816050931985, 0.9754724622406472, 0.9735350243568242, 0.9713426280063934, 0.9689064571588417, 0.9665902786644247, 0.9641909772104917, 0.9617061308010637, 0.9591442269925597, 0.9564951654850637, 0.9537748610945955, 0.9509760662109917, 0.9480893551409579, 0.9451380866937293, 0.9421913257912531, 0.9390791330458838, 0.9358977203360737, 0.932734948365846, 0.9294053937868587, 0.9259430663111969, 0.9224966209039858, 0.9189834033992663, 0.9153412159774336, 0.9117047239778775, 0.9080492933877239, 0.9042722038921169, 0.9004327270756541, 0.8965563000284024, 0.8925918514455708, 0.8885203841393711, 0.8844468577724914, 0.8803142643917163, 0.8760225127619887, 0.8717885928642432, 0.8675708228946906, 0.8632077167477957, 0.8587922791795018, 0.8543153220044729, 0.8498004505960631, 0.8452330479791307, 0.8406219171507721, 0.8359642734987399, 0.8313454191365984, 0.8265882230513941, 0.8217548142765985, 0.816927654026259, 0.8120619804022666, 0.8071728923423207, 0.8022317765663148, 0.7971619048609184, 0.7921651350027622, 0.7871308966856414, 0.7820995439775745, 0.7769910874783105, 0.7718597695157752, 0.7666921059388971, 0.7614977461905272, 0.7563024828375993, 0.7510555673887847, 0.7458082416428079, 0.7405169939394352, 0.7352077713667158, 0.7298780612846704, 0.7245363248889997, 0.7191410158987525, 0.7137750590343701, 0.7083941050437126, 0.7029541638663491, 0.6975533693558678, 0.6921498848502465, 0.6867231841354233, 0.681287396631549, 0.67585459511738, 0.6704040083247885, 0.6649320578697246, 0.6594773090105702, 0.6540204418592857, 0.6485174700762466, 0.6430665139149203, 0.6376536860403167, 0.6321989225487196, 0.6267493834132274, 0.6212923683816621, 0.6158588897801882, 0.6103916793831489, 0.6049813129992925, 0.5995794614234402, 0.5942052172588421, 0.5888229313974808, 0.5834652446697869, 0.5781111166229428, 0.5727741875997199, 0.5673786310712795, 0.562089149854695, 0.5568403104508838, 0.5515817266281259, 0.5463439251233206, 0.5411526797245235, 0.5359571703693702, 0.5308504865109072, 0.5256997099740897, 0.5205802114583934, 0.5153629939430995, 0.5103236693325586, 0.5054181207790253, 0.5004173728720438, 0.4954511025886828, 0.490530308431928, 0.485633212256839, 0.48075528913523013, 0.475934211590127, 0.4711498147920751, 0.4663433204336508, 0.4616418304201393, 0.45694773198620253, 0.4523216675998124, 0.44773163402575733, 0.4431928676771043, 0.4386767837225042, 0.4341660360688063, 0.42973589152049596, 0.42534583721494645, 0.4210529060132424, 0.4167391029178416, 0.4124925029937136, 0.40826888481606977, 0.4040934541863747, 0.39992095947203, 0.39584830391986314, 0.39184293941564874, 0.38786084966561035, 0.38392741238165407, 0.38000800945490393, 0.3761773476338052, 0.37238040175303877, 0.36864750511004474, 0.3649626485717868, 0.3613404189871729, 0.3577516068777176, 0.3541887561778366, 0.35070424206954676, 0.34726939676736424, 0.3439965809082695, 0.3406482076190707, 0.33724155025664243, 0.3340214158981777, 0.33085078248130156, 0.32773359209832575, 0.3246627887824568, 0.32159386719680905, 0.3186311803241822, 0.31571701633499916, 0.3128798909925941, 0.31006075573804587, 0.3073525133768983, 0.3046287986373143, 0.30195993791388515, 0.2992545017958059, 0.2967053705656876, 0.29419406393532416, 0.2917431808337223, 0.2893405245712712, 0.2870982327594547, 0.28477847500689085, 0.2824472255948361, 0.28024489914879674, 0.2780920841394753, 0.2760095139871907, 0.2739522927618714, 0.271850509277593, 0.26990446817223024, 0.26800201350048436, 0.26617139126740424, 0.264353277801543, 0.2625843392271463, 0.2608569158233954, 0.2591748748218382, 0.25750290448535645, 0.25591499928511663, 0.25449529894018363, 0.2529759241880069, 0.25150554780045653, 0.25005840563374937, 0.24868534744343682, 0.24731431444360905, 0.24603366499110554, 0.2447929157744216, 0.2435670948444122, 0.2424077499030341, 0.24126441836259882, 0.2401813723604443, 0.23913340768703634, 0.23818671505151648, 0.2371996816133909, 0.23622953986558484, 0.23531996762045376, 0.23444523197150877, 0.23364657344637557, 0.23283402216066382, 0.2320389918886887, 0.23129759937209812, 0.23052169003142178, 0.22985171350729963, 0.22920825505472397, 0.22868895188492203, 0.22808523121867155, 0.2274915199055628, 0.22695121623029688, 0.2264383404330442, 0.22592047223615944, 0.22546362446265233, 0.22502618254690912, 0.22461496195936154, 0.22422519295026946, 0.22389123137286343, 0.22353807805138265, 0.22316098233224552, 0.22285568723934862, 0.22256751696843577, 0.22232392749183832, 0.22206487716293125, 0.22171096891640293, 0.22149936674226348, 0.22129692149371014, 0.22118417602463047, 0.22099008554820054, 0.220820174839727, 0.22065131447268288, 0.22049509958489436, 0.2203296569005725, 0.2201987358299078, 0.22015011111824653, 0.2200269409851357, 0.21991540369397733, 0.2196568535545799, 0.2195847518186218, 0.2195887989002674, 0.21950557906940207, 0.21942617161160677, 0.219412910729594, 0.21933131193959196, 0.21922721638652473, 0.2191589872203634, 0.21909246997136625, 0.21901638765311, 0.21895229163063193, 0.21888704007034154, 0.21882000614477415, 0.21875057476595564, 0.21861868811623242, 0.21855018002113843, 0.2184461829077235, 0.2183660994420013, 0.21827670322229956, 0.21821300958568282, 0.2181006275469173, 0.2179808347384049, 0.2178532196111331, 0.21771736166578623, 0.21758332595193886, 0.21742837108146731, 0.2172504822578229, 0.21707888949228332, 0.2168965445481265, 0.21667858617924693, 0.21647669114297435, 0.21626502615850282, 0.21603597343938186, 0.2157934672252343, 0.21559321810800164, 0.2153159808238658, 0.2149856968748918, 0.21469089054106974, 0.21438126839195634, 0.21403556975273172, 0.2136981436172563, 0.2133439093718427, 0.21297277668385856, 0.21258464212696684, 0.21212343487695826, 0.21170802223101512, 0.21131057473001488, 0.21084960618042003, 0.21037087157761428, 0.20994421937995592, 0.20942081054182643, 0.20883429297644587, 0.20828811408709513, 0.2077237759205862, 0.20710966489329613, 0.2065125866365732, 0.20594766551205748, 0.20530350167009556, 0.20464226584447504, 0.20396715266778365, 0.2032704628367724, 0.20248616101253203, 0.20176276575629049, 0.2010173801065737, 0.200274900094983, 0.1994836449506009, 0.19871137949680537, 0.19787641735559208, 0.19702437064864464, 0.196193520514939, 0.19530191364632607, 0.19440892294753942, 0.19348441800832095, 0.19254463087009568, 0.19148428458860678, 0.19052620031749, 0.1895006237218625, 0.18850492210500758, 0.1874859700310461, 0.18656014024799913, 0.18548289513535576, 0.18431107927203794, 0.18321554661584538, 0.1821010365184706, 0.1809506217823951, 0.17980201204253576, 0.17867349461947604, 0.17748387480038683, 0.17627921635825033, 0.17505624769121655, 0.1738226387612022, 0.17263045173018338, 0.17136097467576974, 0.17008066208500752, 0.16879634623958578, 0.16749305276845602, 0.16610556526427261, 0.16479000768824015, 0.16345953330461258, 0.16220221900750564, 0.16083276009024675, 0.15935022198543325, 0.15797757405388393, 0.1565906745737237, 0.15525680808874803, 0.15383546110293225, 0.15232551653578413, 0.15089818807986935, 0.1494585496444323, 0.14808441280005538, 0.14661298304159603, 0.14509404556610123, 0.14361694495503627, 0.14213219131957935, 0.1406367975217942, 0.1391386990601773, 0.13763774591845912, 0.1361270087470885, 0.13461111923650948, 0.13305206435697026, 0.13153210063185625, 0.1300096780463213, 0.1284781104684017, 0.1269422417103062, 0.1254411837208349, 0.12389374197739075, 0.12241244177241237, 0.12085623252786709, 0.11930395949504974, 0.11765744428439363, 0.11612474392026381, 0.11469487425022648, 0.11314548126412279, 0.11160134993329242, 0.10998187483780916, 0.10845800764790518, 0.1069975467381218, 0.10546730368660467, 0.10394236855936767, 0.10240536872174286, 0.1008936407293005, 0.09929925930326355, 0.09780850158120485, 0.09631833818303763, 0.09495574704473425, 0.09345399574372228, 0.09186146863499124, 0.09039367163825344, 0.08893056857088008, 0.08750091095504645, 0.08604592638578482, 0.08458538723686915, 0.08314944835309339, 0.08172196264158627, 0.08029993017898214, 0.07889126058663276, 0.07749576538025829, 0.07610646462921047, 0.07472792778573467, 0.07341999334103275, 0.07205660336416567, 0.07060000210444725, 0.06928059125800624, 0.06797006753457976, 0.06674269230814954, 0.0654430381569842, 0.06413415526821135, 0.06286813114005618, 0.06161606368552858, 0.06044466343545113, 0.05921288254434951, 0.05796806727230464, 0.056776848152397294, 0.055657717058310165, 0.05449174645716949, 0.05334518509160442, 0.052091768590511886, 0.05099892716846076, 0.04999797433515038, 0.04891869051426002, 0.0478569461367453, 0.04678479056863361, 0.045761759347004695, 0.04477929936470015, 0.04378563866491834, 0.0428099927106349, 0.041841918091921115, 0.04090377944727778, 0.03990628674412136, 0.03901319493280075, 0.03813365244246366, 0.03726140899798685, 0.036411996066635074, 0.03561968861262212, 0.03479580765552965, 0.033990472599187325, 0.03323174850267993, 0.03246020911050036, 0.031695002862304957, 0.030965688086183232, 0.03025554627643327, 0.029487585325975115, 0.02882536003919181, 0.02832820871171945, 0.027676903953311613, 0.027049759837145367, 0.026316569767455764, 0.025751773630816304, 0.02521568962841595, 0.024679030630984068, 0.024158731010619397, 0.023689979911613465, 0.023198581948170007, 0.02275750417047395, 0.022299631804475542, 0.021862005820439866, 0.021479167359037283, 0.021076349371177434, 0.020673556589253593, 0.020314786157145374, 0.01997465809342773, 0.01955490311943885, 0.019263432949050033, 0.019068084322900497, 0.018790883173993026, 0.018531517016599726, 0.018261687948038625, 0.018040587776533345, 0.017855826022012147, 0.017662731272324168, 0.017486050837862636, 0.01724509463582969, 0.01711066351649671, 0.016994387993857323, 0.016881803476616632, 0.01678151316337482, 0.01672519797227519, 0.016646074861715383, 0.016616435938393823, 0.01656171068318901, 0.01652304420707729, 0.016475452314412435, 0.0164705163476699, 0.01644386039097115, 0.016469618702478213, 0.016506194625543143, 0.016599090988687813, 0.016651628069475434, 0.01673851880921366, 0.016814709428851327, 0.016904598950363853, 0.016944667087571846, 0.01706824298666481, 0.017238851269007042, 0.017374719874104414, 0.017521338526869965, 0.01772382615609663, 0.017885166684040315, 0.018009833373690932, 0.018201254024253207, 0.018400892037897864, 0.018713471830411096, 0.01891568796747282, 0.01897752564125955, 0.019225149917513944, 0.01947563133313166, 0.019771309205300423, 0.02002324085353002, 0.02032675428099882, 0.02058500798312578, 0.020851592786916985, 0.021094482986950436, 0.02138009635631853, 0.021775649863494943, 0.022057841940894173, 0.022350545317758125, 0.02261424260521796, 0.022929793939236685, 0.023313805016929333, 0.023631953678519207, 0.0239582617928343, 0.024347791995396148, 0.02468075415612176, 0.025089053040142573, 0.025430298985626078, 0.025782106244239777, 0.026087130326276457, 0.026463139793126315, 0.026972292576388862, 0.02733894120274242, 0.02771568980773295, 0.02801020659814502, 0.028414627434848554, 0.028802875562528796, 0.029211950256659774, 0.02962102576549801, 0.030204994369507757, 0.030592052987280207, 0.030898106968182012, 0.031315161178686074, 0.031734511998233, 0.03221882908407489, 0.03263402080778955, 0.033138284540937125, 0.03355248966322617, 0.03397534669991357, 0.03433927190662908, 0.034784591821914415, 0.035291352798389554, 0.03573296426112755, 0.036179618888079246, 0.03660278750061223, 0.037061510280196296, 0.03755031064110734, 0.03800962579970196, 0.038472512760936016, 0.039029681542183926, 0.03948761223720631, 0.04002366967025818, 0.040488320105968416, 0.04096361230988681, 0.041500894097782806, 0.04198767598445415, 0.04239078649761641, 0.04290995725186733, 0.04343263683982011, 0.0440427927943012, 0.044562020895374206, 0.04505122987900022, 0.045591706018603316, 0.046137551116482635, 0.04677970155911865, 0.04732485846942062, 0.04785617495402111, 0.04842512178051048, 0.049002286859149445, 0.04959451180560507, 0.050186845207150645, 0.05082951522630841, 0.05143327157912332, 0.052047794038734406, 0.05264486909847228, 0.05328384369897174, 0.053896588453561864, 0.05455769504891446, 0.05522606193534449, 0.055965206439869165, 0.05664182120225274, 0.05731340865982086, 0.058017181606533894, 0.05873254250248617, 0.059473749334612094, 0.06021134773101086, 0.0609621948538842, 0.06172651078095035, 0.06250454563443768