0.04531770577549163, 0.04451611226859219, 0.043765636831666545, 0.042858880024347304, 0.04221496453387186, 0.04163172445539976, 0.04102086005844517, 0.0404269717010657, 0.039812417506546446, 0.03924945544050276, 0.03874486890349098, 0.03819106474190077, 0.03764624456660828, 0.03715430275638948, 0.036618624388160326, 0.03606178199505683, 0.03554677951403141, 0.035037515093106444, 0.03454881860942176, 0.03404873333723734, 0.03364012129858264, 0.03314219219800825, 0.032655662222865936, 0.03198998146572035, 0.03154908008311689, 0.03126307127960065, 0.03080366796714243, 0.030355649252150594, 0.029773997694039513, 0.029367332656067845, 0.02910435699637176, 0.028688625288378983, 0.02828708625760884, 0.027949850769122823, 0.027570679403695283, 0.0270638365677162, 0.026737627696706113, 0.026420389528769156, 0.026203299658487316, 0.02589592981214961, 0.025420641692639367, 0.025171202720160393, 0.02492892707978823, 0.02477055956418694, 0.024538074790368253, 0.024411642369115638, 0.024200431234036326, 0.024011522598814658, 0.02384474530502919, 0.023699978756353324, 0.02353212560905237, 0.023436892134564402, 0.023361042415538318, 0.023380018396527487, 0.02333464746341259, 0.023309045370250227, 0.023313619103963613, 0.023342289956776056, 0.023304951015537766, 0.023393069252540425, 0.023615255395200336, 0.023727647573149335, 0.02375700549787364, 0.023937138096354105, 0.02413775268643808, 0.02446470949117822, 0.024695376670445995, 0.024849646804203377, 0.025150740013262254, 0.02547432405575948, 0.02582620856025262, 0.026196515248809504, 0.026571866006494506, 0.02699544855776812, 0.027444207092576774, 0.028018934316749008, 0.028507576380552326, 0.028954070706865516, 0.029517801941513024, 0.030109922117043282, 0.03080602420864723, 0.03144708072781057, 0.03205231348520815, 0.032770551505685606, 0.03351893743894317, 0.03436308688289235, 0.03516527367537357, 0.036082989099820655, 0.03694603768513335, 0.03784912904361975, 0.038751701436111306, 0.03973843476303023, 0.04070666159143499, 0.04177350101863227, 0.04287403080945723, 0.044008885451166366, 0.04517867982567108, 0.04620391755875027, 0.04746812848019658, 0.048758899976602786, 0.05023829876147592, 0.051567708675091986, 0.05282298430469516, 0.05424894758958735, 0.055709702741202426, 0.05731640779812328, 0.058836030573548415, 0.060399617200167656, 0.06200709356111811, 0.0636584156420126, 0.06517347415043877, 0.06693522846999811, 0.06874574240097113, 0.07057459282582391, 0.07244085156109197, 0.0745756898787924, 0.0764907114409264, 0.07821374302865246, 0.08026490310889173, 0.08235333201289181, 0.08448014027683924, 0.08664630644626878, 0.08896774789920575, 0.09120054983370858, 0.09348142776806423, 0.09562492511743985, 0.09802430447106036, 0.10055543005867851, 0.10301740210930158, 0.10552367445335459, 0.1081244159041218, 0.1107133562040316, 0.11329469706598748, 0.11598509051465912, 0.1187191222202073, 0.12149191019469142, 0.12431417402017211, 0.12724007506265114, 0.1301420163403028, 0.13309100702421223, 0.1359564854277072, 0.13901456358990089, 0.1422560646496493, 0.14537312644953887, 0.14853782604700635, 0.15176442353583192, 0.15502031204938824, 0.1581925259702941, 0.1615569171164601, 0.1649589993603179, 0.168349161903804, 0.17183410413204742, 0.17538992486544394, 0.17894272439385403, 0.18253435553458855, 0.18625491411287454, 0.1899129070992411, 0.19366977070477553, 0.19740763596126104, 0.20119076085872928, 0.20479280682053594, 0.20869132675540814, 0.21271409302779276, 0.21665980194846274, 0.2206414984713692, 0.2245188397687021, 0.2285893631253383, 0.23287716584663856, 0.23697874965404647, 0.24111947117374008, 0.24529319692766427, 0.24950947900169576, 0.25376135648291354, 0.25804786025800763, 0.2623680477001714, 0.26652589930354037, 0.27093538047357757, 0.2755049603303863, 0.27993748118463446, 0.2843990969298126, 0.28893905110084767, 0.2934501733992086, 0.29786575197131926, 0.30245050683448127, 0.30705536064712813, 0.31165015448999545, 0.3162984745288538, 0.3210695524345268, 0.32573983290657005, 0.3304332798355104, 0.3351136696449643, 0.3398542798884797, 0.34457751389687297, 0.34935696345693246, 0.35415032460242307, 0.3589719727840242, 0.3637893090698104, 0.36871439416994845, 0.3735442132184985, 0.37839024084460365, 0.3832357564888843, 0.3881110336475076, 0.3928066544311054, 0.3977254533863817, 0.4026412718977297, 0.40765436332265786, 0.41255201670957353, 0.41749746625877554, 0.4223939320780967, 0.42729359518758625, 0.4320999658859718, 0.4370137457410672, 0.4419261492354927, 0.44682593764311435, 0.451718351039549, 0.45664262635589814, 0.4615128232969063, 0.46643040666412844, 0.4712771063413565, 0.47611673947517363, 0.4809826251011177, 0.4857986567886946, 0.4905146066949685, 0.49532012348149, 0.5001069706369725, 0.5047391198152064, 0.5095027987115297, 0.5143973487566166, 0.5190824159016357, 0.5237472003421695, 0.5284451981393005, 0.5330578979439525, 0.5376238951107117, 0.5421944991338332, 0.5467383347142446, 0.551248879091429, 0.5557352930272694, 0.5602052312169691, 0.5646254202822206, 0.5690122754730677, 0.5733043393838427, 0.5776278752644648, 0.5818405048597638, 0.5860903162884593, 0.5902936190225611, 0.5944650869452608, 0.5985723792906342, 0.6027277797920049, 0.606728466248833, 0.6106860800631955, 0.614368935621881, 0.6182648492384375, 0.6224003840226779, 0.6261377184896076, 0.6298320520517904, 0.6333860100044041, 0.6369995332033997, 0.6404531336318952, 0.643969058557391, 0.6474219553854307, 0.6508015639371894, 0.65412882008842, 0.6574665166999749, 0.6606546910369024, 0.6637816148251812, 0.6667961358412023, 0.6698035279605093, 0.6728386040223401, 0.6756985990026774, 0.6783751766550711, 0.6811221799068057, 0.6837962484986672, 0.6865371119162121, 0.6890465250577957, 0.6913846421912586, 0.6937732562714344, 0.6960866481481368, 0.6982192229807007, 0.7003938183628889, 0.7024456220223159, 0.7044600145783873, 0.7063898425802476, 0.7082555170348765, 0.7100147663840131, 0.7118415024122867, 0.7134165152899048, 0.714917137661709, 0.7161868919280023, 0.7175542527694373, 0.7189947213605813, 0.720168045347796, 0.7212636165865995, 0.7221851304817469, 0.7231335584033577, 0.7240905108774915, 0.7248536987456432, 0.7255353457859872, 0.7259043951290253, 0.726449335408477, 0.7269122970614478, 0.7272625519952766, 0.7275188823258414, 0.7278971793020457, 0.7279407062649136, 0.7277943795606032, 0.7276910143543084, 0.7274994001801883, 0.7271644694762542, 0.7268032150218288, 0.7262555132397172, 0.7257239403216227, 0.7250965240561974, 0.7245595239616704, 0.7237203981341476, 0.7228640136190208, 0.7218514557628827, 0.7207591143526054, 0.7194559876947227, 0.7182178794597933, 0.716915366055464, 0.7154958169964244, 0.7139893660891995, 0.7122663005998684, 0.7106035789623267, 0.7088628051799578, 0.7070135458035508, 0.7050749242956731, 0.7032031845379966, 0.7010696617703353, 0.6988337799779275, 0.6965484813390426, 0.6941840571792917, 0.6918407382320507, 0.689306028188957, 0.6864734556302661, 0.6838213024016678, 0.6810831084677514, 0.678330618644296, 0.6754165270183059, 0.6725052384239504, 0.6694274628247284, 0.6662787755494416, 0.663019447178459, 0.6597349623492231, 0.6562283874766122, 0.6528197206918177, 0.6493323903229853, 0.6459186129911707, 0.6422612809993593, 0.6383897062079552, 0.6346236300346103, 0.630786257242208, 0.6268945420920904, 0.6229184258326602, 0.6188824306643468, 0.6147774985082923, 0.6106110765343625, 0.6064096272139957, 0.6021213819298826, 0.5979223881735609, 0.5935053288177629, 0.5890429452491457, 0.5843101499786981, 0.5797858182197931, 0.5752791017696787, 0.5706327006611658, 0.5659375101193936, 0.5612700287552764, 0.556472143593492, 0.5515790078446312, 0.5467084710062775, 0.5417963662438983, 0.5368991364716174, 0.531901188181782, 0.5267339520072907, 0.5216856318933594, 0.5165975494620239, 0.5114969060562421, 0.5063326170023013, 0.5012363391428518, 0.4959970774995053, 0.4907348690595442, 0.4854505981831995, 0.4801452204076127, 0.47483476369270716, 0.46948839433212475, 0.46412499210473906, 0.45856552458470246, 0.4531940622623221, 0.44772376502884853, 0.44231685640546686, 0.43688711815035036, 0.4314675595888309, 0.4259971578008019, 0.4206941291101815, 0.4151777518816504, 0.40966311666472943, 0.40394069005142497, 0.39845791405877734, 0.3931921823046034, 0.3876673069036589, 0.38215186002340734, 0.3764261503674368, 0.37095875945741597, 0.3656751080440612, 0.360184081476339, 0.35470689877779127, 0.34914922791678676, 0.343713966080311, 0.3381744954643342, 0.3327771376526835, 0.32738743565844897, 0.32223298931707545, 0.3168374338212362, 0.31137411626174744, 0.30604539519516816, 0.3007392195883343, 0.29537175328326315, 0.2901250312163634, 0.284859647516091, 0.27966255684167, 0.27448818798563673, 0.26949860889643235, 0.2643552793953351, 0.25920423314076424, 0.2541415695434149, 0.24911447240606274, 0.2441938229772641, 0.23923154601436952, 0.2342712972156943, 0.2293984706014633, 0.22456610191952867, 0.21976993280005877, 0.21502135728824034, 0.21041527585557088, 0.20573974760476876, 0.20111389787692988, 0.19640265816508473, 0.19189333684745577, 0.1875164267390681, 0.1830817803772401, 0.1786971373421634, 0.17441798662163344, 0.17012779881110768, 0.1659121604836815, 0.16172859482957802, 0.15760090266101545, 0.15352911531251034, 0.14951333007667003, 0.14545865174210815, 0.14156739478342792, 0.13772739700298778, 0.13409477053317845, 0.1303407122865, 0.1265494568785844, 0.12293334103822805, 0.11937372589647444, 0.11583115263207741, 0.11239125241258477, 0.10931235313648605, 0.10594634994951796, 0.1026548254580324, 0.09917584500569865, 0.0960610017612927, 0.09307135978618847, 0.09005892243901432, 0.08710734785606199, 0.08441192163389621, 0.08155795051473352, 0.07871127655524256, 0.07600876234908774, 0.0732872085019323, 0.07072688160710662, 0.0682267114737843, 0.06580194830169075, 0.06342088761896711, 0.061216509265744734, 0.0589441666998436, 0.05673992224339721, 0.05469787733291706, 0.05261506331280119, 0.050528069021553434, 0.0485949910087835, 0.04672577891485281, 0.045054927751679005, 0.04329469333195274, 0.04164933418914511, 0.04002156563003647, 0.03846324291057201, 0.03683268594108854, 0.03542630671314442, 0.03419222787092888, 0.0328857466113283, 0.031642862361893453, 0.030612635304743587, 0.02947500772959501, 0.028166476832314116, 0.027195650426569632, 0.02627677546495589, 0.025580254460894958, 0.024744644235899862, 0.024021267391721553, 0.023302468691418433, 0.022646229100724374, 0.022021043450099996, 0.021489375220217866, 0.02110952847204195, 0.02067847944831018, 0.020307776161683496, 0.019935820157318023, 0.019688830554841302, 0.019374443711714255, 0.019247236621111254, 0.01916453567942405, 0.019291721469980892, 0.01927795032471186, 0.01917347536471111, 0.01928548010632816, 0.019441184129461487, 0.01969063215400964, 0.019927388792637068, 0.02026550847124361, 0.020587377122157628, 0.020957457066701737, 0.02132966048548368, 0.02179870512336019, 0.022270346659867143, 0.022829100743188013, 0.023427041293501153, 0.024193943359331123, 0.02485288590279404, 0.025612318012584047, 0.026353748676020746, 0.02714086678700225, 0.027996941705195445, 0.028867173127138778, 0.02978464917830503, 0.030737145241571288, 0.03172911224747158, 0.032604076021779504, 0.033690510980040306, 0.0349439003035411, 0.03606652337398132, 0.037224076290891354, 0.03829535364937157, 0.039534588266005616, 0.04082881329516261, 0.042114225827296646, 0.043426278234554645, 0.04467458176090131, 0.0460502469242287, 0.047671516759937145, 0.04906001776881766, 0.050482175430592684, 0.05178622403330242, 0.05328974308874095, 0.05485886041650619, 0.056397739379304264, 0.057959480394863296, 0.059538538446565294, 0.06114501946834314, 0.06265742779971889, 0.0643199575391549, 0.06599607905689517, 0.0678863587774567, 0.0695656486889718, 0.07121081067054985, 0.07294806240430592, 0.07470510466803228, 0.07638617561634332, 0.07819272040836456, 0.08017179211645468, 0.08198316201355896, 0.08381625268658562, 0.08567984839757167, 0.08755156845772485, 0.08936720644744749, 0.09128534296418636, 0.09321635574661247, 0.09526510644227344, 0.09720802113281432, 0.09898906360376601, 0.10099017447139315, 0.10299748347013589, 0.10509668241753767, 0.10710749385117735, 0.10909095046930534, 0.11113188468424443, 0.11318272477137752, 0.11532361010888383, 0.11738441893152372, 0.11957492748758071, 0.12164987989995724, 0.12374481928196862, 0.12582334750011892, 0.12795872224138755, 0.13001844006754085, 0.13219335638118543, 0.13437646043419424, 0.13668309501629677, 0.13886886813082913, 0.14085999914441596, 0.14310259621978969, 0.14534763004258772, 0.1476163299754778, 0.14986724156514206, 0.15221505876133626, 0.15446902861584114, 0.15673628994069055, 0.15898169302695322, 0.16127960346705567, 0.16364357274700472, 0.16595683232084438, 0.16828469385135, 0.17060193409911514, 0.17296158078623866, 0.1754289891549202, 0.17780217407879897, 0.1801936795807165, 0.18253286296742954, 0.18496815092164706, 0.18753137823068486, 0.18997812864437294, 0.19244472473741445, 0.194745415290011, 0.19727325725504694, 0.19988898205344094, 0.20242355028173076, 0.20497268152359588, 0.20754171458583937, 0.2101203488614892, 0.21263479649566872, 0.2152555556381481, 0.21788827368937347, 0.22071398948394025, 0.22335061936637518, 0.2259669102595737, 0.22865789094631192, 0.23136973212529177, 0.23400727067947946, 0.23677256072860156, 0.2397182741531552, 0.24249416546172647, 0.24529619596823227, 0.24801867350345688, 0.2508844665955425, 0.25383396041985684, 0.2567293886866054, 0.2596481588159774, 0.26246016354285223, 0.2654419847918577, 0.2685899316231491, 0.27158599938491157, 0.27460868626134943, 0.2776677237442852, 0.2807416291487407, 0.2837670468771288, 0.2869033630548392, 0.29006171739551645, 0.29315759427689886, 0.29637232709355493, 0.2995857985283681, 0.3028416729848741, 0.30611728633709684, 0.30952374937110944, 0.312827973149393, 0.31619595574573345, 0.31955308509504593, 0.3229406447274166, 0.32626819875842294, 0.3297268847187363, 0.3330948641796081, 0.3366172689111004, 0.340158445100442, 0.3437747023324504, 0.3473501443404067, 0.35098082824841353, 0.35460331796890004, 0.35818339318112496, 0.3618699963344115, 0.3655802938453911, 0.36935983309004633, 0.37311330573835955, 0.3767642317487337, 0.3805890921155831, 0.3844339516240016, 0.38833472383291995, 0.3922176876256136, 0.3961648768313611, 0.40009138553179596, 0.4040446555819591, 0.40800940085755716, 0.4120172300982562, 0.4160850862543297, 0.4201382778234639, 0.42421795257893297, 0.4283135293320125, 0.4324457129584886, 0.4366421266002026, 0.44081718786544205, 0.4450177343981802, 0.4492029278515168, 0.45345708334994667, 0.4577371192739238, 0.4620319861705688, 0.4663471686829896, 0.47043204863732796, 0.47481800118888523, 0.47932877686029596, 0.48371054817861536, 0.488106505047696, 0.49257168062533735, 0.49698896804068804, 0.5014532739210961, 0.5059000664976389, 0.5103641155376628, 0.5147944115214993, 0.51929635982839, 0.5238548660548045, 0.5283736442862622, 0.5329053475906171, 0.5374289761748394, 0.5419861002244302, 0.5463669891801766, 0.5509644275684712, 0.555558706815893, 0.5603005514761397, 0.5648712815257709, 0.5693936101168181, 0.5739834472419229, 0.5785746161493689, 0.5831464466008957, 0.5877407742879688, 0.5921981024126316, 0.5968049967506086, 0.6014010190018007, 0.6060765332232008, 0.6106401953404009, 0.6150883992526797, 0.6196542628228019, 0.6242066822737831, 0.6289356420582055, 0.6334366549421953, 0.6377090179414572, 0.6422293889060487, 0.6467296060577102, 0.6513796923940929, 0.6558177521540685, 0.6600644762921501, 0.6645009733132687, 0.6689124877657936, 0.6733187455836173, 0.6776767828586753, 0.6819897235237428, 0.6862993248652567, 0.6905810586275692, 0.6949492161191603, 0.6991582899776269, 0.7032683972564964, 0.7074372112078862, 0.7115741682470924, 0.7157131230274208, 0.7197784304088922, 0.7237502733217733, 0.727754812248247, 0.7317195921203111, 0.7355185906483055, 0.7394167527426946, 0.7432451456447083, 0.7470462699985322, 0.7507962644231859, 0.7547050666604502, 0.7583255910141534, 0.7617658026357895, 0.7653213310588476, 0.7688244251770681, 0.7721891652671017, 0.7755954726197335, 0.7790718913723813, 0.7823415444460515, 0.7855578347971364, 0.7886041543492925, 0.7917236641214883, 0.7947838426474603, 0.7977735585423621, 0.8006981593184206, 0.8037470689158973, 0.8065153352246772, 0.8090669120755632, 0.8117398741666189, 0.8143427471279711, 0.8170098658537898, 0.8194532578568893, 0.8216868006140777, 0.8240171094964385, 0.8262708750808139, 0.8284026041616219, 0.8305075260258649, 0.8326018920510468, 0.8345365684039723, 0.8363941022656043, 0.8380785502461096, 0.8397911520544487, 0.8415887403187305, 0.8431095689558538, 0.8445546366314858, 0.845772299234719, 0.8470802341196887, 0.8484947242801795, 0.8496008686640987, 0.8506292948012308, 0.8516383299559757, 0.8524987757314799, 0.8531051295656635, 0.8538279548775702, 0.8544586275617218, 0.8549721380689729, 0.8554216555975468, 0.855907630876096, 0.856153637141408, 0.856313601939183, 0.856276511451287, 0.8562755414130478, 0.8562598316049844, 0.8560594032185028, 0.8557691076144799, 0.8553834776974824, 0.8549127512363794, 0.8543106532028845, 0.8536620434671869, 0.8529194041032815, 0.8520028716026129, 0.8510828298434948, 0.8503299504254513, 0.8491812826462984, 0.8479511391642571, 0.8465380544818212, 0.8451535810736034, 0.8435333258145706, 0.8419857604451522, 0.8403393724243272, 0.8386454598816964, 0.8367988316469549, 0.834714679478814, 0.8327021317127442, 0.8305902584313637, 0.8285159175346691, 0.8261935359326649, 0.8239294276060216, 0.8214154165651337, 0.8188234125262209, 0.8160625915724169, 0.8133238340547893, 0.8105702619118401, 0.8076533977351391, 0.804656564820613, 0.8015947605006873, 0.7984361800281717, 0.795138757811474, 0.791830343326475, 0.7884402536132978, 0.7849943908470086, 0.7814404890220114, 0.7776590037594033, 0.7739698447680882, 0.7701963722016519, 0.7663256683797799, 0.7623916323590783, 0.7583934184083332, 0.7543010468489211, 0.7501341115591152, 0.7459092697954866, 0.7415962067053421, 0.7372992669157685, 0.7328390071230101, 0.7283173761615265, 0.7237400613526482, 0.7190971866642818, 0.714380493697869, 0.7096227557214696, 0.7048121561430704, 0.6999391695418254, 0.6950108679457405, 0.6899233550745718, 0.6849012214888622, 0.6797614457674336, 0.6746338021868774, 0.669449353960318, 0.6643306356035171, 0.6590247032610514, 0.6535107085553027, 0.6481408924283861, 0.642721271317453, 0.637419530534604, 0.6318870998397845, 0.6262515197722159, 0.620662640874986, 0.6150386383906535, 0.6093961465089388, 0.6037048710006288, 0.5980341974926151, 0.5922792378958038, 0.586500650706738, 0.5807745848675239, 0.5749426491204813, 0.5690397823785699, 0.563183676984863, 0.5573100597759851, 0.5513602534461743, 0.5454633069577305, 0.5396297087704387, 0.5336912124896228, 0.5277443980117378, 0.521620435586843, 0.5156823153413094, 0.5097452668736019, 0.5037801460077247, 0.49780733585423587, 0.49199931705288613, 0.4859967097593325, 0.47978775369291693, 0.4738306309133032, 0.46787182284182033, 0.4619440208564061, 0.45598593719817543, 0.45009050663913047, 0.4441427712698346, 0.4382097860695773, 0.43227801380675357, 0.42638082995473575, 0.420611998127044, 0.4147390588907322, 0.40889370535081243, 0.40288647954574036, 0.39712233798887653, 0.3913972957947639, 0.3856712050293235, 0.3799700021379877, 0.37426566533362876, 0.3686239243907343, 0.36302611365124193, 0.3574423067488677, 0.3518921369748748, 0.3464573180091452, 0.3409692511949466, 0.3355541435131096, 0.33014900530676716, 0.32479019225544364, 0.31938829884972914, 0.314135489290322, 0.3088809835490789, 0.30372200539850003, 0.2986067364150435, 0.29376702215743816, 0.28871516238188216, 0.28360976438613095, 0.2786950979142639, 0.27383485525530316, 0.2688747720436695, 0.26414543208169017, 0.25952429374321767, 0.25488576699550375, 0.25030274237018035, 0.2458815440390972, 0.24139997683547942, 0.2368333194886381, 0.2325009117710338, 0.22822553209790128, 0.2241787608895086, 0.2200002925985833, 0.2158925265216229, 0.21185525440495434, 0.2078883423195721, 0.2039567032001544, 0.20013478688022832, 0.19641623476466627, 0.19272693945648606, 0.18910866585959066, 0.1853413695347889, 0.18189319955419023, 0.17862403626559745, 0.17528047607688127, 0.17200618808114237, 0.16889675314111155, 0.1657505324128843, 0.16247024060333107, 0.15950226242007468, 0.1565977834256012, 0.15382821477994668, 0.1510458265396877, 0.1482994542231014, 0.14566387884570098, 0.14309793811471327, 0.1406521224513744, 0.13822042503663554, 0.1357722386907812, 0.13349883660377504, 0.13129350388460698, 0.12912169000898527, 0.12705821005641407, 0.12525699866232046, 0.12330361941948714, 0.12142909542736922, 0.11941694200099204, 0.1177232915693466, 0.11616259531983629, 0.11458652164415983, 0.1130783343088619, 0.11178284756968199, 0.11039125405082295, 0.10909475311939137, 0.1078492104813565, 0.1066768053174773, 0.10542090237238884, 0.10440980950612595, 0.1034337525721299, 0.1025458708923496, 0.10171644854124799, 0.10101050107139498, 0.10028962128503341, 0.09959048320608557, 0.0989973683122741, 0.09846211669428048, 0.09817429969744272, 0.09772910942510603, 0.09716562412141953, 0.0968752331280587, 0.09663699592071497, 0.0965105063925068, 0.0963676090614792, 0.0962086912117294, 0.09618157207946831, 0.09620232907660177, 0.09628543567481242, 0.09639837756045333, 0.09671331808807504, 0.09689965144818236, 0.09713989148515902, 0.09743688483010919, 0.09777796221528223, 0.09815211190650477, 0.0985893869061433, 0.09907027471137532, 0.09963823855730464, 0.1001960409273621, 0.1006904251076758, 0.1013430205863617, 0.10202792112450851, 0.10283441932306742, 0.10357024824999736, 0.10419599402241009, 0.10501856643471937, 0.1058648853163519, 0.10665960894677289, 0.10756189916291785, 0.1085075389709706, 0.10944336853386746, 0.11039884543318791, 0.11140352712722626, 0.11239303303835643, 0.1133922107529744, 0.1144213739206433, 0.11546768955350277, 0.11650018639692207, 0.11758169358360825, 0.11863566377527918, 0.11974637603021733, 0.12086562543051563, 0.12203282593003388, 0.12316218711121256, 0.1244803647994635, 0.12560325764618535, 0.12674267258190214, 0.12781594816674352, 0.12899083750095522, 0.1300553376926248, 0.13125260949221004, 0.13244513648626688, 0.13376750761241685, 0.13493195800117924, 0.13597754255415612, 0.13715781360540039, 0.13846920083468803, 0.13961323553545257, 0.14075490069869998, 0.14173729366603383, 0.14288846349726858, 0.14408843468914204, 0.14519863670344113, 0.14629562213802375, 0.14727339883563173, 0.1483544273974473, 0.14943356704211014, 0.15046820368617422, 0.1514818438592385, 0.15272421589879606, 0.15366298935640796, 0.15459846419262252, 0.1555174634183216, 0.15642358343821727, 0.15722462009208465, 0.15811008113911398, 0.1588616292195998, 0.15971237594713952, 0.16053131113466051, 0.1614585780343084, 0.16219633215852144, 0.16278010256393158, 0.16348524480421048, 0.1641568224058937, 0.16488489050442692, 0.16547793411312792, 0.165992333250227, 0.1665336258989778, 0.16704187565509862, 0.1674967519899371, 0.16794048745035842, 0.16839412801306436, 0.16876178810030942, 0.16909655025265183, 0.16948292707604032, 0.16973958757987045, 0.1699866568392632, 0.17018048352503062, 0.17034375013892103, 0.1704654207829123, 0.17056586194079532, 0.17063244542018977, 0.170664558122957, 0.1706616716810627, 0.1705683076073811, 0.17050110080546885, 0.1704346850078479, 0.17028414982571066, 0.1700970136545716, 0.16994318515929238, 0.16967365468360102, 0.16915108893243214, 0.16884297489177846, 0.16848855382527891, 0.16826931938132514, 0.16780358796473338, 0.16703034077738765, 0.16653424526642427, 0.1659896160134913, 0.16539842671140048, 0.16476244848774652, 0.16422834511742881, 0.16348905421624468, 0.16271741900535233, 0.1620184849855548, 0.16116888767256274, 0.1601128254570007, 0.15923249823872865, 0.15831431914939498, 0.15748930993337742, 0.15648178466175594, 0.15543138352592964, 0.15436976330818805, 0.15327900977089357, 0.15203909817941072, 0.15090542901572346, 0.14971116504212129, 0.14851066722688958, 0.14727545896028357, 0.14594675068950677, 0.14465335469505883, 0.14352047117245786, 0.14213474477752083, 0.1407282900677399, 0.1391607649257551, 0.13772985712251407, 0.13633488903892085, 0.13483871901679823, 0.1333193425462723, 0.13186232009231572, 0.13028735069104352, 0.1286705495021959, 0.12706500034572077, 0.12544112427117995, 0.1237141742450724, 0.12206534757986094, 0.12036447429415459, 0.11867652859471584, 0.11696712554360972, 0.11518755591553408, 0.11344545060341236, 0.11185794047213181, 0.11005426193335043, 0.10824292742742614, 0.10633886135605768, 0.10452296989908325, 0.10293496393350555, 0.1010651616418772, 0.09919843568434314, 0.0971286566639072, 0.09529117296683809, 0.09352289227234159, 0.0916548643087385, 0.08978295768541415, 0.08805778806042433, 0.08616081556084175, 0.08411506717680224, 0.08224977206727739, 0.08038118580446003, 0.07852537133094516, 0.0766514620547656, 0.07482826711412582, 0.07295031519757487, 0.07107767260641217, 0.06928088265172862, 0.06741157610719231, 0.06561320556661697, 0.06375819511922695, 0.06191771205883987, 0.05999149078505644, 0.058192208037652945, 0.056531662089592774, 0.054734236929068765, 0.052954702146382225, 0.05112292960885545, 0.04938787539773287, 0.04781693205655133, 0.04609176664856477, 0.044390662200134705, 0.042608176918103535, 0.04096746736517981, 0.039554312886023776, 0.03792280418615854, 0.03632227785092904, 0.034781932306487275, 0.033237331122355676, 0.03178357235243611, 0.03029249869678064, 0.02883476746879896, 0.027244632610586336, 0.025872667141015774, 0.024523352092525156, 0.023197866903346034, 0.0218973571524875, 0.020828038274521593, 0.019554844185336512, 0.01820130222004857, 0.017022070836379938, 0.015874694838738095, 0.014919893825000457, 0.013817913698535198, 0.01273370379497346, 0.011719824397587626, 0.01074622743578214, 0.009877818212458134, 0.008976278285966548, 0.008078548506869534, 0.007269336126509116, 0.006501048508948031, 0.005903919149586747, 0.005201595033299109, 0.0043730709523954435, 0.0037899302798441482, 0.003244548231296725, 0.002727897453637471, 0.002262180458920448, 0.00191148177695816, 0.0015171474614328665, 0.0011687680267745732, 0.0008915520523785391, 0.0006325301036625837, 0.0004515329915657184, 0.0002847839836103735, 0.00016786139004103958, 5.587402841409905e-06, 0.0, 0.00019374649565822663, 0.00025783222544413856, 0.0003763562383999953, 0.0004986969510178121, 0.0007307338085779755, 0.0009728792037137638, 0.0013103036001847557, 0.0016957669786004349, 0.002124687656420472, 0.0026080932807968455, 0.003145430449092852, 0.0037264321463011223, 0.004357351067783335, 0.00502844633504861, 0.005761231145309686, 0.006579104270990572, 0.007407870824187714, 0.008399232437799406, 0.009319083750559594, 0.010297500045644272, 0.011388556205579239, 0.012474397729525874, 0.01357433509385862, 0.014783013237940462, 0.016046230289898832, 0.017333492485463467, 0.018708207873436352, 0.020169534840748612, 0.021642932653016027, 0.023169743973033653, 0.024689595123581036, 0.026329832803105257, 0.028019195288184157, 0.02975792034971615, 0.031546208398059994, 0.03338422401656266, 0.03527209746324385, 0.037279961982906326, 0.03925895753696713, 0.0412919424210528, 0.043393370322708645, 0.045530817725675056, 0.047741569437844945, 0.04998251455001881, 0.05227679928564346, 0.054473706918988216, 0.0568917775695527, 0.0594980683386941, 0.061984792092514125, 0.06452409572117501, 0.06712530142027735, 0.06976649952423775, 0.07230385056482486, 0.07506648467631018, 0.07787041766813095, 0.08079637895068412, 0.08367473225458122, 0.0865305477337492, 0.08951245862127034, 0.09253733627014514, 0.09575049706370224, 0.09884361078488778, 0.10199332455186705, 0.10518785352669016, 0.10843205012224096, 0.11161483005512796, 0.11496926507224284, 0.11838932943139532, 0.1218218870277066, 0.125296510814034, 0.12877792261362472, 0.1323403015534085, 0.13598695378041548, 0.13962209587256666, 0.14329887158005658, 0.14703678203034543, 0.15079276850471168, 0.15453996094261177, 0.158384066950392, 0.16226527978861058, 0.16612834238095078, 0.17009000489216078, 0.17425498537711406, 0.17826172472028531, 0.1823114000422396, 0.18638760416925948, 0.1905209551944349, 0.1946274725549575, 0.19884445121982922, 0.20309405363657576, 0.20753100538629837, 0.21182517276584217, 0.21607452141699218, 0.22045825077766892, 0.22487429534458822, 0.22916188888824024, 0.2336607804595576, 0.23820104613417414, 0.2427408165351507, 0.2473042957285096, 0.2519267540771943, 0.2565338851227777, 0.26116216699973727, 0.26582194732286, 0.27050698423362823, 0.27538704646304396, 0.28010010403436325, 0.2846768266556477, 0.2894771179721711, 0.29429821097070813, 0.29910495690462574, 0.30397163712106257, 0.3088966331955219, 0.31379485576541444, 0.31871357018224566, 0.3237023537884009, 0.3286543636023446, 0.33372832553152776, 0.3387105881769239, 0.3437186064562572, 0.3486857165573774, 0.35374870821202686, 0.35872424190263863, 0.36383495655290304, 0.3689559005300187, 0.3741222441310659, 0.37925959635468254, 0.38439936215138526, 0.3895624685311727, 0.39473671067166527, 0.40002682688484975, 0.405209082190394, 0.4104623647496088, 0.41566842097221707, 0.42089116871053084, 0.4260540473162487, 0.43131522194989885, 0.43652463710446704, 0.44180935934137966, 0.44709782896415917, 0.4524850197458127, 0.457768693758327, 0.4630910989934741, 0.46838743790163057, 0.47369229168809207, 0.47882946827274614, 0.4841702572584832, 0.48954166451312225, 0.49486973612153856, 0.5001962715227684, 0.5054412274262351, 0.5107747380522678, 0.5162270876846399, 0.5215327996574075, 0.5268401048928187, 0.5321632262750507, 0.5374694872714672, 0.5427908988186415, 0.5480947015081888, 0.5533978280287875, 0.5586943696159923, 0.5639940992755247, 0.5693703154002882, 0.5746520646303659, 0.5799332750250988, 0.5851425669097327, 0.5904276245060711, 0.5957244861699321, 0.6009900965958765, 0.6062476187211622, 0.6113012953115506, 0.616565357306817, 0.6218985174516459, 0.627110267148092, 0.6323078794300336, 0.6375412817473395, 0.642703942819814, 0.647819796263939, 0.6529626504065361, 0.6580904481145918, 0.6631227914301121, 0.6682294972097709, 0.6733905411658382, 0.678446571076716, 0.6834864369343269, 0.6884645365196894, 0.69347602404374, 0.6984370537433412, 0.7034112219977711, 0.7083627576906901, 0.7131315020586766, 0.7180577135838188, 0.7229418753570868, 0.7278062887931691, 0.7326399401561716, 0.7375936172004788, 0.7423487256056175, 0.7469980716779688, 0.7517215223834789, 0.7564175603539944, 0.7610309158103034, 0.7656782987033094, 0.7704193410900625, 0.7749881405927832, 0.7795325353528169, 0.7840813948044755, 0.7885697989206191, 0.7929271431076644, 0.7973755754534708, 0.8017896948396777, 0.8060641897289516, 0.8104221483929909, 0.814809034797728, 0.8190763937368738, 0.8233073842004613, 0.827491656372754, 0.8316501041014414, 0.835780487911456, 0.8398611730508679, 0.8439035987687119, 0.8479072641395707, 0.8518716543125139, 0.8557111998280453, 0.8596062049446529, 0.8635005819701177, 0.8672987292952722, 0.8710539382465489, 0.8748208461603968, 0.8784820247814215, 0.8819170187844816, 0.8855185251595085, 0.8890668047275058, 0.8926275617219105, 0.8960630289438654, 0.8993704589910931, 0.9027197990785591, 0.9060160998974813, 0.9092996926567966, 0.9124856765305431, 0.9157915668096192, 0.9188553792459858, 0.9218779104471703, 0.9246623230696026, 0.9276218903159266, 0.9306444956796868, 0.9334750649952449, 0.9362557228649255, 0.9390005834327944, 0.94167689515795, 0.9443366357719086, 0.9469044816584757, 0.9494210427430865, 0.9517602280117181, 0.9541870357778354, 0.956597729844306, 0.9588967842931265, 0.9611375943327161, 0.9632448594468072, 0.9653778788118972, 0.9673926204464007, 0.969406433281751, 0.9713545034858665, 0.9733675328506977, 0.975169465108678, 0.9767444443137878, 0.9784534325140137, 0.9800946244251684, 0.9817237930722564, 0.9832245429079318, 0.9845774094719172, 0.9859631941007311, 0.98728125567863, 0.9884771480731201, 0.9896683574199671, 0.9910002928226066, 0.9920269084910843, 0.9929972738271109, 0.9939302026761471, 0.9947820587557665, 0.9954204429176489, 0.9961740717368603, 0.9968586136651941, 0.9974644679879243, 0.9980132512522033, 0.9985334384775928, 0.9989402476984578, 0.9992812732495046, 0.9996714762415134, 0.9998660971053975, 0.9998910537330086, 0.999979365660299, 1.0, 0.9997979897765544, 0.9997032061780586, 0.9996224057497588, 0.9993654562465039, 0.9990400317076515, 0.9986114414812527, 0.998154442586153, 0.9978279923859773, 0.9972071117248624, 0.99652890573981, 0.9956221070942144, 0.9948473747716521, 0.9942128065345741, 0.9932722541730541, 0.9922747684817113, 0.9910040991831544, 0.9899166987239525, 0.9888874493981407, 0.9876408446527117, 0.986331685873256, 0.9849698511779768, 0.9835340044431159, 0.9819109133992366, 0.9803664934417243, 0.9787528856903173, 0.977106205684309, 0.9753530147132472, 0.9736657493941226, 0.9717684529390173, 0.9698155422086557, 0.9676965090787961, 0.9656450485875361, 0.9635658077932429, 0.9613850849609336, 0.959145033781442, 0.9567910718804195, 0.9544406799994435, 0.9520642893789271, 0.9495883856137676, 0.9470552917214696, 0.944555652709238, 0.941898598299857, 0.9391261946299698, 0.936376629955782, 0.9335729965931059, 0.9307309128012046, 0.9278190938474087, 0.9247058551291175, 0.9217108639420255, 0.9186572142333317, 0.9156767739307257, 0.9124946426567705, 0.9092111695281493, 0.9059437893768514, 0.9026278903804957, 0.8991693664880704, 0.8957712550122481, 0.8923520768611951, 0.8888496622510423, 0.8853010555009138, 0.8818375364638306, 0.8781836870517296, 0.8744344004740542, 0.8707173545640805, 0.8669616806220021, 0.8632080895632487, 0.8593721912816076, 0.8553769786540735, 0.8514888187771441, 0.8475603007188212, 0.8437730588516329, 0.8397456063682444, 0.8355672484995367, 0.8315038178842766, 0.8274074381211989, 0.8232542355043471, 0.8190985168647468, 0.8147867401162403, 0.810586130984498, 0.8063500403210335, 0.8021157019613918, 0.7978107124412966, 0.7936634963997213, 0.7892819752059539, 0.7848864698260318, 0.7804368401098407, 0.7760181915987691, 0.7713431932093141, 0.7669229919671784, 0.7624742234915819, 0.7581895570686819, 0.753667140299364, 0.7489588847694096, 0.7444376195108557, 0.7398968499130996, 0.7354736531488312, 0.7308826865603011, 0.7263204459967628, 0.7217130248322814, 0.71710242773008, 0.7123489302820969, 0.7077507989345834, 0.703092839113546, 0.6984830806524897, 0.6938639284624509, 0.6893923448701187, 0.6847403239311667, 0.6801779481818566, 0.6755246815971648, 0.6708814619670542, 0.6660729452146348, 0.6614713314244859, 0.6568845836943907, 0.652282317690349, 0.6476837355692361, 0.643130124475431, 0.6385376037849483, 0.6338096033547349, 0.6292554296702221, 0.624704343064368, 0.6202183608233871, 0.615671674530948, 0.6111119733193583, 0.6065935561425041, 0.6020879069193885, 0.5975662305283368, 0.5930935077191758, 0.5887153804042521, 0.5842629304341418, 0.5799270643660583, 0.5755061586832277, 0.571113120710181, 0.566562613016136, 0.5622480906115412, 0.558015660740937, 0.5537285666801346, 0.549465137646079, 0.5453512394891368, 0.5411217089818624, 0.5367501053586122, 0.5326084702182001, 0.5284895784598247, 0.5245498366048068, 0.520460713695659, 0.5162866884827337, 0.512282888653349, 0.5083072423959949, 0.5045507927662184, 0.5006102025525337, 0.49656103747021707, 0.4927216921240501, 0.48891410398436025, 0.4850639823545197, 0.48133160416995513, 0.4776639294614002, 0.47398774516161524, 0.47034560619451504, 0.4666782470666691, 0.46311402893419584, 0.45964765353509285, 0.4561419246962103, 0.4526747359322407, 0.4492414539699324, 0.44585306254369034, 0.44256900313007913, 0.43925133029021707, 0.43597726811582294, 0.43271157097336943, 0.4295285166196682, 0.426356530467593, 0.4232596028720438, 0.42020239603307286, 0.41731536636129096, 0.4143222876661942, 0.41137728664415035, 0.4084795998224707, 0.40562856176661505, 0.4026485046844505, 0.39991124277051815, 0.39716426450561465, 0.39450433848426986, 0.3918791280384659, 0.3893498166457734, 0.3867897556042405, 0.38421076910193175, 0.3817407651795678, 0.379308955688852, 0.37705604533129117, 0.3746847079753052, 0.3722309498517431, 0.3699705642012591, 0.3677490142467979, 0.3655766771798167, 0.36343256667847823, 0.36130871701928663, 0.3592477415929372, 0.35722598663721566, 0.355393650348159, 0.3534316622261654, 0.35146747083058455, 0.3496061931593732, 0.34778751395986074, 0.3460057673891912, 0.3442709602930892, 0.34245651340433514, 0.3408171919340426, 0.3392104952728008, 0.33767189870249426, 0.3361272879845069, 0.3346733521112458, 0.3331929564257987, 0.331751007208217, 0.3303018289637818, 0.32894052350055036, 0.3275331847838153, 0.3262497651184848, 0.32499532702821343, 0.3238952609410342, 0.32268384427187785, 0.3215240988781025, 0.320383136594672, 0.319277773847029, 0.31815697357700307, 0.3171261513342583, 0.31606520365261975, 0.31510131000403235, 0.31416299536397646, 0.3131601981410409, 0.3122843073435173, 0.31143368713790803, 0.3105982099017461, 0.3097841571744042, 0.3091918264590578, 0.30839579721298765, 0.3075826599184308, 0.30685707621205227, 0.3061582929436861, 0.30550523607944285, 0.30485431999115914, 0.3041381714634248, 0.30354715653267655, 0.302973736344945, 0.3023576008523085, 0.3018260780654284, 0.3012828024255014, 0.30078104529706795, 0.30029121849119855, 0.299988520123963, 0.2995006436775536, 0.29897453293941384, 0.2985362736806283, 0.2981134146005406, 0.2977050714581921, 0.2973103866157497, 0.2967934580187698, 0.29644069017528624, 0.29609156571182327, 0.2957614061233046, 0.2954184950187942, 0.29520573466486605, 0.29485706121667515, 0.29452017740671405, 0.294143798991676, 0.29383311409257806, 0.2934628085183202, 0.2931705099416093, 0.29287865642618865, 0.2926421476031557, 0.29234378229992775, 0.2918983178182428, 0.29162415314247764, 0.2913430980892678, 0.2911206892787114, 0.2908190046165084, 0.29059523519264896, 0.2902787927862905, 0.2899639124941997, 0.28972954768428444, 0.28940446748861, 0.2890623402366994, 0.28874414992093356, 0.2884247948040434, 0.2880931092810302, 0.28776929530949225, 0.28735048193409085, 0.2870273059737978, 0.28669249931880086, 0.2863910770081869, 0.2860272504978202, 0.2855641286079538, 0.2851927055604405, 0.2848060296017151, 0.28446440285458696, 0.2840403702699872, 0.28346497918755, 0.2830356691959426, 0.2825863908308549, 0.2822529393204123, 0.2817486941115252, 0.28115882132002956, 0.28064217248512296, 0.2801093399437608, 0.27959531403506305, 0.27902556706041337, 0.27837638044328217, 0.27778563863002237, 0.27717604399961454, 0.27656775034669806, 0.2759182995361178, 0.2752363949241531, 0.2745537979053827, 0.2738525968391337, 0.2731227334229107, 0.27238540794454974, 0.2716286961687174, 0.27085257187237594, 0.2700569881503153, 0.2692068634608639, 0.26837658407277637, 0.26760469317117414, 0.2667211766795975, 0.26582083618931246, 0.2648381105591972, 0.2639108123280523, 0.26304164907236177, 0.26206056005246275, 0.2610623177843074, 0.2600914039980956, 0.2590516049905666, 0.2580307671935431, 0.25695370914723936, 0.25586122168036507, 0.2545323811638633, 0.25343454761459683, 0.25236686731328767, 0.25120296579705814, 0.2499349366543798, 0.2487335246331088, 0.2475045725100127, 0.24655433348358685, 0.24523489560785283, 0.24366787989442437, 0.24236222574033994, 0.24103253079532777, 0.2397094988894731, 0.23832993687133322, 0.23693492481496572, 0.2355141223877681, 0.23407373366858933, 0.23272905844389571, 0.231235672928523, 0.22959481413836783, 0.2280930166787606, 0.22656998997654804, 0.22505637780567495, 0.22348894521540005, 0.22183871092416105, 0.22024424958779085, 0.21862894474654113, 0.21716870131197005, 0.2154919584080836, 0.21373643554163646, 0.2120503062929632, 0.21035012896682542, 0.20856092828755884, 0.20684237065354505, 0.2050658364659024, 0.20331719995535433, 0.20154986241509737, 0.1999249141086518, 0.198102884171442, 0.19626393795865726, 0.19442886782087912, 0.1925854647978432, 0.19057844862260043, 0.18873746043246847, 0.18706915175251088, 0.18517054782008197, 0.18326760643810458, 0.18116476921714786, 0.17927655367840226, 0.17735198274174335, 0.17543501359032093, 0.1735032750308311, 0.17177322596855268, 0.1697886853729428, 0.16768010346685452, 0.16571273377023021, 0.16373812621666406, 0.16176185318516312, 0.15977383021911834, 0.1578355394007383, 0.15583045177300184, 0.1538241191451348, 0.15177655063836945, 0.14977292601711506, 0.14768099874806873, 0.14568209284099562, 0.14367611974351516, 0.1419393795577088, 0.1398878758040709, 0.13774791975269343, 0.13573097338475856, 0.1337176403013091, 0.13164280089286692, 0.12964472858125595, 0.12778663744616334, 0.12577130252380836, 0.12376498078795303, 0.12173212974659026, 0.11974681510443173, 0.11768730165689761, 0.11572389039845168, 0.11376208305622727, 0.11196781071434857, 0.10999084261143188, 0.10791211772859918, 0.10597571763755756, 0.10404512930357868, 0.10226602206931307, 0.10033049333008795, 0.09847571505141614, 0.09656280470018433, 0.09466821067251333, 0.09261098314425924, 0.09077339097273374, 0.08917705455433793, 0.08732306179370229, 0.085490454837778, 0.08353821855134683, 0.08176344660919016, 0.07999489883814334, 0.07824388986646434, 0.07650517072826574, 0.07492951354981477, 0.07319846843673576, 0.07149017048579975, 0.06980405654018505, 0.06813969527805555, 0.06653679310371824, 0.06491003927004152, 0.06332665265332005, 0.061743724484152544, 0.06018467071844067, 0.05866919157232637, 0.05715453296361687, 0.05575429426319766, 0.05427681056914477, 0.052828470841456865, 0.05150858799669612, 0.050103832894331395, 0.04871708033208943, 0.04737913210933525, 0.04607134151291713, 0.04486815674054017, 0.0436095762232688, 0.042208944893330096, 0.041037790750975335, 0.03988844972803131, 0.03902200817384928, 0.03788622861577411, 0.03681462888125652, 0.035752778463644684, 0.03472923935783946, 0.03359792008650951, 0.03266649643559229, 0.03178278484177599, 0.030904924215646307, 0.030057262026209095, 0.029235310831822278, 0.028450232326386257, 0.02771164726530639, 0.026988213204044518, 0.026298241144196134, 0.02562215484740187, 0.025002942857698125, 0.02450742734546765, 0.023944730851605645, 0.02342191468519754, 0.023083883628086593, 0.022622046333162785, 0.022192913395877256, 0.021827244569066564, 0.021506330609338167, 0.02115946566873296, 0.02093504364293074, 0.02084488132450375, 0.020687125293057267, 0.02057446323199254, 0.02047142213035749, 0.020452122150305726, 0.0205099265670506, 0.020570497202599753, 0.020675411825038115, 0.020704530453384204, 0.02091314148389426, 0.021364412215238927, 0.02162325711657863, 0.021933203773300172, 0.022228478503505098, 0.022646768003229272, 0.023095680145987084, 0.023607281021986413, 0.02416400862312156, 0.024681152570902507, 0.025339892369887363, 0.026250111403174615, 0.026966061830599602, 0.027737156067372135, 0.02838248515234404, 0.029284324300355012, 0.030389231178246195, 0.03135780579509432, 0.03238027667051541, 0.03328611832825292, 0.03443666108596594, 0.035665517069970426, 0.03689939279682027, 0.03818076158048866, 0.039470285882358944, 0.040853694150418014, 0.04242430806987884, 0.04388512653483242, 0.04540256167333961, 0.04693616168409937, 0.04857066745764846, 0.05018842076815491, 0.05193843071595628, 0.05373796927598519, 0.05573777830965035, 0.05761933296792017, 0.059475611025593955, 0.0614867407037243, 0.0635515445374313, 0.06570520723956859, 0.0678734301293478