0.03088996636558157, 0.03057715298225333, 0.03031142819060933, 0.030110199389146608, 0.02991628052089173, 0.029748100330795457, 0.02961165693013792, 0.029497074293001694, 0.029396839840407363, 0.029316962650980324, 0.029217696914265512, 0.02916611205745815, 0.029122263445243702, 0.02907184813031766, 0.029042434454912086, 0.029024415068753823, 0.0290034134795252, 0.028987231777491233, 0.02897171827673714, 0.028965846566542948, 0.0289432918743788, 0.028950401296530853, 0.0289620044847158, 0.02898373319374238, 0.02900563252998405, 0.0290168077901184, 0.029055055381745222, 0.029100360910353996, 0.029185964033917957, 0.029243632896879056, 0.02929751204631736, 0.029379911861074, 0.029473592679895796, 0.029554188842323796, 0.029675359950418662, 0.0297815285872983, 0.029930061717725612, 0.030090181744897575, 0.030264435421493072, 0.030450102941040003, 0.03062245453750293, 0.03084056807908748, 0.03107261700943519, 0.0313576947443013, 0.03161516651531567, 0.031827749014437294, 0.032130234806407046, 0.032448160579352944, 0.032777347651637145, 0.03312915317932385, 0.03348503784979374, 0.033873969439732844, 0.03428080807226438, 0.034726182895447884, 0.03516823432216762, 0.03562946533902578, 0.03611376240368719, 0.03661948687889228, 0.037107860037995245, 0.03766235058053341, 0.038227862148853674, 0.03882446278613897, 0.039441889107794094, 0.040086558493736615, 0.040746634889513605, 0.041402890848113626, 0.042112373038718565, 0.042844002106233625, 0.043600874985425246, 0.044378241572390335, 0.04517957372134916, 0.046005338631126755, 0.0468559775918061, 0.047702788278462714, 0.048608095332719536, 0.04954283703009071, 0.05049700185857424, 0.05147705711904387, 0.052441056673777, 0.05347969485957462, 0.054564029900359, 0.05565058852452914, 0.05676466773882238, 0.057888440560793876, 0.05906128184040891, 0.06024200289044458, 0.06147361905774068, 0.06273303160156705, 0.06401921953909259, 0.06533631503543474, 0.0666828994270845, 0.06805949545699799, 0.06946658847322025, 0.07089048558148515, 0.07236168603845122, 0.07385636895801016, 0.07539094131413139, 0.07695699488524366, 0.07854585176367422, 0.08017741124132868, 0.08178467475411487, 0.08348839901666422, 0.08522208488934559, 0.0869898894351813, 0.08878547674801336, 0.09061760438608613, 0.0924779886823085, 0.09437204991483324, 0.09631683972508814, 0.09827733658352684, 0.10026938047653686, 0.1023019669141162, 0.1043703068207167, 0.10643544133000951, 0.1085806533351063, 0.11075398189623357, 0.1129682171057968, 0.11521682126675604, 0.1174951482145257, 0.11981410755136025, 0.12217220211996033, 0.12456082825854176, 0.12698510336011418, 0.1294276776288349, 0.1319257951036432, 0.13447965221259775, 0.13704518683134906, 0.13964712311142405, 0.1422687384589715, 0.14494532009177624, 0.1476212976570645, 0.15037275473722136, 0.15315735573864603, 0.15600029400571214, 0.15884866076716192, 0.16170546088341312, 0.16462716985255677, 0.16758213676936454, 0.17056373211944414, 0.17358608944516837, 0.1766221359419942, 0.17971251358869952, 0.18287526642104576, 0.1860237178890042, 0.18920604245971084, 0.1923785564546133, 0.19563283772701856, 0.1989339309290686, 0.20224635963415558, 0.20558966124587671, 0.20898764352737625, 0.21238865011338506, 0.2158091949911036, 0.2192734598423412, 0.22276708414956897, 0.2262937379547921, 0.22984407373930188, 0.23337507292885346, 0.23698702785759374, 0.24062329098911575, 0.24427535257000896, 0.2479606610171646, 0.25167241003495006, 0.25540324741976045, 0.2591567822199995, 0.2629317814424412, 0.26672957294610344, 0.27054453381228627, 0.2743850037651423, 0.27824552366598837, 0.2821763115542945, 0.2860688731945109, 0.28996016565834654, 0.29389692629417685, 0.2978515810780819, 0.3018000279030395, 0.3057909983749848, 0.3098227558508679, 0.31383805506813933, 0.3178677259945375, 0.3218792555760547, 0.32593898328731163, 0.32999781156344354, 0.3340781040748386, 0.33816640085040905, 0.34226209038722105, 0.3463645228946566, 0.3504547084209321, 0.35457085335432054, 0.3586905633617545, 0.3628456596100793, 0.36696646830190377, 0.3710889869785824, 0.375215745269448, 0.3793437656842525, 0.38345873846457634, 0.38758797213889423, 0.39174550656491397, 0.39586498026258415, 0.39998188474938107, 0.40408089940119135, 0.40819094337652756, 0.41228333028040093, 0.41638004518975524, 0.42046727956489455, 0.4245116514731093, 0.42858121739834304, 0.43267575257533697, 0.43671139392029934, 0.4407336371671094, 0.4447205797998792, 0.4487153568182132, 0.4526847888538111, 0.45664387785241567, 0.46058282978302106, 0.464485774220989, 0.4683836432963692, 0.47224864005318007, 0.476099396432287, 0.47992422931999984, 0.4837655920847951, 0.48753063740922753, 0.4912238942899714, 0.49494142655237955, 0.4986278925023586, 0.5022674777298571, 0.5058911644415909, 0.509528611672894, 0.5130764130411243, 0.5165908161641979, 0.5200189980862199, 0.5234694411106164, 0.5268841111256002, 0.5302534073915469, 0.5335814642096819, 0.5369090378927602, 0.5401468002870125, 0.5433330838375077, 0.5464878931094012, 0.5495982257353395, 0.5526538444143473, 0.5556731449345449, 0.558642591953503, 0.5615647675602331, 0.5644367559919067, 0.5672376630046024, 0.570009034028638, 0.5727338346090043, 0.5753954029243978, 0.5780018463678442, 0.5805140757927891, 0.583012665123867, 0.5854532086267006, 0.5878316718543413, 0.5901494951943561, 0.5923903023437649, 0.594587121410689, 0.5967614228525879, 0.5988260217776902, 0.60082861565696, 0.6027242431241625, 0.6046058370523454, 0.6064487239392555, 0.6081923130658988, 0.6098696034995718, 0.6114699135941365, 0.6130137945000326, 0.6144613193791454, 0.6158703107701, 0.6172077444508202, 0.6185082431865112, 0.6196971595417533, 0.6207713719592678, 0.6218240151232778, 0.6228023343344941, 0.6237102685197757, 0.6245387362399211, 0.6253073890444579, 0.6259840956566267, 0.6265862841035301, 0.6270877621793731, 0.627542999914204, 0.6279369487376841, 0.6282358672866336, 0.6284583230413644, 0.6285815974782165, 0.6286532269170583, 0.6286655681812131, 0.6285779158764859, 0.6284128881342088, 0.6281461922027858, 0.6278289976613839, 0.6274226711654491, 0.6269485482546381, 0.6263949273049338, 0.6257769749033594, 0.6250630305348116, 0.6242892961477422, 0.6234169163517685, 0.622467626813913, 0.6214305743857256, 0.6203287634515466, 0.6191078440254448, 0.6178564481308882, 0.6165255735565598, 0.615119103737258, 0.6136305018275124, 0.6121041707991485, 0.6104556809703288, 0.6087327565577749, 0.6069197657519565, 0.6050505465966747, 0.6030625712371843, 0.6010500448208316, 0.5989612764650872, 0.5968436967368945, 0.5945990431240916, 0.5922307994146953, 0.5898508461772863, 0.587397650382418, 0.5848862702352426, 0.5822875255157912, 0.579648981905337, 0.5769077087556084, 0.5740999000172257, 0.5712111211271568, 0.5682738029826679, 0.5652758509890143, 0.5622074323165649, 0.5590752553951801, 0.5558326806224042, 0.5525813700218162, 0.5492835513693954, 0.5459033156237302, 0.5424625486357909, 0.5389556583298878, 0.5353978656152388, 0.5318098270609817, 0.528134286362392, 0.5244048433907138, 0.5205957841867306, 0.5167646676478368, 0.5128809793172058, 0.5089459327353004, 0.5049657339835053, 0.5009309829595068, 0.4968488017633105, 0.49272120480873466, 0.48854761510457795, 0.4843127462477399, 0.4800549591858006, 0.4757548087160602, 0.4714111678207789, 0.4670307071523553, 0.46259519220815076, 0.4581413832250591, 0.4536509714619358, 0.44916705912198496, 0.4446026638726013, 0.4399651817578131, 0.4353477321809222, 0.43070029710345137, 0.42601607770853583, 0.4213142703110598, 0.416606492220717, 0.4118518215800975, 0.40707539325044406, 0.40229102977757736, 0.3974735380537949, 0.39259825719815866, 0.3877531351382593, 0.3828912282978073, 0.3780490935645609, 0.3731540049617621, 0.36824551823766044, 0.3633319656322163, 0.3584106808063973, 0.35349212505708805, 0.34855815314797317, 0.34361591975778066, 0.3386772963407538, 0.3337376488595476, 0.3287608570462632, 0.32382786465623553, 0.31893316622906936, 0.3139987774961617, 0.3090705726313583, 0.30411237250721446, 0.29920506308876815, 0.2943106323001279, 0.2894200408204603, 0.2845407324487756, 0.2796899820993422, 0.2748356128481248, 0.26996694780966535, 0.26515071249383926, 0.2603517558761429, 0.2555890443809825, 0.2508268771436859, 0.24612144708676306, 0.2414014551670971, 0.23670846843205134, 0.23202511805344517, 0.22739128256019656, 0.22275383528396908, 0.21818290619986996, 0.21364124042542157, 0.20914601542992917, 0.20466493977935887, 0.20024128852093545, 0.19582663856745042, 0.1914496349108831, 0.18709452265934468, 0.18279757480428713, 0.17853084700733526, 0.17431481903194287, 0.17013966395434812, 0.1660305592709055, 0.16193721353009424, 0.1578492104016101, 0.153852239005412, 0.14989982919202646, 0.14603049539813842, 0.1421656443953864, 0.13830060889697832, 0.1345421782402352, 0.1308319439005701, 0.12721918579841468, 0.12360224901254058, 0.11999833962057725, 0.11649461956188399, 0.11304334163252183, 0.10964945520938073, 0.1063048562611763, 0.10300184935933554, 0.09976936397694171, 0.09659224097809156, 0.09353686621902885, 0.09046407360188859, 0.08742303363527251, 0.08447566005552583, 0.0815875279274461, 0.07874975067738965, 0.07598204184298384, 0.07329378307800463, 0.07064280481915901, 0.06805298802164544, 0.06551276363217229, 0.0630469743602928, 0.06064606956353508, 0.058301350377157626, 0.05601786041595992, 0.053762384672733164, 0.05160574052664093, 0.049539381430544906, 0.047498115598117334, 0.04551856494011713, 0.043569028523954015, 0.04171663621075186, 0.03994800514785953, 0.038211937665983325, 0.036537026953520055, 0.034907279825649416, 0.033356104976559886, 0.03189619442658625, 0.03046018897277585, 0.029085312701090934, 0.02776445263846188, 0.026511302227113353, 0.02527841755649102, 0.024148534016090396, 0.02307497048722156, 0.02208005393326868, 0.02111582015972458, 0.020181964142484184, 0.019334626923579776, 0.018541822817635775, 0.017837356202201147, 0.017148328169857303, 0.016518003428246088, 0.015938582661788332, 0.015413272856960022, 0.01490137325083136, 0.014487041280218996, 0.014168868509273253, 0.013847316038447941, 0.013576977632395003, 0.013324478780959206, 0.01315790170163128, 0.013022980299333329, 0.012950908375057623, 0.012923290085061653, 0.012947019155453593, 0.013005534354977743, 0.013102021126596966, 0.013246320116994285, 0.013431725790623178, 0.01366993183029892, 0.013933583855588424, 0.014272377145604372, 0.014609267008913051, 0.014985587108076369, 0.01537593604177554, 0.01583037747140938, 0.01635243743523969, 0.016870338722309464, 0.017422427438771818, 0.017968313969239275, 0.01858989871524903, 0.01925135478833939, 0.019927018430853496, 0.02062975166631216, 0.021360194264136868, 0.02211377882947632, 0.022948850892082318, 0.023742280314113677, 0.02456090697702012, 0.02538075150653562, 0.026248126188845828, 0.027141713748958754, 0.028046179187275224, 0.028968232419544448, 0.029944117619538094, 0.030893042437636055, 0.03188059480698487, 0.03285756821516067, 0.03384914771228427, 0.03483052431064807, 0.03584979347275404, 0.03693210463464757, 0.03796131495798656, 0.03900026783008487, 0.0400640821665944, 0.04111592763107954, 0.042163291569935604, 0.04322772948218323, 0.04429507933916698, 0.045427359533441375, 0.04648893905342153, 0.04757677414044288, 0.04863973910279583, 0.04970389977411452, 0.050775165181210696, 0.05183613949488162, 0.052926752335263685, 0.05397665449116204, 0.05502295933842699, 0.05608669028479749, 0.05711873950807984, 0.05817355179264946, 0.0591878648673769, 0.06025977815764478, 0.06124990782931378, 0.06223373226531513, 0.06321039468678359, 0.06417659351756576, 0.0652059735607989, 0.0661398003374899, 0.06706449222095158, 0.06797424794083724, 0.06887644238245579, 0.06979645509765627, 0.07066590722341323, 0.07152116276368213, 0.07238018803264798, 0.0732012490254714, 0.07405763930630074, 0.07483869256798274, 0.07560455636338201, 0.07640814589090131, 0.07713343605123475, 0.07786678877858264, 0.07855745733414086, 0.0792319459000024, 0.07990580739919494, 0.08054272288850352, 0.0811931944843888, 0.08178918763264965, 0.08236741977836749, 0.08291792946259646, 0.08345950674314849, 0.08399159635780458, 0.08449083404547743, 0.08496973835858725, 0.08544800069981195, 0.08588296559234386, 0.0863280844269078, 0.08671945534854347, 0.08709237441015108, 0.08749147986566558, 0.08782103637508348, 0.08813407027354328, 0.08843019430488992, 0.0887091385217406, 0.08901566935074745, 0.08925417857452596, 0.08946117796220489, 0.08967179115938619, 0.0898661941288409, 0.09008192257337147, 0.09023953209433469, 0.09036939983390113, 0.0905016122987965, 0.09061954768283306, 0.09074264887932683, 0.09083059351342564, 0.09089895367081006, 0.09096398246901626, 0.09101722179512584, 0.09107416725684712, 0.09110353913848074, 0.09112698769013432, 0.09113796681626912, 0.09114099479758118, 0.0911300180332281, 0.09111983949302052, 0.09114072020810382, 0.09111382543320427, 0.09108424347167529, 0.0910325419236399, 0.09100178134383921, 0.09096983308584683, 0.09093579287563085, 0.09090153588849248, 0.09087629104852542, 0.09084329691592384, 0.09083331399003919, 0.09080478420413596, 0.09078225252871182, 0.0907573603124496, 0.09075040493245615, 0.09078804592149174, 0.0907934161518969, 0.09081081187470019, 0.0907935357525942, 0.09084321984900039, 0.09091126852383898, 0.09098478513470548, 0.09107289096753601, 0.09117095071134794, 0.0912925379044714, 0.09143694516387159, 0.091594790596893, 0.0917732045069031, 0.09196255014753231, 0.09218700621924518, 0.09246075093075602, 0.09273019760721166, 0.09302709586127254, 0.0933408249549561, 0.09369719634645146, 0.09407599996580776, 0.09449431616222403, 0.09494444286213974, 0.09543757399680677, 0.09595367567806967, 0.09649742031790508, 0.09708759427850676, 0.09771545007794243, 0.09837299131193016, 0.09908082406366209, 0.09985588226742718, 0.1006427424738991, 0.10147406259651069, 0.10231000999864497, 0.1032382227314552, 0.10420644329948264, 0.105226564527895, 0.10629391934355811, 0.1074413634289657, 0.10860286109131158, 0.1098152954655765, 0.11108307159311663, 0.112405084323126, 0.1137347782243476, 0.11517386428508404, 0.11667293488466134, 0.11822082759100255, 0.11982559296840864, 0.12149993981809983, 0.12322011160745604, 0.12498837158458578, 0.12683209148567764, 0.12873731580900016, 0.13068328679389565, 0.1327168402136838, 0.13480486880168563, 0.13696599677460972, 0.13919125801621246, 0.14152896383828062, 0.14387909030549867, 0.14624191101931408, 0.14873806965835376, 0.15130098760413768, 0.15392062590174785, 0.15662069810327742, 0.15940736987348186, 0.16224239833992335, 0.1651480457946426, 0.16808977343600923, 0.1711422574440085, 0.174263668044603, 0.17745634493366613, 0.18071980275476213, 0.1840503189762079, 0.1874571130590178, 0.19094223372781777, 0.19449181458144363, 0.19811395601420542, 0.20177799215857514, 0.2055494592821841, 0.20939614031629294, 0.21330942155510796, 0.21729438306762092, 0.22133361101100932, 0.2254642591968383, 0.22967475961329337, 0.23394567891278814, 0.2382878003415333, 0.24268596892521146, 0.24717180146032539, 0.25175892500603453, 0.25637990075834505, 0.26107185201926425, 0.26582172127493536, 0.2706554486406579, 0.27556264584978146, 0.28053215329139986, 0.2855692950652707, 0.29062599058898747, 0.29580240511772765, 0.3010550545000788, 0.3063552701666754, 0.311718358978899, 0.31713122605132804, 0.3226197426093389, 0.3281534540666557, 0.3337635403247514, 0.3394315647803456, 0.3451668510969412, 0.35094743990737814, 0.3567618823335976, 0.36265701841056835, 0.36860530586105705, 0.3746125622347118, 0.3806637310629529, 0.38675074553683386, 0.39290438201826755, 0.39910581369053755, 0.40531073607165957, 0.4116100575509543, 0.4179572918693778, 0.42433920729765395, 0.4307534355406897, 0.4372166054824751, 0.4437177445723443, 0.4502507303328968, 0.4568249809463042, 0.46343083737281576, 0.4700723313740594, 0.47674517779793013, 0.4833939281737688, 0.4901321685057702, 0.4968853267111939, 0.5036717924259243, 0.5104795763660057, 0.5172775475379827, 0.5241281357327968, 0.531029522270473, 0.5379062246293036, 0.5447983011903956, 0.5516467087171606, 0.5585718530107846, 0.5654974745083275, 0.572436443483064, 0.5793795172749192, 0.5863710620338195, 0.5933122949560234, 0.6002391506851541, 0.6071850450664692, 0.6141283213127693, 0.6210371750721932, 0.6279734277200938, 0.6349139111594744, 0.6418268816628476, 0.6487273571957539, 0.6555752037264777, 0.6624499289244917, 0.6692810798314229, 0.6761165957871419, 0.6829272774304427, 0.6897099559810407, 0.6964666048646342, 0.7032144390391044, 0.7099075756692609, 0.7165689206729117, 0.7231757778249391, 0.7297704742596225, 0.7363007069896758, 0.7428195753017127, 0.7492948065592672, 0.7557231551913851, 0.7621065383118077, 0.7684438288869098, 0.7747280489593958, 0.7809604554889692, 0.7871326574392755, 0.7932570614471256, 0.7993032384905733, 0.8053137118962647, 0.8112621657934029, 0.8171403882384712, 0.8229609550708652, 0.8287160628508681, 0.8344006174848231, 0.8400150159580632, 0.8455376942979923, 0.8510095151192559, 0.8563794694113327, 0.8617009657871628, 0.8669420483703412, 0.8721006283246786, 0.8771771865810586, 0.8821902268319756, 0.8870941915776931, 0.891912339385173, 0.8966057124247917, 0.9012524282818872, 0.9058092246033329, 0.9102696335657167, 0.9146354320137, 0.9189037512287505, 0.923076922888908, 0.9271567665015685, 0.9311314808487074, 0.9350057918077865, 0.9387876452096615, 0.9424563918010719, 0.9460308418527903, 0.9494903182906221, 0.9528444644279734, 0.9560321558201907, 0.9591796083095838, 0.9622248362816842, 0.9651460081404974, 0.9679543158842883, 0.97066735957829, 0.9732455161718473, 0.9756822855288605, 0.978035230126375, 0.9802710906814472, 0.9823885016292448, 0.9843887075060882, 0.9863084857607195, 0.9880659596272302, 0.9897059178877537, 0.9912251052240109, 0.9926281315563581, 0.9938648127779561, 0.9950336685512952, 0.9960790930749817, 0.9970051688800918, 0.9978029778153489, 0.998473217096432, 0.9990246501993166, 0.9994522944859966, 0.9997519824978696, 0.9999325735655762, 1.0, 0.9999313547773921, 0.999739545032668, 0.9993996631443873, 0.9989648780373408, 0.998400807743525, 0.9977184350131083, 0.9969122370383974, 0.9960375658695673, 0.9949781010431892, 0.9937443365646141, 0.9924530916754648, 0.9910395500671842, 0.9894910368377444, 0.9878365131657795, 0.9860975160081679, 0.9841969941066105, 0.9821790459242742, 0.9800184008132848, 0.9777704795082022, 0.975428699769412, 0.9729444002585296, 0.9703460312588895, 0.9675985511255769, 0.9647788223313473, 0.9618378772606587, 0.9587928020311685, 0.9556359122129906, 0.9524092196696953, 0.9490272774268496, 0.9455245774758088, 0.9419339057030469, 0.9382385436490283, 0.9344587923370015, 0.9305551570837346, 0.92651489144936, 0.9224169560832697, 0.9182192223726732, 0.9139240306959525, 0.9095311309090823, 0.9050571829343385, 0.9004736471654882, 0.8957988039464758, 0.8909974994866271, 0.8861490686803778, 0.8812358642115301, 0.8762084171473216, 0.8710970935355468, 0.8659026939456862, 0.8606286413528625, 0.8552598176749432, 0.8498315410392069, 0.844326837997091, 0.8387467440190719, 0.8330948989299256, 0.8273488964118596, 0.8215601626529295, 0.8157030389303638, 0.8097904261830808, 0.8038013914076912, 0.7977482831488615, 0.7916383641853295, 0.7854706389927726, 0.7792753754670546, 0.7729943973405473, 0.7666398418352643, 0.7602630038756143, 0.7538381191908164, 0.7473621970235428, 0.7408478573306, 0.7343061804289428, 0.7277073696709945, 0.7210711841644071, 0.7143987180908746, 0.7076936804208713, 0.7009304137854497, 0.6941675042487943, 0.687375443676597, 0.6805764001413026, 0.6737300898692102, 0.666832333913651, 0.6599488080836301, 0.6530460758545711, 0.6461288614207944, 0.6391940563563497, 0.6322459530514623, 0.6252884482393891, 0.6183193361313317, 0.6113477866892507, 0.6043719369408642, 0.597374730203746, 0.5903989180313581, 0.5834538603729734, 0.5764780337903644, 0.5695089916738392, 0.5625136429453514, 0.5555681471577583, 0.5486413436478469, 0.5417176579085742, 0.5348090048399825, 0.5279190168581845, 0.52104609380964, 0.5141716480061502, 0.5073453179488376, 0.5005423797340381, 0.49380476890669467, 0.48704951076653663, 0.4802799779736782, 0.47359502312909224, 0.4669420713765667, 0.4603488222660688, 0.4537622839745384, 0.4472197584178597, 0.44071218460079264, 0.43424700281279677, 0.4277707762996526, 0.4214017404522312, 0.41507723479325287, 0.40879736137527145, 0.4025649023552633, 0.39641569403508076, 0.3902788547700241, 0.38420048425338627, 0.3781730027656124, 0.37220257617003316, 0.36625628236366253, 0.3604078351943362, 0.3546130554273854, 0.34888396686565065, 0.3432160185940321, 0.3376221988220072, 0.3320790213304944, 0.32656654554840625, 0.32116016579637024, 0.31581960336388765, 0.31055446846515894, 0.3053482862726997, 0.30020372563684716, 0.29513949778316295, 0.2901467287464297, 0.28526883383467017, 0.2804165041052767, 0.27561499659816935, 0.27091963510254485, 0.2663003859304855, 0.2617254649386266, 0.25726450114597016, 0.2528747184576333, 0.24856754571208195, 0.24433782331845094, 0.24023536013105434, 0.2361564202502034, 0.23212969019927726, 0.22821899665504525, 0.2243890420068538, 0.22062686757461641, 0.21696109301123168, 0.21339205370612233, 0.20988646942505207, 0.20646331803322682, 0.2030952475032259, 0.19984071605781042, 0.19669974257618456, 0.19360355260463125, 0.19059068727845044, 0.18764102780223046, 0.18479686517368804, 0.18201941410895534, 0.1793404647098771, 0.17674220554356967, 0.17422378200013441, 0.17178688483315027, 0.16945286339772278, 0.1671737714932243, 0.1649759504893302, 0.16283731505891066, 0.16080339159028387, 0.15884726816898984, 0.1569703673488586, 0.1551713136969027, 0.1534729767000311, 0.15182534730670513, 0.15020138390909019, 0.14871535455428342, 0.14730255483418758, 0.14600009796957342, 0.14472796892194467, 0.14350086138127444, 0.142379876911327, 0.14132973578414681, 0.14036145972651112, 0.13944960427111314, 0.13860306487971175, 0.1378298327809623, 0.13712410520094948, 0.13647585332713666, 0.1359036330854026, 0.135417319881737, 0.13497002504522324, 0.13458640893266163, 0.13425868713584235, 0.13399987706418262, 0.13377516827932173, 0.1336383068836283, 0.1335576734185641, 0.13357810442815712, 0.13360132369754807, 0.13365797928594134, 0.13379443611798933, 0.1339827362614261, 0.13418923090419044, 0.1344817101070338, 0.13484803413013527, 0.1352288428873659, 0.13565558934416197, 0.1361145161994057, 0.13663087755646314, 0.13718113323628878, 0.13778000700423174, 0.13841742461561726, 0.1391304839241662, 0.13983659934252304, 0.1405664998206796, 0.14134694837947637, 0.14216067850358083, 0.14299048491667146, 0.14386859242250033, 0.14475495076232947, 0.1456907677547171, 0.14665116298226838, 0.14766580676401111, 0.14866809276322238, 0.14967578600609263, 0.1507246045750246, 0.15179246113607842, 0.1528797472136151, 0.15398164577604806, 0.15509135345700084, 0.15622349449364345, 0.15736791423993632, 0.1585391835425768, 0.1597024430743097, 0.16087347703920576, 0.16205444871493957, 0.16324203053406575, 0.1644149227164395, 0.16561427075659352, 0.16684095014088743, 0.16803898459753563, 0.16923774181197185, 0.17041673985720798, 0.1716153512861899, 0.17279134347858688, 0.17398251994917716, 0.1751661168457855, 0.176331184200906, 0.17749797554386554, 0.17868697819375343, 0.17982650801165379, 0.18095499572396576, 0.18206790888699656, 0.18317114652410474, 0.18421885074956051, 0.18529661603321132, 0.18635515126565347, 0.18743033738414766, 0.18844357887453725, 0.18943990318617923, 0.19041293582304838, 0.19136459128012884, 0.19229300915956646, 0.19319896155753233, 0.1940322396802674, 0.19489453155011793, 0.19572786745681686, 0.1965758599798177, 0.19734423183650593, 0.19807046557602426, 0.19878375149765373, 0.1994665113482058, 0.20012636301689662, 0.20074493154742695, 0.2013105940508658, 0.20186687573866408, 0.2023885017535459, 0.20290244994476536, 0.20334986365146446, 0.20374444795725438, 0.20412445852439373, 0.20446762131531138, 0.20473854985556844, 0.20501113276861652, 0.20528441413162862, 0.20547160072566092, 0.2055775273174871, 0.20569374695265036, 0.20576868011398597, 0.20579730097313306, 0.2057901812566774, 0.2057480228788856, 0.2056566573062837, 0.2055239359751572, 0.2053389662436613, 0.2051246794200841, 0.20488153647581528, 0.20458126598738313, 0.2042396492792964, 0.20388907112232238, 0.2034604844836069, 0.20294813971698522, 0.20244554334005932, 0.2019003351780288, 0.20133850197258507, 0.20070539397976225, 0.20000675601167012, 0.19929567086214403, 0.1985426599745953, 0.19779209535837103, 0.19695048729874307, 0.19604531449822127, 0.1951296027209532, 0.19417383696424564, 0.19316912063832134, 0.1921351957451893, 0.19104406972098972, 0.18993329745193774, 0.18878262969642765, 0.18761010676510095, 0.1863791379533807, 0.1851367418015062, 0.18382849347521737, 0.18248533719490828, 0.1810892222740106, 0.17967937154401295, 0.17826692846202474, 0.1767834180622721, 0.17526775912721781, 0.1737202541892016, 0.17214125561425161, 0.17049372012441164, 0.16885770617522192, 0.16718941699217998, 0.16553959242854482, 0.163802889780082, 0.16201669144459577, 0.16022917643387385, 0.15841423607805163, 0.15660250684536417, 0.15473099670494217, 0.15282835844192302, 0.1509110106144789, 0.14897063789536133, 0.14701953011370905, 0.14503358855839996, 0.14303893522022051, 0.14101142971468017, 0.1389655106767031, 0.1369500371492138, 0.1348630315070354, 0.13280467220499748, 0.13068504699699038, 0.12855473476080617, 0.12640221377581567, 0.12425248556920987, 0.12213786305739344, 0.11996154006485353, 0.11777820103113383, 0.11562970510736939, 0.11342794190994629, 0.11121173099321208, 0.10900425426663593, 0.10679301097756856, 0.10461674933046552, 0.1023946324265603, 0.10019417055653504, 0.0979697295457153, 0.09574734775572125, 0.09356066750136467, 0.09133936911809924, 0.08918324808956848, 0.0869652505593108, 0.08475664840434029, 0.08260406613887133, 0.0804085873662031, 0.07821976879262327, 0.07605000513592125, 0.07389255600301332, 0.07178517839893489, 0.06964867104922373, 0.06758605812740039, 0.06547377056048456, 0.06338106775162325, 0.061317108568640706, 0.059262574109140605, 0.05728096949307309, 0.05526112552101405, 0.05326542622434823, 0.051325551653376704, 0.0493744599246493, 0.04745899571828695, 0.04555984324061901, 0.04368808799282263, 0.04188978178116889, 0.04006800072107238, 0.03830062815360827, 0.036538298057347214, 0.03480884085775219, 0.033098297249238205, 0.03143703294430188, 0.02984697162845118, 0.028247293359924236, 0.026683876801998522, 0.02519784401622608, 0.023702925065888877, 0.022240330696832483, 0.020826194957444016, 0.01945195679354689, 0.018125531045940727, 0.01683147450446342, 0.015634914393052306, 0.014417811310342995, 0.013246628480940485, 0.012120655812906405, 0.011041864126594114, 0.01001536379487846, 0.009029105060604439, 0.00809035919844472, 0.007225296823203388, 0.006379486875788471, 0.005617161493942881, 0.004867816806773175, 0.00417112338197787, 0.0035271653771021144, 0.002936091806890519, 0.0023723139646174554, 0.0018909308592934024, 0.0014617312080096837, 0.0011351677417868963, 0.0008056149305447883, 0.0005409580201429807, 0.0003236269418535787, 0.00016362640480708983, 5.693055260458864e-05, 1.2558080343440867e-05, 0.0, 7.436695549872399e-05, 0.0002054364264841864, 0.00039953156053127104, 0.0006447489131598107, 0.0009883771826433732, 0.0013458888275424056, 0.0017648970456959564, 0.0022288100844584263, 0.0027730871725384614, 0.0034097609698255753, 0.004071842790187371, 0.004796961965873678, 0.005557641229371594, 0.00641227100481363, 0.007359191110240077, 0.008333199280136283, 0.009370947236695652, 0.010453281441994823, 0.01162089346474752, 0.012842842113635383, 0.014136992083504623, 0.015493662569648965, 0.016944682520294255, 0.01842300828744304, 0.019941234914575983, 0.021552331495521247, 0.023226680952388154, 0.02494608750627579, 0.02674956447834561, 0.028652144702395792, 0.030576177663848878, 0.032565117101176135, 0.034574696371189054, 0.036698521907100934, 0.03891173883550085, 0.04115615193518907, 0.04346437671419843, 0.04585543288367377, 0.04828849799468123, 0.050778573170886965, 0.05334127510257997, 0.0559674486759712, 0.058633562491745346, 0.06138891794039375, 0.06421487403293767, 0.06709190709057937, 0.07003074923168048, 0.0730470166374597, 0.07610688339545381, 0.07918804812873906, 0.08237683592001559, 0.08565877814627419, 0.08896129177178896, 0.09232463287914995, 0.09570680062024853, 0.09919585713901095, 0.10277465003143933, 0.10637410261187331, 0.11003246733610354, 0.11373767130145886, 0.11751405303024863, 0.12132992608186774, 0.1252220929332972, 0.12916951942750407, 0.1331578115703582, 0.13721676293665772, 0.14136344387597438, 0.14552508160244781, 0.1497417433307277, 0.1539679123713953, 0.15829854172398466, 0.16271152661419355, 0.16713940363678673, 0.17161928401118837, 0.17612729481834047, 0.1807123916643941, 0.18536307298777172, 0.19004354059068665, 0.19477302977907232, 0.19951598950591262, 0.20434611442128328, 0.20920398230629558, 0.21412639579576406, 0.2190922966614951, 0.22410471814332142, 0.22915623445066127, 0.2342379030851075, 0.23937579419708346, 0.24455464252050044, 0.24977234415826485, 0.25503195460050954, 0.26036010510283003, 0.26569432675057997, 0.271068479419055, 0.27646175194286177, 0.2819157663268543, 0.287370291227094, 0.2929007278697346, 0.2984640703173681, 0.30406488422203354, 0.30969207585600483, 0.3153510241670678, 0.321041122262569, 0.32676173021601956, 0.3325046899651442, 0.3382852284409483, 0.3440729685140245, 0.3499114597129766, 0.3557753941717187, 0.3616567168003058, 0.36757074162623804, 0.37353625466225854, 0.3794924783442491, 0.38547220597287873, 0.39142792114993086, 0.3974577784245163, 0.40354568817775943, 0.4096061708103192, 0.41568585316789447, 0.42177378495996, 0.4278902330897874, 0.43399247404659985, 0.44014332064919287, 0.4463064616758715, 0.45244546308783545, 0.4586357107397851, 0.4648208567039897, 0.4710287410161336, 0.4772430898436721, 0.4835033609608325, 0.4897240853811531, 0.4959119533210177, 0.5021509171057565, 0.5083927689799064, 0.5146601432840522, 0.5209027939137766, 0.5271308850439502, 0.5333788351812108, 0.5396259911953062, 0.5458415528471431, 0.5520883455697622, 0.5583225717426029, 0.5645594911978046, 0.570789540358325, 0.5769754218168726, 0.5831942531486184, 0.589437750148952, 0.5956293256760672, 0.6018107144312467, 0.6079452176132758, 0.6141079759968816, 0.6202307665321789, 0.6263659899115709, 0.6324834043126701, 0.6385616446321976, 0.6446443175161883, 0.6507103051503327, 0.6567502005099265, 0.6627682993656877, 0.6687430873012327, 0.6747180373076013, 0.6806902172321224, 0.6866111901664671, 0.6925068050195564, 0.6983644706968506, 0.7042079978727436, 0.7099702200437343, 0.7157617109662874, 0.7215195714373798, 0.7272308133624551, 0.7329214014827885, 0.7385992402883521, 0.7442142047135116, 0.7497932015830902, 0.7553253649161539, 0.7608310232543265, 0.7662583430719828, 0.7716896255383906, 0.7770777492122178, 0.7824221337513426, 0.7877221449282618, 0.7929454838356644, 0.7981586603661132, 0.8033235267258482, 0.8084303956866046, 0.81349813688457, 0.8185485658528339, 0.8235102987339468, 0.828422033462511, 0.8332728183833932, 0.8380829163545784, 0.8428245757507425, 0.8475287585977707, 0.8521768632596791, 0.8567340021674542, 0.8612719252264587, 0.8657827691245185, 0.8701952234363775, 0.8745480649724621, 0.8787854956527138, 0.8830234070515323, 0.8872276006491364, 0.8913304148048776, 0.895368762248978, 0.8993476951755113, 0.9032540528410405, 0.9070648241777434, 0.9108411103495015, 0.914547658306158, 0.9181506144224252, 0.9217201587157131, 0.9252313041271464, 0.928651852837948, 0.9319991227579415, 0.9352808849587725, 0.9384788818007513, 0.9415682621607239, 0.9446209137773744, 0.9475958450827486, 0.9504985084790338, 0.9533161190484565, 0.95605514108373, 0.9587150856842934, 0.9612954549577477, 0.9637799363803299, 0.9662016393074685, 0.9685488498744996, 0.9708052659791646, 0.9729793525649378, 0.9750348728614215, 0.977047448695725, 0.9790117597116879, 0.9808480292667711, 0.982600347509994, 0.9842340903477894, 0.9858213067990573, 0.9873245120916083, 0.9887364518740249, 0.9900608712294116, 0.9913066954573523, 0.992454232371588, 0.9935257234084214, 0.994496097052834, 0.9953788404748013, 0.9961319850590621, 0.9968436553458513, 0.9974535259097953, 0.9979846463120012, 0.9984242594092564, 0.9988140769619118, 0.9990657266706846, 0.9991818885732667, 0.9992613749853917, 0.9992829666964451, 0.9991742993551906, 0.9989758770429984, 0.9986509691786116, 0.9982773309534225, 0.9978182602553334, 0.9972598592862082, 0.996610246704527, 0.9958488093061609, 0.9950199704668018, 0.9941018251885466, 0.9930894377756728, 0.9919861208659948, 0.9908196648454861, 0.9895320148919616, 0.9881318439926395, 0.9866705761722615, 0.9851198253539953, 0.983499102791929, 0.9817680972808354, 0.9799498310479602, 0.9780445531918671, 0.9760525444937777, 0.9739350109542473, 0.971775450723999, 0.9695704247487584, 0.9672304153979563, 0.9648063086122178, 0.9622967976499001, 0.9597058168137598, 0.9569827406350988, 0.9542324379324092, 0.9513973704839389, 0.9485026072349954, 0.9454977604582593, 0.9423939660070199, 0.9392308494050029, 0.9359874815172822, 0.9326946968539933, 0.9292896814638351, 0.9257871050902813, 0.9222336123283081, 0.9186042989439844, 0.9149092026441222, 0.9111297572206872, 0.9072776932730413, 0.9033538568598708, 0.8993591161730153, 0.8952918651391684, 0.8911583231772949, 0.8869248537818814, 0.8826596630357474, 0.8783263528370869, 0.8739112096736146, 0.8694473296164068, 0.8649481931309824, 0.8603514560214638, 0.8556938686771048, 0.850958196832542, 0.8461844508281464, 0.8413470938046921, 0.83645800610889, 0.8315125461222417, 0.826497870237934, 0.8214453526003512, 0.8163337356382868, 0.8111768102609183, 0.8059690808877487, 0.8007510807626633, 0.7954410666319941, 0.7900833560815921, 0.7846861032455137, 0.7792464810920524, 0.773753174287963, 0.7682339118754429, 0.7626327139245753, 0.7570411485833336, 0.751410378059743, 0.7457545745975291, 0.7400488560485338, 0.734292134908046, 0.7285230647967625, 0.722722470391504, 0.7168803210512525, 0.7110229787556187, 0.705174847487794, 0.6992597221429045, 0.6933225098761895, 0.6873753213235481, 0.6813964639016918, 0.6753501274046573, 0.6693437143838434, 0.6633194564472079, 0.6572665616368797, 0.6512132257185103, 0.6451812629888626, 0.6390980657514505, 0.633006625189353, 0.6269149501633682, 0.6208102444715966, 0.6146551482273906, 0.6085500542385922, 0.6024411853874699, 0.5963344080961075, 0.5902225429705796, 0.5840946678609847, 0.5779895020171745, 0.5718879208996868, 0.5657882504550849, 0.5596991817705704, 0.55364331738865, 0.5475691490055348, 0.5415077301205786, 0.5354686841393381, 0.5294356168048531, 0.5234096767099705, 0.5174133168549119, 0.5114359544484334, 0.5054913762672846, 0.4995543397722586, 0.4936117694393057, 0.4877267663369213, 0.48186607114250474, 0.4760385850982684, 0.47022976757312773, 0.4644082262420993, 0.4586636914225054, 0.45294821384318606, 0.4472866536060734, 0.4416309739280236, 0.43599020311303, 0.4304080114588565, 0.42486196666177717, 0.4193425701112113, 0.41387409633441224, 0.408473276038998, 0.4030812342853352, 0.3977326576379346, 0.39243266698456786, 0.38717336277569897, 0.38192648365791526, 0.3767654543217735, 0.37165080669170053, 0.36656786743994774, 0.36155134130951205, 0.3566168591811941, 0.35169477909781677, 0.3468255318535769, 0.3420015506982674, 0.3372412660062129, 0.33250810224647304, 0.3278612164531945, 0.3232688838277042, 0.3187644941044233, 0.31427993322753434, 0.30985358080513714, 0.30548773665452245, 0.3011819353043095, 0.29692587234791273, 0.2927430456419516, 0.28857954364759975, 0.2845243820466434, 0.28052888772733753, 0.27660221113057204, 0.2727274204386425, 0.2688950821836329, 0.26514822728957915, 0.26146376051856307, 0.25784231492835485, 0.25428445929636956, 0.2507832137630493, 0.24735495365830254, 0.24399122210019433, 0.24070740426501563, 0.2374720067940381, 0.234332996017698, 0.23122681133423936, 0.2281889771005602, 0.2252135014559442, 0.22231260299998312, 0.21944261728661982, 0.2166812691898141, 0.21398513171767405, 0.21136849820341888, 0.20880139042905757, 0.20631722900619606, 0.203880523606794, 0.20151082042123303, 0.19920533006767993, 0.19696905730112513, 0.19478625578606718, 0.1926831589011779, 0.19064468658066583, 0.18866644203137417, 0.18675700620123525, 0.18488870081161424, 0.1831090087073111, 0.18139104500100853, 0.17976293092578188, 0.17816429165784012, 0.1766066803230687, 0.1751355577094309, 0.1737247865611771, 0.17234984177683968, 0.17106159960524317, 0.16986766797848138, 0.1686898919464184, 0.1675628820549709, 0.16650362312851805, 0.16550155646855716, 0.16456766651806687, 0.1636764992442913, 0.162841126193468, 0.1620607314748973, 0.16133449269408726, 0.16062413860738606, 0.1600084494465336, 0.15943481437057574, 0.15891860370086297, 0.15845036251944097, 0.15803200464623865, 0.15765759265405963, 0.15733606141815817, 0.1570525231983066, 0.15681408136884573, 0.1566074018482101, 0.15645814747986309, 0.15639475990631535, 0.1563226510022066, 0.15629312255946862, 0.1562874729455937, 0.15634164684666665, 0.15644793283008684, 0.1565752149994927, 0.15673917780787702, 0.1568887386936802, 0.15712890403109717, 0.15744359439425837, 0.1577383058162364, 0.1580644117387664, 0.15836915746119737, 0.15876107861420002, 0.15923127018160668, 0.1596657689047735, 0.16012677245633486, 0.16056228423184452, 0.16107900486180482, 0.16161570469933625, 0.1621715964012811, 0.1627458553093453, 0.16336674482986144, 0.16397145284431608, 0.16461014444208286, 0.16524626398674852, 0.1658983294862377, 0.16656255979420695, 0.16724300369108144, 0.16791800186168337, 0.16862351731804598, 0.16933771464202851, 0.17007871643796604, 0.17080481492941937, 0.17153845910463214, 0.17227671414789839, 0.17301942024252523, 0.17374880692884967, 0.17449915068019756, 0.17520891349986406, 0.17596385298727568, 0.17671482072373748, 0.17749199651739203, 0.17822927421454077, 0.17894990350253193, 0.1796794729071808, 0.18040227977639034, 0.18110500805378574, 0.18181335760722292, 0.1825067360633378, 0.18319501824814005, 0.18387154895875887, 0.18453477671975121, 0.18518574101633353, 0.1858135682069914, 0.18643698487761873, 0.1870444290309154, 0.1876402268162933, 0.1882130886035394, 0.18875991861851557, 0.1892976880997515, 0.18981584114940475, 0.19034202414953053, 0.1908154388917168, 0.19126307451791186, 0.19169645276796884, 0.19210785754941656, 0.19252399807745704, 0.19288576718227451, 0.1932274365473417, 0.1935428099057661, 0.1938340042590342, 0.1941002154547331, 0.19434068983728967, 0.19450147094823117, 0.19469513147218928, 0.1948580810927492, 0.19500847445415703, 0.19510722251393894, 0.19516497896510973, 0.19520441256516596, 0.19521241303822837, 0.1952203792363641, 0.1951608636738418, 0.1950519094182094, 0.19493375315161612, 0.19478334765943142, 0.19461794107679242, 0.19440017151151995, 0.19413137557849372, 0.19385193533022355, 0.19353894488528348, 0.1931864928392746, 0.19280689098193696, 0.19242564275817298, 0.19197374993466426, 0.19148959952287928, 0.19096380289590179, 0.19041563018941837, 0.18979084209220876, 0.1891814041013421, 0.18853614307261543, 0.1878778905721377, 0.1871592259617295, 0.18638791505919222, 0.18560479679748276, 0.18478740106399807, 0.18397017083993472, 0.1830808917153343, 0.1821444208996836, 0.18119442570885996, 0.18021229880353062, 0.1791650076656, 0.17812358942663864, 0.17709972416872016, 0.17598605373419332, 0.17484314979556054, 0.17363120531686033, 0.17243531683407917, 0.171259219214896, 0.16999555298296393, 0.16870489879439585, 0.1673874056388809, 0.1660432711770517, 0.16463280050018494, 0.16324120388923657, 0.16182157656713908, 0.16040871356734013, 0.15893075011569366, 0.15744949980208361, 0.1559211250658903, 0.15437065117568294, 0.15276591868747597, 0.15117626839810488, 0.149620289535818, 0.1479783576741759, 0.14631807263792623, 0.14462636529904693, 0.14293184992215807, 0.14121248988735327, 0.13948296071493477, 0.13773594589439675, 0.13604197583091532, 0.13425309189442508, 0.13245844910139853, 0.13064579896482187, 0.128822251493106, 0.12697724354450363, 0.12513410490414997, 0.1233386846044909, 0.12146767915261841, 0.11959055419531697, 0.11771246366959268, 0.11582304689023958, 0.11395600333310002, 0.11205332014113387, 0.1101479120930441, 0.10823673901866196, 0.10632724982206294, 0.10445755703607616, 0.10253973604552737, 0.10062357787881122, 0.09876014524382593, 0.09684190450377861, 0.0949717762719173, 0.09305965192632895, 0.09115594507225573, 0.0892972536321781, 0.0874058452549773, 0.08551359367532148, 0.08364530393068144, 0.08178736089514464, 0.08001418003369329, 0.07816874562070407, 0.07638158688985608, 0.07456246617952803, 0.07276169011987432, 0.07100661622702177, 0.06923890241441594, 0.06751864693214162, 0.06578752599120617, 0.06406072430855435, 0.06237547367626857, 0.060711311810830434, 0.059146899224091595, 0.05751644974962754, 0.05590472480793582, 0.05432943679284765, 0.05278089132760026, 0.05133928579672293, 0.04983517890416731, 0.048345208418351666, 0.046908206106173425, 0.045502567637741374, 0.044145241063227765, 0.042801232722703676, 0.04151148685132343, 0.040232164349570984, 0.038988325275071525, 0.037860198493069847, 0.0366783568947196, 0.03554439799143516, 0.03444405983703683, 0.0333852281868861, 0.032391267637139044, 0.03141280548513591, 0.030453516096958472, 0.029564848781266723, 0.028718496256143852, 0.02798567710161906, 0.02721653787794503, 0.026499440702314078, 0.025825564058795755, 0.02519994286872666, 0.024647698359093376, 0.024115983759868176, 0.02362462529765689, 0.023194998084906233, 0.02281550689706287, 0.022523943941698717, 0.02224108158610943, 0.021995810182975296, 0.02182189286945909, 0.021700839115566667, 0.02162554041187493, 0.021612324935535953, 0.021667737923184358, 0.02176043084309966, 0.021908615390323915, 0.022113503334040104, 0.02237371648387673, 0.02274305583085259, 0.023110453126134512, 0.023538294552590537, 0.024022396347110796, 0.02457163060685364, 0.025142871615011247, 0.025817642634970207, 0.02655084444948504, 0.027367095854457082, 0.02821555523890354, 0.029122705497737204, 0.030094082799388053, 0.031126965056514303, 0.032216608885190116, 0.03337387332106266, 0.03463552513360088, 0.03591159954818163, 0.03725253130619414, 0.03866820320075603, 0.04013730950795624, 0.04163083594765965, 0.0432353638960894, 0.04490259228456264, 0.04665358209319533, 0.0484443375428025, 0.05027637260937803, 0.052199249512473234, 0.05418543869376811, 0.05626426597452327, 0.05837398323622756, 0.060561658544680014, 0.062800642765539, 0.0651055892711812, 0.06744301296837632, 0.06988349441282922, 0.072420777522139, 0.07498418629168438, 0.07761314555994737, 0.080300772564903, 0.08306100293065237, 0.08584831046090752, 0.08874215661309615, 0.091698103306509, 0.09473625332089833, 0.09781423363334205, 0.10092908164307639, 0.10413726307565131, 0.1074071243735118, 0.11073869565273038, 0.11413196456044315, 0.11760934424081958, 0.12112297552522629, 0.12469930166784558, 0.12835296389245798, 0.1320517723905446, 0.13578812640867494, 0.13961462560825222, 0.14350128016934482, 0.1474303512864515, 0.15143870648829105, 0.15553616106440296, 0.15965706550259842, 0.16383760343232132, 0.16803567036339773, 0.17233922729476495, 0.17671937446317082, 0.18113170837974563, 0.18560061171608883, 0.19012732495334028, 0.19470786908613058, 0.1993204584082759, 0.2040141474615834, 0.20876088786289407, 0.2135462114081388, 0.21839983683279607