0.03349950330968561, 0.033168872264815026, 0.032851559663030085, 0.03259091257470572, 0.032355446870910486, 0.032211053393561846, 0.03200643142172385, 0.031743110689204476, 0.03158409942164603, 0.03143462469473622, 0.03129441319996027, 0.031159709441591295, 0.031002158106122547, 0.03088226893183351, 0.030765398077808464, 0.030662176289215925, 0.03054956906093824, 0.030499220919262587, 0.030386080097600285, 0.030279834109781977, 0.03016579572796583, 0.030074436231081116, 0.02997064959758605, 0.02989287072916172, 0.029820006170466883, 0.029712835266309374, 0.029656023169197476, 0.029613961865325823, 0.02956444321090317, 0.029520979932837706, 0.02950099569376619, 0.029469345041588563, 0.02936844149168015, 0.02936463662802589, 0.029363657276663166, 0.029371637748643785, 0.02938668061007499, 0.02938445588174477, 0.029419379155033266, 0.02947797905650251, 0.029527942500049503, 0.0295885164881768, 0.029672296058725792, 0.029754289233082005, 0.029870791881606747, 0.02997620219786117, 0.03009639864496464, 0.030250716848982968, 0.030398439322170415, 0.03047237127959334, 0.03066395616935265, 0.030866715665431244, 0.031101802630811595, 0.03132649106871503, 0.0315427152113134, 0.03179936851309156, 0.03206983560518252, 0.03241946217140013, 0.03271086481965545, 0.03302114006103322, 0.03335016474662615, 0.03369785058462699, 0.03404133167896609, 0.03442908744433437, 0.034808935423332736, 0.035234699059947076, 0.035676779531181195, 0.03613439635824255, 0.036610500099041134, 0.03705362637173632, 0.03757136601615454, 0.03810444510653631, 0.038658410512443425, 0.03922373265593632, 0.03988355069285611, 0.04047501819392313, 0.041089494296565554, 0.04162837990666974, 0.04230090089307756, 0.042995375128312634, 0.043702351833119775, 0.04442820661256401, 0.04517474060576414, 0.045939954548486046, 0.04675459256407221, 0.04755784987383171, 0.04838423109984393, 0.04925911863314306, 0.05012907620092973, 0.050983276277708024, 0.05190849353160144, 0.05285646261980391, 0.053822739180423636, 0.05481787422107076, 0.05579689385557778, 0.056844388663493096, 0.05791383495985371, 0.05903467320139698, 0.06014620630830693, 0.06124821280235659, 0.062414969386227086, 0.06360553468655325, 0.06485522209066637, 0.06609045006384993, 0.06737080815813495, 0.06865809543901619, 0.06997369987898376, 0.07127434953946962, 0.07265191264530037, 0.07402644678205446, 0.07545956129646332, 0.07691749161342643, 0.07845597301609078, 0.07995802798017622, 0.08150737470467981, 0.0830656332620718, 0.08465402503039508, 0.08619790837816405, 0.08785538004688201, 0.0896018890896101, 0.09130259467709037, 0.09303314639349586, 0.0947465651109738, 0.0965422705333254, 0.09835996302882018, 0.10021011273593014, 0.10208726191424383, 0.10401084401196044, 0.10594020074318108, 0.10790780499039053, 0.10989320074144714, 0.11190770217847308, 0.1139679859888677, 0.11603818074314803, 0.11812482404467363, 0.12025572810889834, 0.12241502094262549, 0.1245965626534316, 0.12681297696543303, 0.12901740271725756, 0.13129398313926702, 0.13359575476148755, 0.13587729073986465, 0.1382357425048539, 0.14067848354934778, 0.1430757352757584, 0.14550023474624688, 0.1479445401553248, 0.15042371968071047, 0.15292899589277723, 0.15546015767987592, 0.15801697718419733, 0.16053198039496896, 0.16314786896270345, 0.1657740605169097, 0.1684337832240663, 0.17111443133185042, 0.17389542536538713, 0.17660838314621505, 0.17925820216261984, 0.18203313025414294, 0.18482746474581999, 0.18770732315928276, 0.1905323129030104, 0.19336486036713005, 0.19623751181084678, 0.19913118155403098, 0.2019769449279118, 0.20491981470524898, 0.20794438964286124, 0.21091029799850747, 0.21389558560672506, 0.21684559182548474, 0.2198745638784477, 0.22299962334641113, 0.2260469842433175, 0.22911294481327688, 0.2320993166499887, 0.23521197632597507, 0.23839388253268232, 0.2415198857223691, 0.24465942321767503, 0.24780102568076737, 0.2509670055368969, 0.25410070307461263, 0.25729344546702526, 0.26049353561818617, 0.26373673870825, 0.2669461643682587, 0.2701844603384163, 0.2734075416397839, 0.2766388530772258, 0.2798199105001309, 0.2830724097942155, 0.28630336656381306, 0.28956348621331474, 0.29282397582238573, 0.2961266058929583, 0.2993817148828684, 0.30263622362895515, 0.30589448083110055, 0.3091528854202957, 0.3124178941230696, 0.31567343706998996, 0.31886484616703226, 0.32212404920807985, 0.32537640209839996, 0.32865160276349714, 0.33188545334539793, 0.335086603885169, 0.338310496095149, 0.3415251603424886, 0.34478648530291783, 0.34797391175174525, 0.3511583602697295, 0.3543285281007141, 0.3574890325503939, 0.36060638620722646, 0.36374847347537237, 0.3668759462598264, 0.3699880738855834, 0.37308411594432156, 0.3761213044955274, 0.37918823325557316, 0.3822188418334934, 0.38524588569264023, 0.38825042966538503, 0.3912692947690804, 0.3942228931473178, 0.3971751486907924, 0.4000818251819392, 0.40296622020316764, 0.4058009211597682, 0.4086411123111506, 0.41144019517891306, 0.41422807730586, 0.4170109978807125, 0.419737273604345, 0.42243465331071606, 0.42512629283043546, 0.4277602897139906, 0.4302885689643807, 0.43287094295327067, 0.43541698505771936, 0.43796956878613474, 0.4404363985989753, 0.4428093244608209, 0.4452126204986256, 0.44757591598615437, 0.44995291460205755, 0.4522283696781057, 0.4544693612081528, 0.456667352220767, 0.4588257466497278, 0.4609052654731192, 0.4629867639842922, 0.4649891833667783, 0.46698607616043786, 0.4689357738771679, 0.4708524525719039, 0.47270520209168054, 0.4745827763533535, 0.47633153877066736, 0.4780361934360912, 0.4796500516217768, 0.48126911801587136, 0.48287091338464494, 0.4843859876269619, 0.4858521568029383, 0.48725544597992315, 0.4886232086218092, 0.48986590540327124, 0.4911387141512168, 0.4923545063211966, 0.4935145651238548, 0.4946163672527552, 0.49565411231979223, 0.4966430507707999, 0.4975745641790331, 0.49845938685425006, 0.4992744417045289, 0.500064793814762, 0.500761281100662, 0.5014019953310324, 0.5019552186283834, 0.5024868536604858, 0.5029379373207795, 0.5033542613298001, 0.5037101092139846, 0.5040319053904092, 0.5042634804765092, 0.5044336460571667, 0.5045472636856377, 0.5046012684943626, 0.5045762649197089, 0.5045129291752464, 0.5044244102421888, 0.5042341429871341, 0.5039847394969612, 0.5036219089028631, 0.5032603036771128, 0.5028442521592335, 0.5023561664928001, 0.5018062481233114, 0.5012054829970403, 0.5005310734792099, 0.49979717524920286, 0.4990013281421931, 0.4981450591441074, 0.49720086876489544, 0.4962276030262254, 0.4951999593629679, 0.4941030078555564, 0.4929456447324308, 0.49175339507609767, 0.4904729659700818, 0.4891525021974421, 0.4877538379786243, 0.486298429935042, 0.4848271453062814, 0.4832532850075558, 0.4816120586039857, 0.4799314093106049, 0.4781956645455799, 0.47640014884230864, 0.4745552577765611, 0.4726483467155148, 0.4706950585077632, 0.4686872418649019, 0.4665557288412458, 0.46444907786340134, 0.4623214808209377, 0.460097455433726, 0.4578206513988857, 0.4554905972477761, 0.4531105759916337, 0.450683501897315, 0.4482024616237008, 0.4456724625842399, 0.443118238941722, 0.44048946522736443, 0.4377624527848996, 0.4350500850713396, 0.4322904854455581, 0.42953872464708104, 0.42668094685696967, 0.42378204266138764, 0.42084256500348, 0.4178631069677242, 0.41478667308525025, 0.41173646622760135, 0.40868705659341736, 0.4055502842903806, 0.4023770003272047, 0.3991595987392377, 0.39591676700237766, 0.39263580145001187, 0.38932528169040026, 0.38598187781519605, 0.3825837458402273, 0.37918036091244917, 0.37575052584806534, 0.3722851922867516, 0.3687911842202185, 0.36524198007150366, 0.36169737773971405, 0.35818942688736605, 0.3545841155560239, 0.3509579460707273, 0.34730803449411923, 0.3436427952391022, 0.3399095377451849, 0.33621378112891276, 0.3324981940796117, 0.32881449471201657, 0.32505672993602497, 0.3212125368558053, 0.31743845471583093, 0.3136487250026789, 0.30984360613081513, 0.3060270608362582, 0.30220143585786774, 0.29836296016707087, 0.2945157702069008, 0.2907127328908207, 0.2868452902782798, 0.2829780810214879, 0.27910675169407495, 0.275234924861976, 0.27135738947345756, 0.26748772884827593, 0.26360648184221697, 0.2597426431897278, 0.2558815222378489, 0.251984544520141, 0.2481369941244429, 0.2443602859203202, 0.24051280806571296, 0.23667536883871412, 0.23284629062085274, 0.2290314320494638, 0.22515309826322047, 0.2213729399735718, 0.21760235167911493, 0.21387520548346683, 0.21012396699212627, 0.2063690933676428, 0.20265244873757807, 0.19895231746456496, 0.19529504713106396, 0.19162812733788628, 0.18794041891349914, 0.18432210349980038, 0.18072431740950065, 0.1771914381422352, 0.17363267217287545, 0.17013020758616548, 0.16662089883540276, 0.16314091935458028, 0.1596234812110649, 0.1562120184344923, 0.15282152438858207, 0.14946582581711318, 0.14613883798817107, 0.14290280499128996, 0.1396284984496552, 0.13632681803224267, 0.13313090076788023, 0.1299673303698847, 0.12688265487230263, 0.12378074445067941, 0.12068516797969632, 0.11766272478247802, 0.11467693241379244, 0.11171406830778821, 0.10880542065633583, 0.10599820634257728, 0.10315783604677557, 0.10036382771002925, 0.09760864436069558, 0.09489669359019104, 0.09221010934021986, 0.08958734879878041, 0.08694847196550798, 0.08441891033168654, 0.08192943151163883, 0.07956487057529749, 0.07714725529551826, 0.07470579813464202, 0.07239104775031314, 0.0701191982009231, 0.06786198553524825, 0.06568117547334035, 0.06361517504322875, 0.06151144498627105, 0.059455728459644364, 0.057451541656514615, 0.05549115002851895, 0.053570339853531504, 0.05170688763852158, 0.04989076761910288, 0.04806193582936179, 0.046348011314160095, 0.0446983845258822, 0.04307009590109427, 0.04148764893326556, 0.03997519299844631, 0.03848176840693846, 0.03699380949631124, 0.03560049608388985, 0.03425195675136367, 0.032962742507019645, 0.031702309459549625, 0.03047812997761501, 0.02931050435997708, 0.02818792264181746, 0.027095875021263954, 0.02606485609987353, 0.025142484389171445, 0.02419081444286377, 0.023286375604560067, 0.022409261936537948, 0.02159964822963361, 0.0208341705044032, 0.020112353636047325, 0.01943371939225243, 0.018828999556761945, 0.018231332464624887, 0.017665132599949257, 0.017155179043911496, 0.016686549386303234, 0.016186603015243828, 0.01580790906379239, 0.01548029211132191, 0.015170545355679162, 0.014897033680926505, 0.014693089296914747, 0.014486903701589357, 0.014305853383703989, 0.014174788204897034, 0.014078829931679807, 0.014014989943754896, 0.013987771073698453, 0.013972106600435743, 0.014013335843436319, 0.014085275857828344, 0.014187457136322799, 0.014319374428426398, 0.014490093944959412, 0.014678624459630198, 0.014895727728608418, 0.015213938360848724, 0.015476819706142451, 0.01572102823894734, 0.01604990830934604, 0.016403991323773563, 0.01679927649340545, 0.017199217127288974, 0.017652897618197126, 0.018095557322284107, 0.018561767831750377, 0.019029973512092926, 0.019542470790453213, 0.02011247920588852, 0.02065744400490894, 0.021221944772422455, 0.021852853815468403, 0.02244695491252673, 0.023086390158158897, 0.023713591417665658, 0.02435847046456204, 0.025030373094879, 0.025704958367141654, 0.026358907460053704, 0.02706496214448384, 0.027780738227131285, 0.028493368127052974, 0.029227546824723342, 0.03007511680458691, 0.030808183234609644, 0.03155241907345837, 0.03225586893221514, 0.03302433332152412, 0.03387250001319795, 0.034638716601688976, 0.03541163545686008, 0.03615627314688361, 0.03694284284989923, 0.03775922953891726, 0.03854334033485045, 0.03932846446866938, 0.04012922962074856, 0.04091153017172225, 0.04170256328885852, 0.042480966668437134, 0.043257218732035474, 0.04406043073372911, 0.044825937200599915, 0.045665274672222846, 0.046414075625939154, 0.04716229125752591, 0.04789885628058404, 0.048642869736440456, 0.04938897718294889, 0.05012085053832552, 0.05084608870322478, 0.05167664790984366, 0.052371746024342095, 0.05305569400181312, 0.05374478437082137, 0.05442767502993806, 0.05506356817454877, 0.055735661347051, 0.05643219283939281, 0.05707607525962255, 0.0577094561435312, 0.05837847506296433, 0.058982971086468446, 0.059564582304326694, 0.060150556365504634, 0.06072454959222324, 0.061353268115248154, 0.06189330128171188, 0.062403360691060304, 0.06292598233128976, 0.06343628994247912, 0.06398183781256543, 0.06446012279681368, 0.06498404174117571, 0.06543297165740623, 0.06587310733832309, 0.06632637045715999, 0.06674351143735283, 0.06708245857984942, 0.06748804361146772, 0.06787878923306621, 0.06831003173409175, 0.06866448633117805, 0.06899083143128658, 0.06932457152495658, 0.06964567594850836, 0.0699794094768021, 0.07027226455794952, 0.07055660343479912, 0.07082730532934031, 0.07108725628180021, 0.07142898116192792, 0.07165604568720088, 0.07185634311631056, 0.07207531182289395, 0.07228701625265684, 0.0725441930971664, 0.07273451625386519, 0.07285210128428712, 0.07304218763188401, 0.07322369467035204, 0.07347755698497746, 0.07363325798012521, 0.07371563659357558, 0.07387523798247915, 0.07402832505110121, 0.07418158565106169, 0.07432295121861074, 0.07454186235511331, 0.07466538979070257, 0.07479075376196695, 0.0749323976192427, 0.07505981714526645, 0.07519626631170774, 0.07532915622526577, 0.07546584435509525, 0.07557300153880639, 0.07572246780175382, 0.07585690907070683, 0.07601537380899141, 0.0761773414205234, 0.07634254837528845, 0.0765144817010288, 0.07672746854305149, 0.07690841357006233, 0.07709942214738295, 0.07735636924994727, 0.07756250420592312, 0.07770820900555775, 0.07795460495481414, 0.07829665598149267, 0.07855670654857706, 0.07883516893274058, 0.07912158362308883, 0.07943934444776524, 0.07976535231888196, 0.08012321131094247, 0.08050081343031633, 0.08089414912221646, 0.0813142437006218, 0.08172743743188467, 0.08219588528208206, 0.08268640841221911, 0.08321934749098564, 0.08375496457287218, 0.08436388137558544, 0.08494744560870018, 0.08556193465925038, 0.08614785219415055, 0.08683341636111035, 0.08753745006059342, 0.08828405837508986, 0.08906156237573853, 0.08989993121034942, 0.09073901393134112, 0.09159595763157592, 0.09250987243591913, 0.09346027701215373, 0.09445532993618855, 0.09548064681260471, 0.09653725335224064, 0.09764385220207412, 0.09879132506179304, 0.10004177379974483, 0.10126585523224116, 0.1025380079694792, 0.10385600039549354, 0.10522161554941438, 0.10667125999381541, 0.10812877093875504, 0.10957596358294874, 0.11114321986291609, 0.11275837541641212, 0.1144774359085389, 0.11618373043979104, 0.11787007385073373, 0.11969246814227237, 0.12156462227384986, 0.12353428576540486, 0.12550277575809793, 0.12754430117232535, 0.12962098020615895, 0.13175452388910408, 0.13392119353522974, 0.13617233552386507, 0.13842823414044952, 0.14079916625005331, 0.14322456910163645, 0.14574974275656583, 0.14828103942818033, 0.15090174302901488, 0.153548352885053, 0.15625666776450875, 0.15896911057879687, 0.1618082808373075, 0.16473491633838305, 0.16768828795187923, 0.17070295361484303, 0.17377911456777947, 0.17691695117132503, 0.18012862782552908, 0.1833887530525841, 0.18671163899933174, 0.19006006491023855, 0.19351315466281838, 0.19708329499194746, 0.20065075865870452, 0.2042824776039442, 0.20798535770110427, 0.21174379347927152, 0.21547838118745086, 0.21937514216639123, 0.2233301059306004, 0.22739647197957832, 0.2314622025762474, 0.23563799376845276, 0.23982143767489741, 0.2440690115068689, 0.2483127692348101, 0.25269498426414655, 0.257121082253711, 0.2616215921283794, 0.26617931872074063, 0.2708181793546851, 0.2754869606082923, 0.2801718227803885, 0.2849616526199745, 0.2898062677971028, 0.2947198916663576, 0.29967163696225063, 0.3046674173641298, 0.30972971398025456, 0.31484521196199466, 0.3199930108968496, 0.32521596890659704, 0.3305061712722404, 0.3358274107708269, 0.34119903459126405, 0.3466299258301733, 0.35209890362882307, 0.3575865195603658, 0.3631556926335869, 0.3687700056254723, 0.3744575670887569, 0.38015635332917336, 0.38583840802413827, 0.3916328501926014, 0.3974661848561, 0.4033546092235116, 0.4092616990119657, 0.41519217167283806, 0.4211757120342601, 0.4271942931389679, 0.4332121867048225, 0.43930246360127906, 0.4454625618393439, 0.45160746605014424, 0.45778318239786087, 0.46398848111140895, 0.4702221107145647, 0.47642397307497064, 0.4827178682162065, 0.4890329220367512, 0.4953682823546398, 0.501723022789469, 0.508134566804945, 0.5145201676165299, 0.5209241456310684, 0.5273534355517258, 0.5337886913635271, 0.5401447267496672, 0.5466191099905654, 0.5530995510629394, 0.5595612414782215, 0.5660543495900078, 0.5725927290572242, 0.5790836236053455, 0.5855771990998471, 0.5920684814533872, 0.598563726940462, 0.6050620499991709, 0.6115518165612558, 0.6180372593834171, 0.6245060685542377, 0.6309797020930484, 0.6373742227599858, 0.6438362463139812, 0.6502819607682832, 0.6567416554045354, 0.6631479484032856, 0.6695306689188507, 0.6759011847680388, 0.6822509745317343, 0.6884994054594373, 0.6948135447727576, 0.7010874432246376, 0.7073432519188786, 0.713567274972103, 0.719768201912587, 0.7259246108984784, 0.732017973688966, 0.7381083440792762, 0.7441603869845154, 0.7501550235710674, 0.7561294133354937, 0.7620610726949293, 0.767948911770281, 0.7737917831402754, 0.7796161025177203, 0.7853619155053428, 0.7910065779034096, 0.7966634450350408, 0.8022671105924091, 0.8078381059975642, 0.8133293566247041, 0.818744847692585, 0.8241266131292228, 0.829449149746731, 0.8347220584277156, 0.8399211422449555, 0.8450315332263841, 0.8501080660730247, 0.8551181852598734, 0.8601136139606298, 0.8649809104580908, 0.8697718120506105, 0.8745051856502498, 0.8791681681053314, 0.8836801442847918, 0.8882082615046437, 0.8927031340741531, 0.8970671205171934, 0.901367900545564, 0.9055737612950804, 0.9097006768949512, 0.9137090695054729, 0.9176795036986414, 0.9215714573215988, 0.9253714135744321, 0.9290857130492142, 0.9326751302838762, 0.9362205560771661, 0.9396877735615771, 0.9430507828606995, 0.9463232852193865, 0.9495286800123226, 0.9526152964521607, 0.9555424860430963, 0.9584549619850936, 0.9612710316426544, 0.9640505342578751, 0.9666656022310023, 0.9691701599673451, 0.9715991886227987, 0.9739320957427688, 0.9761371277222567, 0.97828014407452, 0.9802853253831245, 0.9822341508484458, 0.9840809729332693, 0.9859111215052854, 0.9875433993085969, 0.9890534228616651, 0.9904941241845218, 0.9918350801546666, 0.9930015165576189, 0.994151408248301, 0.995194066344317, 0.9961349658592961, 0.9969715989904929, 0.9977018848074504, 0.9983312223502321, 0.9988966625272895, 0.9993142372505581, 0.9996310610622599, 0.9998902915544791, 1.0, 0.9999740903918557, 0.9998914021454918, 0.9997077043290183, 0.999435156812183, 0.999048419590583, 0.9985102892831714, 0.9979306992880681, 0.9972488074711191, 0.9964592752687385, 0.9955755221755423, 0.9946415222375153, 0.9935507513621505, 0.9923635292646005, 0.9910729382867766, 0.9896946334523158, 0.9882156822183669, 0.9866467898535887, 0.9849828102226883, 0.9832267534939471, 0.9813741549465509, 0.9794057160870562, 0.9773706251769135, 0.9752426239166038, 0.9729590146954114, 0.9706560383775492, 0.9682894116879337, 0.9657967823942231, 0.9632150607707151, 0.9605057604726555, 0.9577542491703859, 0.9549231976510812, 0.9519961688040571, 0.9489844936867013, 0.9459350845908203, 0.942752204470284, 0.9394742512279911, 0.9361378431880345, 0.9327240197169233, 0.9292146582825586, 0.9256517084643101, 0.9220111752971687, 0.9182994583239151, 0.9145150108189996, 0.9106915601545259, 0.9067614917917218, 0.9026960218632737, 0.8986417213078325, 0.8945187605925166, 0.8903156120141353, 0.8860619994551259, 0.8817427166463584, 0.8773620066711262, 0.8729201037143002, 0.8684546559938271, 0.8638906811128784, 0.8592999622640082, 0.8546250529960484, 0.8498998949192778, 0.845061943876415, 0.8402476312117502, 0.8353828828270327, 0.8304694185597232, 0.8255089297022429, 0.8205571066602777, 0.8155007143317687, 0.8103536411034629, 0.80522683380576, 0.8000604571598243, 0.7948969920413512, 0.7896512842330582, 0.7843035987204764, 0.7790032845209627, 0.7736693075854993, 0.768364788075502, 0.7629613744183485, 0.757518866799901, 0.7520691698092878, 0.7465965424903898, 0.741038790198629, 0.7355326545521511, 0.7300331478530644, 0.7244809599653175, 0.7189120616991614, 0.713383288480469, 0.7077787969064494, 0.7021366489029142, 0.6965192187500403, 0.6908935760137374, 0.6852671303848358, 0.6796285245733307, 0.6739958676125267, 0.6683500926534942, 0.6627039167486642, 0.6569973962604183, 0.6513620211440416, 0.6457050773282347, 0.6400743143042653, 0.6344459169140731, 0.6288865734641296, 0.6232602163149071, 0.6176296238575248, 0.6120291222914778, 0.6064414022902404, 0.6008137176668478, 0.5952622137208271, 0.5897218561291129, 0.5841994255277101, 0.5786936901092333, 0.5732074148391082, 0.567739550785587, 0.5623445886372845, 0.5569141409454686, 0.5515105938499673, 0.5460627944355068, 0.5407248041750233, 0.5354243423433049, 0.5301373603342127, 0.5248794660325653, 0.5196471071831718, 0.5144516971970645, 0.5093187276357819, 0.5041855299389149, 0.4990887053896297, 0.494055491269901, 0.4890305403125526, 0.48400147172571406, 0.47906332387772427, 0.4741641640901264, 0.46931336077158947, 0.46449397218970395, 0.4597300358333969, 0.4549942627793781, 0.4503030386874055, 0.4456570027752886, 0.44105678415191524, 0.4364717866382474, 0.43196899033484043, 0.42751207486042064, 0.4230958660526072, 0.41873391039837154, 0.4144486602970171, 0.410179591072115, 0.4059614738757993, 0.4017106936233257, 0.3976063606621959, 0.393583105637146, 0.389570503665622, 0.3856092624623046, 0.3817107804520514, 0.3778526236550214, 0.3740576669918522, 0.3703058480887244, 0.3666088527736323, 0.3629584971007141, 0.3593728505999992, 0.3558013360613541, 0.3523309773663966, 0.3489137019636684, 0.3455992297653428, 0.34228332327414496, 0.33897773681992566, 0.33578194542380446, 0.3326344851510753, 0.32954839720145024, 0.3265168052327802, 0.32356033780238175, 0.3206357617767254, 0.3177289104509624, 0.3149213802209838, 0.31216762131317843, 0.3094882097272432, 0.30683985310003675, 0.30426354453263343, 0.30172337847437336, 0.29923903776421, 0.2967321327591561, 0.29436823691445135, 0.2920715044474951, 0.2898064404717654, 0.287593078371498, 0.28544216476135287, 0.28333060836499946, 0.28128302382287385, 0.2792735789166729, 0.2773161332614527, 0.2753754056613537, 0.27352494631610186, 0.27172188337394354, 0.2699685337831136, 0.2682631918921425, 0.2666883727711051, 0.2650675630691284, 0.2634743071477627, 0.26195855570310816, 0.2604908572466961, 0.2590799958721057, 0.25770474370712615, 0.25634685369043897, 0.2550667368128681, 0.2538294809388573, 0.25257926974926215, 0.2514329285547767, 0.2503233287421348, 0.24925283133879084, 0.24821975602872734, 0.24722739060289897, 0.24626770401809567, 0.24532291978431575, 0.24443848596036705, 0.24358830337384987, 0.24281038151474219, 0.24202256569890615, 0.24123735945607502, 0.24052282400387479, 0.23983975872506846, 0.23925838579140468, 0.23862744272013658, 0.23801921451660832, 0.23745540822493819, 0.23692202475646565, 0.2364167716546143, 0.23594113825170665, 0.23543143961163507, 0.23501686747528458, 0.23462403205784063, 0.2342980795716738, 0.23394148233082418, 0.23361243308266316, 0.23329975982617762, 0.23300819473989126, 0.23275237263251736, 0.2324981511020099, 0.23226424782508906, 0.23204706041596612, 0.23184698871178785, 0.23166423103753725, 0.23149525868492019, 0.23132973497916245, 0.23118969700039294, 0.23106145053187932, 0.23088055713942854, 0.2307815168430187, 0.23074711680526688, 0.23065199032719905, 0.23056537084260567, 0.23041797225333446, 0.23035446668652, 0.23029790461393446, 0.23023780893814763, 0.230179536898463, 0.23012507969561807, 0.23006888263380046, 0.22999049171910016, 0.22993787929434087, 0.229883515480016, 0.22983301127121514, 0.2297731715789662, 0.22978866566884026, 0.2297130158411604, 0.22963794415625022, 0.2294854154949445, 0.22941767945715727, 0.2293968266539092, 0.22930758073871008, 0.22921340854774924, 0.22913384601378098, 0.22902465958262017, 0.2288227470638446, 0.22871098697875797, 0.22858628484452653, 0.22850613493154567, 0.22834782753027127, 0.22820331271046454, 0.2280208334009061, 0.22782811641588746, 0.22758951662020685, 0.2273782911598493, 0.2270937156017734, 0.22686048013278956, 0.22660862679906518, 0.22641507956727736, 0.22611649506598888, 0.22579532845424813, 0.2254687928719135, 0.22512633829704182, 0.2247950749360163, 0.22441581614916342, 0.2239919618344906, 0.2235841472912518, 0.22315772095737188, 0.2227279940819992, 0.22226150256589755, 0.2217560351859869, 0.22125462509210309, 0.22073280477149726, 0.22013040998964903, 0.21957495591358125, 0.2190505627988902, 0.21844017157667905, 0.21780941201511878, 0.21717012520480075, 0.21649663527372884, 0.2158162150903502, 0.21510057332855528, 0.21436514576287385, 0.21356285151949495, 0.21279303183967038, 0.21196171661430557, 0.21115082386671039, 0.21031513422727038, 0.20953199010203907, 0.2086384677016923, 0.2076562149942616, 0.20673306212014692, 0.2057864743737587, 0.20483246859820028, 0.20383823695327424, 0.20279497656667858, 0.20176160898850554, 0.2007056831163148, 0.19963362411056465, 0.19853306240481408, 0.19746549207380243, 0.19631633726077652, 0.19514977794569438, 0.1939548604428083, 0.19275446014420258, 0.19150092865702945, 0.19026837263290916, 0.18901572216156518, 0.18778900586528505, 0.1864916133068003, 0.18512265969426375, 0.1837995955964591, 0.18245717398793204, 0.181167968761, 0.17977932958438841, 0.17828690351362922, 0.17688206729585085, 0.17545831354533412, 0.17405240719539006, 0.17258847083895199, 0.17109056025821742, 0.16959987356038125, 0.1680940556815262, 0.16657242870338854, 0.16503805676900943, 0.16352963965583794, 0.16196343601073887, 0.1603867918954437, 0.15873865063084108, 0.1571494135739248, 0.15561414207889285, 0.15399063261576543, 0.15235911155004112, 0.1507161287877176, 0.14906953406540618, 0.14743090255291608, 0.14576733613454163, 0.14409760663594526, 0.14241232388687575, 0.14073216223742416, 0.139000428408984, 0.13731452356170856, 0.13564251778092395, 0.133939250627323, 0.1322310360569864, 0.13047160918538597, 0.12876108268763986, 0.12705543818403806, 0.1253326163693657, 0.12360625940549902, 0.12190591114146133, 0.12017100166737943, 0.11843147181691105, 0.11669794511701172, 0.11496515953903338, 0.11325398382972622, 0.11152147760641895, 0.10981024123288889, 0.10808227359855678, 0.10635918130334474, 0.10460273016592858, 0.10289482784790696, 0.10118788743070081, 0.09948759390387087, 0.09779167130896885, 0.09611029179823936, 0.0944235837322486, 0.09269541888693862, 0.09102835566473368, 0.08936604462685378, 0.08776573112735347, 0.08610819738683052, 0.08443567716084563, 0.08280200170730029, 0.08117759379596122, 0.07959412038821768, 0.07798564646248099, 0.07634389088555854, 0.07476602663761255, 0.0731982880894136, 0.07163523928199152, 0.07009018016681115, 0.06862855135501213, 0.06709770905507101, 0.0655833336735777, 0.06400127806002683, 0.0625301791598937, 0.061107850299618315, 0.05965583964232897, 0.05821879270819487, 0.05680540029801725, 0.05539807189785449, 0.05401902293705847, 0.052642921676987475, 0.051284162918588026, 0.04997646290252146, 0.04864845352984356, 0.047290785986806166, 0.04600798655114527, 0.04474174482274405, 0.0435188002111, 0.04228329793814156, 0.04112438757855581, 0.03991959174666441, 0.03873712657901489, 0.03750217330624026, 0.036372687798779765, 0.0353060024381325, 0.034205489528767924, 0.03312544845779943, 0.03209224569158342, 0.031049690609062007, 0.030020600572346966, 0.02902263327899494, 0.028045674594960324, 0.027156877661003297, 0.026213223662790674, 0.02531818505873935, 0.02442013542057446, 0.02354697780966658, 0.02263927069877846, 0.021821574357634658, 0.021117509777620478, 0.020328036819802255, 0.01956397624839532, 0.018809050028877377, 0.01809586448686657, 0.017464288614391747, 0.01678892642863327, 0.016139084749309782, 0.015515272587615918, 0.014914338707817342, 0.014386408972808035, 0.013826362726435672, 0.0132920200227309, 0.012775450741488259, 0.012291343538085595, 0.011884662714070043, 0.011440121742240622, 0.0110212600249063, 0.010581727262671292, 0.010217901222917578, 0.009926911630626723, 0.009598883390486378, 0.009294783477288779, 0.009060954520898203, 0.008797420984429009, 0.008563996667645554, 0.008349785906450462, 0.008159872424407818, 0.007999703673698485, 0.007856033692686983, 0.007800373134420532, 0.007694458205988133, 0.007614599539638131, 0.007592385010123099, 0.007558166640047181, 0.007519636697500695, 0.007539813068035456, 0.007582504464834798, 0.007706173180058654, 0.007785416790287034, 0.007899139003050183, 0.00802621690054959, 0.00817740042627437, 0.008361690489728776, 0.008558142113584313, 0.00878486589939816, 0.009026080086245463, 0.009289903030863696, 0.009583136795606077, 0.009890119561208948, 0.010257491712049321, 0.0106032514863946, 0.010972564269805953, 0.01142492188953026, 0.01183221786109791, 0.012250632117661208, 0.012709974043648584, 0.013192491554143414, 0.01376251165392435, 0.014281749858892273, 0.014762876638656544, 0.015340364455372367, 0.01593825335195755, 0.01656004272809982, 0.01719799875643225, 0.017912753720466506, 0.01858426112858261, 0.0192792058324353, 0.019977901279219095, 0.020720786035326483, 0.021549629329089767, 0.022326441842509273, 0.02312778399642429, 0.02390623641985708, 0.024760850392842832, 0.025635824821583834, 0.026531173231028726, 0.027446924393711308, 0.02841553450945969, 0.029368128529613007, 0.030421135304268834, 0.03140842724870474, 0.03242213348038445, 0.03346871300341503, 0.03453221331864558, 0.03554618181680551, 0.03666838880289448, 0.0378103901832418, 0.03904206984769407, 0.04021560812854173, 0.041441201530743654, 0.042659809587022146, 0.043903824881157336, 0.04508998449775306, 0.046394089026665405, 0.047737109609669204, 0.049078650892055965, 0.050441851771767666, 0.05182695628280903, 0.05323420427518482, 0.05474066595090451, 0.05618318926793918, 0.05765286345729638, 0.05911928171116839, 0.060645945541148986, 0.0621622920197032, 0.0637423999634985, 0.0653451662029109, 0.06700817585609602, 0.06865264150172175, 0.07035412423679531, 0.07204627225947045, 0.07376604501714308, 0.07545443382593933, 0.07723639738548634, 0.0791203182769648, 0.08094068662785585, 0.08279018809454392, 0.08463016252284893, 0.08654211802612544, 0.08849249868808613, 0.09045600155368752, 0.0923930293675609, 0.09441859790438845, 0.09646897108885155, 0.0986059738382978, 0.10069996410406545, 0.10281185672813281, 0.10496716761617748, 0.10715171531881974, 0.10938124442697869, 0.11162271595601181, 0.11384071948945146, 0.11615017432739344, 0.11848725590338342, 0.1209209111657454, 0.12330610626678262, 0.12568099164696248, 0.12813733658526585, 0.1306239377434465, 0.1331362824251763, 0.13568486043155903, 0.13830868069148203, 0.14091358350757838, 0.14355238050428357, 0.146233387701318, 0.1489386792641402, 0.1516601577665182, 0.15443604654555462, 0.15724501067071164, 0.1601003883099549, 0.16297423564469013, 0.16587030602439853, 0.16881416690271556, 0.17179167488981137, 0.17483420686080237, 0.1778755496559256, 0.1809431707272625, 0.1840573986437226, 0.187206808918743, 0.19040344126230793, 0.1936218123156895, 0.1968149457841045, 0.20011300234469664, 0.20344355778004838, 0.20685031833577375, 0.21024181770669437, 0.21366955627184187, 0.21713353467992716, 0.2206337568623492, 0.22409699558407786, 0.22767898185203225, 0.23136034852847273, 0.23499872628969792, 0.2386741342537794, 0.24236967015509686, 0.24612098236298954, 0.2499321155285139, 0.253752057549039, 0.25760923050568, 0.26142541732884605, 0.26536637993043, 0.26939849440953506, 0.273397131768555, 0.2774322438067271, 0.28144484781738766, 0.28555987276051803, 0.2897544062211113, 0.2939291848100887, 0.29813981011731233, 0.3024076881925543, 0.30668665497567116, 0.31092400881038057, 0.3152852819557899, 0.3196778009450907, 0.32414863124260385, 0.3285983851189538, 0.3330765382208618, 0.33759552896170275, 0.34214792495026863, 0.3467250286719041, 0.35134440211917334, 0.35594896408145354, 0.36063800789493405, 0.36535587411993425, 0.37016985737751257, 0.37493699462271385, 0.3797211190214413, 0.38455475779973686, 0.38941880998753853, 0.39424673942509036, 0.39917844236770156, 0.4041953444580606, 0.4091698093375363, 0.4141727571822039, 0.41912313755416114, 0.42419137700396714, 0.4292793356979357, 0.4343921441917261, 0.4395269034684533, 0.4446967018404065, 0.44987326693282575, 0.45508996592567386, 0.46030808076867824, 0.4655484393965181, 0.47077077232980835, 0.47605865442894213, 0.48131772720160304, 0.4866471676055, 0.49199116694278244, 0.49735681423357947, 0.502728585116879, 0.5080942970056468, 0.5134969222750625, 0.5189118368036054, 0.5243410597328164, 0.5297790314044317, 0.5352268715908077, 0.5406865357768325, 0.5461559559474779, 0.5516284447529683, 0.5571160391800086, 0.5626072731718479, 0.5681090529639053, 0.573616329796295, 0.5791607240681798, 0.5846724805080077, 0.5901398511659487, 0.5956663580491678, 0.6011926552601283, 0.606712005040909, 0.6122363941255371, 0.6177134879095747, 0.6232369399381011, 0.6287533808912119, 0.6342502885130369, 0.6397525999197187, 0.6453102883302794, 0.6507848761196169, 0.6562523390537949, 0.6616777934768958, 0.6671314630937015, 0.6725663479650081, 0.677994247905091, 0.6834070764432961, 0.688791867824246, 0.6941731661872536, 0.6995357685008871, 0.7048787465218668, 0.7102011436156956, 0.7154311461271323, 0.7207183692426963, 0.7260428554918716, 0.7312662783838111, 0.736464745514887, 0.7415734743290163, 0.7467266095220029, 0.7517973240253482, 0.7568921884903265, 0.7619508612252599, 0.7670450090788021, 0.7720209938586214, 0.7768926107607745, 0.7818092650571755, 0.7866859810773477, 0.7915029091677495, 0.796300187326039, 0.8010951517362983, 0.8058003408940317, 0.8104632971565856, 0.8150805078614615, 0.8196559594435024, 0.8241544741285864, 0.8286413188962396, 0.8330784708243483, 0.8374590669563862, 0.8417949816189958, 0.8460289791046257, 0.8502648395654582, 0.8544434445981196, 0.8585558570557201, 0.8626193497645359, 0.8666749551628544, 0.8706122667672893, 0.8744916499021489, 0.8782639439971446, 0.8820301408956266, 0.8857551564736681, 0.8893897839521102, 0.8929602662734691, 0.8964800711267625, 0.8999176289916808, 0.9032998521291913, 0.9066027278388524, 0.9098380208550547, 0.9129110139048126, 0.9160197906708637, 0.9191306426927505, 0.9220774129370688, 0.9249521010894111, 0.9276685075555341, 0.9304069573394074, 0.9330405426474822, 0.9356226925871657, 0.9381233573152853, 0.9406048845424583, 0.9429343797373464, 0.9451146346814979, 0.9472955178470134, 0.9494729735688394, 0.9514758226863049, 0.9533990019589643, 0.9552200321395046, 0.9569840430982975, 0.958615482259314, 0.9602184597934759, 0.9617342315765924, 0.9631926928675983, 0.9645298775625399, 0.9657931187742765, 0.9669564658990545, 0.9680337129204712, 0.969014775922563, 0.969919631282077, 0.9707124966822946, 0.9714441252794612, 0.9720858411611091, 0.972643581419956, 0.9731045158852976, 0.973479281530765, 0.9737601135317883, 0.9739511783607451, 0.974052369526564, 0.9740636006345459, 0.9739223781220077, 0.9737614072512447, 0.9735068412220862, 0.9732252122085383, 0.9727765759569894, 0.972243049469396, 0.9716168486821996, 0.9709021524652269, 0.9700784862144038, 0.9691892292757631, 0.9681514449266352, 0.9670904551063013, 0.9659369459111369, 0.9647048689840607, 0.9633668513964173, 0.9619163774004408, 0.9604024977317178, 0.958798777006892, 0.9571587577365701, 0.9553708092334197, 0.9535064800629572, 0.9515481398352162, 0.9495060097572251, 0.9473227217514393, 0.9451211204662942, 0.9428850368879881, 0.9405055595974049, 0.9380445838992906, 0.9354124917934566, 0.9328012152914956, 0.9301600100773167, 0.927372717371305, 0.9245058662081547, 0.9215361806920956, 0.9185154709883859, 0.9154005070421585, 0.9122254590765168, 0.9089728489749674, 0.9056497807723792, 0.9022445760583155, 0.8987546026830272, 0.8952038538693328, 0.8915805700138535, 0.887899064134292, 0.8841323553007919, 0.8802515366348451, 0.8763546063601102, 0.8723886183438436, 0.8684245876623806, 0.8643158010977282, 0.8601507316318158, 0.8559199147594775, 0.8516298286199637, 0.8472704781952783, 0.8428657000341052, 0.8383700098406612, 0.8338559272551537, 0.8292847701251239, 0.8246555058723971, 0.8199746021627498, 0.8152549830825628, 0.8104673871317506, 0.8056302193205221, 0.8006847022384307, 0.7957597412348245, 0.7908240418086133, 0.7857976797225379, 0.7807278045565386, 0.7756229864010847, 0.7704692748588423, 0.7652477427318262, 0.760020969726757, 0.7547562024772412, 0.7493973746847318, 0.7440685628420818, 0.7387031410095368, 0.7333030758472077, 0.7278702618417221, 0.7224125312691259, 0.7169188910796936, 0.7114581859631186, 0.7059043968398392, 0.7003300982040849, 0.6947231593100943, 0.689112768881333, 0.6834940508789574, 0.677847851687696, 0.6721868095198471, 0.6664473086492537, 0.6607684359139991, 0.6550939838565772, 0.6493848902155206, 0.6436656019889936, 0.6379568576806146, 0.6322193171790892, 0.6264903854692281, 0.6207432899268501, 0.6149949565927804, 0.6092225774824513, 0.6034784250297786, 0.5977365309019689, 0.591995768958645, 0.5862589684108356, 0.5804830925253525, 0.574763965758447, 0.5690179977814542, 0.5633158119028333, 0.55762071291603, 0.5519441481058804, 0.5462674546958444, 0.5406372897357146, 0.5349837103258478, 0.5293479514912707, 0.5237623902933164, 0.5181618026128305, 0.5125446212724439, 0.5069959660588427, 0.5014698804767322, 0.49593277685997567, 0.4904598895977233, 0.485078452824393, 0.4796469365481922, 0.4742462169480401, 0.46879783635557204, 0.4634710785527499, 0.4581778523516031, 0.4529094006153945, 0.44767278480384926, 0.4424824882771973, 0.4373116497601633, 0.4322130692816857, 0.4271111719424336, 0.4220495269141127, 0.4170371947313933, 0.41205696773366507, 0.40705582105730714, 0.40216965611785904, 0.39732383493247475, 0.39249787025575494, 0.38773877464617623, 0.3830279991265546, 0.37835390177251876, 0.3737246308518735, 0.36912191147391615, 0.36458746607498266, 0.36014262164321736, 0.35569640190554863, 0.35130077713923585, 0.346989814246808, 0.3426924704588126, 0.33839369583870277, 0.3342110602488162, 0.33007941290415843, 0.32598976343536895, 0.3219631045205229, 0.3180486332395836, 0.31411927127089523, 0.31024652189259194, 0.30634633791480054, 0.30259742808240014, 0.298973667054426, 0.2953200368116124, 0.2917237701715654, 0.2881020006263966, 0.28463085337144656, 0.2812867828197776, 0.27791215906069505, 0.27459556879024943, 0.2712552644459455, 0.2680647324879554, 0.2649249227193649, 0.2618414858020965, 0.2588120416599443, 0.25583338793902316, 0.2529135064669351, 0.2501132200435928, 0.24729489024354684, 0.2445401361705415, 0.24183831882985107, 0.23919469939732857, 0.236542799364458, 0.23402258764340664, 0.2315951664237427, 0.2291763951265746, 0.22681316549079483, 0.22450154055253588, 0.22224882895184053, 0.22004080260608055, 0.21789753407448903, 0.2158072969530417, 0.21378058658827184, 0.21179409045715508, 0.20981820439235885, 0.20794180444714483, 0.2061147132660508, 0.2043331661682662, 0.20260460352401022, 0.2009533098464684, 0.19931772865891065, 0.1977315981247243, 0.19615589084400809, 0.19467167677328873, 0.1932821139605597, 0.19188219894590483, 0.19052975490455423, 0.18921075030330428, 0.18795244875863376, 0.18668319683888224, 0.18551972561916258, 0.18439601779001746, 0.18330939583261494, 0.1822646245794901, 0.18132689567729, 0.1803502616871803, 0.1794151612909461, 0.178496502791019, 0.17764428900159945, 0.17678467471390022, 0.17601129896711112, 0.1752708099876444, 0.17460955818924873, 0.1739274619798488, 0.17325531517748932, 0.17264319467775074, 0.1720617361940805, 0.17156299588593843, 0.17103386479154775, 0.17051920647327437, 0.17005352858458117, 0.16961576481163881, 0.1691316651055307, 0.1687559551073219, 0.1684466696304824, 0.16810641932518705, 0.16778871317947858, 0.1674638778936279, 0.16719231918583566, 0.1669102856484922, 0.1666784105328833, 0.16646195520317728, 0.1663468979428044, 0.16614891961805, 0.16587483799417038, 0.16572503538582725, 0.16558611014692587, 0.1655128505915599, 0.16538733599663877, 0.16527193703849646, 0.16517074010084315, 0.16507990587691207, 0.1650056757849802, 0.16493178653320964, 0.16488623492087862, 0.16482464881941983, 0.16477021208212203, 0.16466060306515404, 0.16462496445413083, 0.16464389927858294, 0.16460203950120597, 0.16456275499617104, 0.16450826267803595, 0.16447336027835135, 0.16441084858092703, 0.16437614353667818, 0.16433727502042492, 0.1642613149131883, 0.16421666155674985, 0.16416684174640836, 0.1641064575895578, 0.16403801579905244, 0.16395032422377664, 0.16386594334409102, 0.1638196782680434, 0.16370904222957694, 0.16359042488185627, 0.16348582954651708, 0.16334597448644342, 0.16312985547000886, 0.16297952908747182, 0.16281463691534612, 0.16267572931481664, 0.16247571737238534, 0.1622337475671841, 0.1620104343000309, 0.1617710783080708, 0.16149970517744425, 0.16122913246533377, 0.16095253921686534, 0.16064415348924868, 0.16031791671536777, 0.15996146196339975, 0.15959996172829066, 0.15922367155223358, 0.15882213483689495, 0.15840078237694719, 0.15803015875007873, 0.157559363702823, 0.15702506589623982, 0.1565259938319142, 0.1560060260408003, 0.15552488777360804, 0.1549546565904377, 0.15430843546563344, 0.15370804496310106, 0.15308470295544466, 0.15248873403638574, 0.1518128313561243, 0.1510301095498561, 0.15032390781179647, 0.14959160202228333, 0.14891517623726447, 0.14812135002058174, 0.1472145085690895, 0.1463908289928021, 0.145540660426164, 0.1447533086430572, 0.14384028711023902, 0.14290464442724063, 0.1419511337159656, 0.14097662609241857, 0.13989327038284052, 0.13888726580289923, 0.13793889873096835, 0.13687010431377297, 0.13578085215801428, 0.13460978876916638, 0.13348703279653043, 0.13234254707722937, 0.131171726249165, 0.12997788743160607, 0.12876267007270129, 0.12752394602944983, 0.12628635828911572, 0.1250017962860317, 0.12369762233768365, 0.12236443227294617, 0.12102286912915138, 0.11969663013675926, 0.11831201701084282, 0.11691054455142026, 0.11544306254600013, 0.11401435386182722, 0.11262038992324755, 0.11114687948528243, 0.10965828270130092, 0.10805868286656108, 0.10655247908291342, 0.10509593487631255, 0.10354200095249412, 0.10197397530831599, 0.10038019209742338, 0.09878653932099175, 0.09717799713349627, 0.09555760997348053, 0.09392445390592007, 0.0922850413746829, 0.09062712098716932, 0.08898712062670575, 0.08730424318203417, 0.08561304321001384, 0.08384054690617398, 0.08214277562269054, 0.08042025108724657, 0.07870200378000865, 0.07697332024960472, 0.0753156051003933, 0.07355873453205686, 0.07173147244735356, 0.06997696632089945, 0.06821594303712028, 0.06648402898852629, 0.06470797080127765, 0.06289487643192318, 0.06111922624208262, 0.05934030785143764, 0.057564873871253995, 0.05578088500274845, 0.054058570518209434, 0.0522658155218838, 0.05046866345282622, 0.04868509423257418, 0.04690533224922711, 0.04513445694540782, 0.04336256838106846, 0.04151645184026915, 0.03976492717110101, 0.03801465240740144, 0.03634228225224635, 0.034587949670862324, 0.03277477782089919, 0.03104598348646162, 0.029322350548164164, 0.027596330944430876, 0.02588660780807207, 0.024234439649229816, 0.0225334112622843, 0.020843914334683526, 0.01909783869152273, 0.017441033671258703, 0.015814534289174953, 0.014173298606817517, 0.012543732120693563, 0.010951669242820915, 0.009344094967656251, 0.007777804683334316, 0.0061969785900687965, 0.004633196894241931, 0.0030133632893235944, 0.0014933670305721243, 0.0