0.029252258130777847, 0.029031598549626312, 0.02881414077296657, 0.028675592227072444, 0.02856535554500063, 0.028496285951157843, 0.02842845739198344, 0.028262315524099097, 0.028243019186916914, 0.028230299758789032, 0.02821457424820438, 0.028213161658241257, 0.02827791752007711, 0.028275408707881682, 0.028279392439459167, 0.02831200862279793, 0.028324432894122023, 0.028294929826963494, 0.028325967403403846, 0.02836015899841068, 0.02841486482866654, 0.028454146002367335, 0.02848293054033169, 0.028534768799649553, 0.02859149289897246, 0.02864506133609508, 0.028714120062935427, 0.028735049991157512, 0.028823339521352364, 0.028915655005175185, 0.029068448281931156, 0.029164710612655805, 0.02919978400473836, 0.0293252179264154, 0.029457281686599442, 0.029676531542927476, 0.029814474536123167, 0.029865094849124352, 0.030043163274546102, 0.030229375316192263, 0.03051424374732558, 0.030708100491586985, 0.030822373933577823, 0.031059637279582747, 0.03137974091733232, 0.03162925188794588, 0.03189464830552521, 0.032097781271896816, 0.03240504298123195, 0.032842061723713345, 0.03315858241928149, 0.033494846322380895, 0.033762340848755665, 0.0341482680025489, 0.03460360327591562, 0.03501095541376129, 0.035436412354153186, 0.035840179744701404, 0.03630697549219132, 0.03674285672583376, 0.037248025593578066, 0.03776738025533837, 0.03837277635134814, 0.03891370924635236, 0.03943934652668487, 0.04002530101572727, 0.04062957324579641, 0.04125251634535775, 0.04189447142922276, 0.04258705465365687, 0.04326406234730617, 0.04396280647948662, 0.04459091134124501, 0.04534501525017796, 0.046169956059705, 0.04695169795852498, 0.04775494504286807, 0.04850320784689556, 0.049360074505557704, 0.05029333230370575, 0.05117990765037361, 0.05208957634055582, 0.05300698329073587, 0.05396567299891379, 0.05488911900693179, 0.055901698860135934, 0.0569348416015088, 0.05802066055261955, 0.0590933836001482, 0.06021344742842003, 0.06133284505401012, 0.06247883591206491, 0.06367290046145366, 0.06486983427725312, 0.06600258718287712, 0.06726770418992256, 0.06855589218311257, 0.06993192362853305, 0.07126042991807303, 0.07255089099419106, 0.0739454982838657, 0.0753652906285055, 0.07689763625086046, 0.07835864029357589, 0.07983432997479051, 0.08136075690025918, 0.08291754831082418, 0.08452175151674547, 0.0861370794595961, 0.08767849482278975, 0.08936965748750693, 0.09108604222444805, 0.09291944859293118, 0.09467705042770988, 0.09644577125293315, 0.09827079632529855, 0.10012675435373576, 0.10199947371372843, 0.10391924191469755, 0.10587355553235007, 0.10785350211896204, 0.1098642690156781, 0.1118903054079176, 0.11396495472458176, 0.11607832011190485, 0.11821244180320473, 0.12037756685345444, 0.12255669399875271, 0.12478615842615919, 0.1269405813277837, 0.12924388786220117, 0.1315717587782054, 0.13390806924714635, 0.1362899128774893, 0.13874472287925457, 0.1411734222922886, 0.1436321008934041, 0.14608105224763773, 0.14860500713723568, 0.15112134327221174, 0.153705952667171, 0.15631701027128966, 0.15903173910894958, 0.16168718093176712, 0.16438576574618177, 0.16710284811456805, 0.16985143117177398, 0.1725556079116334, 0.17537512206564565, 0.17824877575449202, 0.18111619716552088, 0.18401106091152877, 0.1869117897034515, 0.18986347035397375, 0.19279792097220935, 0.19580571356512502, 0.19883621160749188, 0.20199192196683452, 0.20505516529070966, 0.20802469750175157, 0.21115966176089437, 0.21431456618063874, 0.21752369429966206, 0.22071454015721148, 0.2240070885962972, 0.22723164524163944, 0.23048199811564976, 0.23364475218524033, 0.23695779816465076, 0.24034848320601343, 0.24368677581137724, 0.2470449110459088, 0.25041372180307586, 0.25381071690799417, 0.2571327374844799, 0.2605757697702258, 0.2640299268736568, 0.2675437126328013, 0.2710143657979736, 0.2744592041879405, 0.27796238289656955, 0.2814762721319757, 0.28507172532514236, 0.2885972339209438, 0.292044076806235, 0.2956078134689959, 0.299178163921189, 0.302843087469041, 0.30641481979889235, 0.3099588802092061, 0.31355579688349317, 0.31715908067539433, 0.3207395447474531, 0.3243569100529418, 0.32801517082864495, 0.33163213222892635, 0.3352526125597531, 0.33880173551387016, 0.3424358221911294, 0.34613476852906466, 0.3497531103422206, 0.35337118215960817, 0.3569111963278301, 0.3605354586843962, 0.3641493396696292, 0.36775853745745457, 0.3713592701054093, 0.37504493526582056, 0.37861543780491935, 0.3821655551349989, 0.38572717855210636, 0.38928048901320655, 0.3928243379346819, 0.3963576033170886, 0.39988487559576086, 0.4033929833642392, 0.40688759755098486, 0.4103235510676043, 0.41379352379897943, 0.4171860380959002, 0.42062440445333094, 0.42403897635037924, 0.427494913093433, 0.4308527783117468, 0.4341169941415851, 0.43744077879875787, 0.44073737203638486, 0.4441073334290451, 0.44733549269346207, 0.450455393081005, 0.4536470734782269, 0.45680829192686817, 0.4599000459418913, 0.46300333427469054, 0.4660848682395692, 0.46911702786574394, 0.47211447787802174, 0.47509649581491226, 0.47802007711821953, 0.48098627502438407, 0.48382788265800947, 0.4866364956047009, 0.4892868679029263, 0.49204062984280483, 0.49482404437786437, 0.4974795488677279, 0.5000942078382667, 0.502694008572373, 0.5052204901865606, 0.5077032000630578, 0.510143986288622, 0.5125101778492493, 0.5148642083950442, 0.5171697361485447, 0.5194658309470506, 0.5216670824426405, 0.5237530073475701, 0.5258646842529024, 0.5279220778351866, 0.5298863774692792, 0.5318387886192062, 0.5338273006276628, 0.5356521649196792, 0.5374241485329813, 0.5391336962477332, 0.5407979828068877, 0.5422851252671576, 0.5438513536440844, 0.5453529593705347, 0.5468086672109328, 0.5481793156910371, 0.5495238109515729, 0.5507633849279234, 0.551941572971806, 0.553056432592295, 0.5541104745560489, 0.5551015130249547, 0.5560290657636665, 0.5568926610263997, 0.5577017933803889, 0.5584348488490335, 0.5590747257411407, 0.5596814054235643, 0.5602207839056443, 0.5606983333717795, 0.5611017397149339, 0.5614887054808968, 0.56175010887486, 0.5619462397697349, 0.5620721828872973, 0.5621364256956914, 0.5621163353266625, 0.5620477673705332, 0.5619101605539543, 0.5616649226422088, 0.5613935304626253, 0.5609892890378917, 0.560582420044179, 0.5601007928908163, 0.5595834663867909, 0.5589493911138935, 0.5582843275606675, 0.5575037854603576, 0.5566550263648793, 0.5557350598051926, 0.5547498284833249, 0.553664618546989, 0.5525459521080809, 0.5513568629491331, 0.5501360619845238, 0.548802220586555, 0.5473555587467579, 0.5458928596697574, 0.544360373939533, 0.5427258675546266, 0.541059360029756, 0.5393539266721996, 0.5375437739057244, 0.5356666016633648, 0.5336744877551917, 0.5316706845249551, 0.5296482394963097, 0.5275021705323678, 0.5252921575232524, 0.523012906223037, 0.5206769333524407, 0.5183519072476988, 0.5158811052401409, 0.513352515841543, 0.5107390890428487, 0.508098343597884, 0.5053359099863033, 0.5025852915028005, 0.49977299430674366, 0.49697970118340207, 0.49403710100784654, 0.49097496419665554, 0.48793274927810665, 0.4848335273134004, 0.4817081788634247, 0.47849421321291413, 0.47517107048129587, 0.4718604721306237, 0.4684959454152303, 0.465074502548975, 0.46160646284167006, 0.45807520372370114, 0.4545091727721411, 0.45089444372776377, 0.4472778139956581, 0.44356378063761537, 0.4398358352953852, 0.43603435017097214, 0.43219383690395485, 0.4282068954422925, 0.4243040726273489, 0.4203668729236267, 0.41637884550867144, 0.4123517070498862, 0.4083865010065472, 0.40427300989058035, 0.40001802620530497, 0.39586102387976485, 0.39166980619765784, 0.38757540232533527, 0.3833042055219048, 0.3788813625491623, 0.3745824898915685, 0.3702550884563965, 0.366025955594217, 0.3616305910199309, 0.35708770915708266, 0.3526760190577764, 0.34824140371275536, 0.34390077646938366, 0.33941086871239173, 0.3347985904556673, 0.33030044891440036, 0.32578598812729676, 0.32133082546904124, 0.31677933619737003, 0.31221058439634075, 0.3076466726942073, 0.30307680015039445, 0.29854613325610446, 0.29396203241690655, 0.28937348165024634, 0.2847903318717408, 0.2802083742794226, 0.2755161876581417, 0.2709536228038561, 0.2664073121441061, 0.2618398759136364, 0.2572750215330322, 0.25272432231102476, 0.24816817640726618, 0.24365684530359571, 0.23911309833537117, 0.23458201795998376, 0.23009876589498338, 0.22559180992360453, 0.22106985186531475, 0.21660322222423337, 0.2121540612592052, 0.20773912617781132, 0.20332626457975922, 0.19895356722065646, 0.19458269740095166, 0.19023649981767765, 0.18597980811123732, 0.18167741041034846, 0.17742719603856888, 0.17318419150290518, 0.16897408354583382, 0.16476736663228483, 0.16062798057021632, 0.15659648721099775, 0.15251342833542136, 0.14846876455847097, 0.14448264985554332, 0.14051308412999722, 0.13657975743208392, 0.13269206228807628, 0.12884535275870823, 0.12504581807346374, 0.12128191729579771, 0.11751547116781995, 0.11384383635106075, 0.11021382689162025, 0.10673311911352358, 0.10317591934472801, 0.09971341254573543, 0.0962519523227125, 0.0928438465260155, 0.08954302564079074, 0.0862345778301508, 0.08295974134891843, 0.07976663109099798, 0.07662819409634831, 0.0736170978038301, 0.07057933467640598, 0.06764502431693764, 0.06472016298852047, 0.06185673304018395, 0.05896616154592899, 0.056235653861040055, 0.05370440890493111, 0.05106765147060999, 0.0484958649504447, 0.04599563196284191, 0.043551436638917314, 0.041233976025433765, 0.0389099584333724, 0.03664896395141168, 0.03445949363660628, 0.03233606133514332, 0.03031534619222504, 0.02831852510414706, 0.026319518457836883, 0.024466145377053185, 0.0226757440717409, 0.021075256282735072, 0.019395929992045605, 0.017779270498762233, 0.016242763124221963, 0.014775772375521131, 0.01343195716840793, 0.012096105340608843, 0.010823348617362349, 0.009631210884858169, 0.008509081068769287, 0.007388332704380464, 0.00641380948373085, 0.005638214135294678, 0.004777641385275567, 0.003990478507861773, 0.003230423617574453, 0.002593546039053345, 0.001992716160408701, 0.001497315323334587, 0.0010685148991462494, 0.0007491020427838247, 0.0004484604784405424, 0.0002654658965842361, 9.701239356390952e-05, 0.0, 3.6387056494938342e-06, 4.382958675216202e-05, 0.00016387155714083678, 0.00034487386088595496, 0.0005962435683886253, 0.0008390715252824236, 0.0012390325933833673, 0.0016859777805166697, 0.0022162700998075036, 0.002809761221559563, 0.00351634928294929, 0.0042302657422224055, 0.005048778543016665, 0.005889805374303453, 0.006798316578606453, 0.007803432478202738, 0.00884094524945483, 0.009955450791500453, 0.01112489595498344, 0.012360220064273762, 0.013548215005487304, 0.01492695444977434, 0.01642396368658321, 0.017909383892225583, 0.0194556168890447, 0.02105223406539726, 0.022719922358666707, 0.02440802729655089, 0.02619777981328776, 0.028043342528393182, 0.029940308389032454, 0.03189755359391065, 0.03395244915986598, 0.0360140204940645, 0.03813241419926955, 0.04029698761122997, 0.04252822411810129, 0.04479660699042215, 0.04713782576099161, 0.049531095562622474, 0.052068375530105966, 0.054552613845727814, 0.05700301083780078, 0.059608792722841836, 0.06226280931985668, 0.06495895481239225, 0.06770887883275255, 0.0705523107811089, 0.07338901223224584, 0.07627400220620023, 0.07915947574371936, 0.08214436995819159, 0.0852207106516284, 0.08828525363550196, 0.09139471650188917, 0.0944970325129289, 0.09770021537458778, 0.10104955561842437, 0.10431786910540622, 0.10763085874602078, 0.11101139246702073, 0.11440683837795443, 0.1177379791293383, 0.12123032909072957, 0.12475656856514523, 0.12842451229631216, 0.13200404387237424, 0.1355188265257765, 0.13918837288903385, 0.14288876798343736, 0.1466112320873615, 0.15037362230191648, 0.15420676654091056, 0.1580226862981543, 0.16186982757728136, 0.16574323701116475, 0.16965131027946592, 0.17368503668690982, 0.17763816910692337, 0.18162444512000375, 0.18555999792461472, 0.18961892835036934, 0.19375085563162797, 0.19785251891193514, 0.20198064013861894, 0.2061386361474291, 0.21031662874234983, 0.2145828879731445, 0.21880057155736046, 0.2230446247718497, 0.22731099275788122, 0.23160460656398574, 0.235871298976043, 0.2402159743026459, 0.2445789075904493, 0.24897675613621925, 0.2533728292046343, 0.25779259413908506, 0.26222341965947454, 0.2666715157480574, 0.2711534016515495, 0.2756322658874988, 0.28009507531510025, 0.2846107536287174, 0.2891400281815009, 0.29376791973172095, 0.2983126845279101, 0.3027540327695357, 0.3073479906950015, 0.31195069035422895, 0.31656651502707756, 0.3211864544339886, 0.32583547342834385, 0.33047116856164616, 0.3351169778151245, 0.3397925118203349, 0.3444551282706822, 0.3490981916818638, 0.3537847216628244, 0.35847893472669695, 0.36329153607173004, 0.3679864284158614, 0.3725921466925399, 0.3773252612449386, 0.38206364024350614, 0.38687255957393896, 0.3916127605699459, 0.3962960087430564, 0.40106068593902056, 0.40582876862457307, 0.4106385576923071, 0.4154082900394942, 0.4201391489651787, 0.42492441093389643, 0.42971150149063886, 0.4345444360123655, 0.43932937945128264, 0.44419371613991665, 0.4489766884277222, 0.45376696094798663, 0.4585748654118864, 0.463375263663621, 0.4680641420899442, 0.4728885914690704, 0.4777099283176259, 0.4825170010641293, 0.48733417645093147, 0.49215666375506584, 0.49696649996421693, 0.5017739065978137, 0.5066855565637104, 0.5114746438465275, 0.5161463776125557, 0.5209568664230877, 0.5257623276615379, 0.5306497120437847, 0.5354347133132191, 0.5401944204966429, 0.5449826278883122, 0.5497684766443108, 0.5545288733022944, 0.5593118726057882, 0.5640504336281257, 0.5688291017060044, 0.5736006516104138, 0.578409335163912, 0.5831615271797552, 0.587828370829404, 0.5925819003682045, 0.5973913514933719, 0.6021179559877914, 0.6068393250811914, 0.6115394752748734, 0.6162513308941492, 0.6209148171708192, 0.62561741800066, 0.6303101411752413, 0.6349390428574267, 0.6396190726021385, 0.6442692548276495, 0.6489262591019171, 0.6535701942299772, 0.6582085116344991, 0.6628263393858008, 0.6674094962494358, 0.6720063951264833, 0.6765900985883281, 0.6811848789735545, 0.6857393556329057, 0.6902038654965856, 0.6947444336133037, 0.6992682509201231, 0.7037684940788246, 0.7082604702619515, 0.7128325696013711, 0.7172792424751022, 0.7217148407284978, 0.7260901665561431, 0.7305072198046977, 0.7349421723699502, 0.7393220882075974, 0.743686944838098, 0.7479720751999057, 0.7523128991877281, 0.7565435130087964, 0.7608543133607111, 0.7651391955464761, 0.7694768879117518, 0.7737014609155617, 0.7778388383253343, 0.782030679058086, 0.7861974634072825, 0.7904160239669644, 0.7945230324029872, 0.7986091913101777, 0.8026737135687512, 0.8067158329558439, 0.8106878750342709, 0.8146889006649672, 0.8186285743627313, 0.8225791517741453, 0.826499922475296, 0.8304277550605683, 0.8342838634489049, 0.8380833121343938, 0.8418860168137434, 0.845657775926583, 0.8493143437030658, 0.8530337540607762, 0.8566950519683872, 0.8603438385405602, 0.8639550244641194, 0.8675487296680394, 0.8710827232408398, 0.874539316543921, 0.8780059646303738, 0.8814336038805841, 0.8849231862267741, 0.8882599148550245, 0.8915715459805178, 0.8948388838435987, 0.8980710084072253, 0.9011474278674677, 0.9043211570241653, 0.9075523723339745, 0.9106233997910711, 0.9136552845023698, 0.9165489733688059, 0.9195122216979624, 0.9225333663536996, 0.9253885982583153, 0.9282022534399215, 0.9309221248831826, 0.9336561121975554, 0.936273081163709, 0.9389207452735189, 0.9415162340462075, 0.9440539414862412, 0.9465459686947472, 0.9490708495004098, 0.9514470715602928, 0.9537753982303427, 0.9560848186131388, 0.9583109963953916, 0.9603903279612821, 0.9625304615292775, 0.9646144230563022, 0.9666335873103298, 0.9686059601048558, 0.9705013655738853, 0.9723619954352954, 0.9741641247943472, 0.9759944441318371, 0.9776683914982024, 0.9792272546088492, 0.9808001825259376, 0.9823140396279215, 0.9837927198058688, 0.9851845226798103, 0.9864722268493644, 0.9877520917290742, 0.9889698170928765, 0.9902049356262682, 0.9912879791786536, 0.992197782937724, 0.9931784734395197, 0.9940930894834747, 0.9949546684859785, 0.9957361745762903, 0.9964244286956537, 0.9970798877276587, 0.9976688703637768, 0.9982000673181575, 0.9986554470211482, 0.9991134302280174, 0.9994288389905117, 0.9996823435286185, 0.9998719081998081, 1.0, 0.9999819544853893, 0.9999927166994035, 0.9999343541270995, 0.9998925006712801, 0.9996859913997689, 0.9993221054562563, 0.9989999406096184, 0.9986080868425661, 0.9981654216142555, 0.9976329842340398, 0.9969817577369545, 0.9963207402818559, 0.9955895230143501, 0.9948270404885475, 0.9939521340951621, 0.9930063848822446, 0.9919989601193401, 0.9909249165551498, 0.9897787099903629, 0.9885725854240495, 0.9873013947618837, 0.9859623251239338, 0.9845572738075645, 0.9830793411783811, 0.9815438669452986, 0.979964004644628, 0.9782946958767085, 0.9765614720132249, 0.9747644757584385, 0.9729038802931921, 0.9708775002538688, 0.968903288412534, 0.966860423427235, 0.9648495574380712, 0.9626600489268298, 0.9603209905843715, 0.9580229961186326, 0.955660276384618, 0.9532565059552462, 0.9507641779996531, 0.9481996589540793, 0.9455877597809579, 0.9429156411039182, 0.9401825831324611, 0.9373922999262547, 0.9345053954622697, 0.9316042017352878, 0.9286439950266094, 0.9256414050911063, 0.9225641172544019, 0.9194727848145449, 0.9162804762391008, 0.9130367143978704, 0.9096878796259525, 0.9063493378240857, 0.9029093297934859, 0.8994716316129503, 0.8959800087645297, 0.8924499950759657, 0.8888526022777348, 0.8852499268894006, 0.8815492618085032, 0.8778037457458671, 0.8739997882208225, 0.8701682836153201, 0.8662347905462774, 0.8623241066290115, 0.8583681090640255, 0.8543595683101339, 0.8503178815772838, 0.8462995842037915, 0.842166818165748, 0.8379981411392995, 0.8337003370816346, 0.8294736579754022, 0.8252277284445241, 0.8209217037350276, 0.8165848177792078, 0.8122092050176165, 0.8078010848509295, 0.8033743682481134, 0.7989029327886379, 0.7944655600832695, 0.7899301574427305, 0.7853716789332715, 0.780705261174099, 0.7761128638085921, 0.7715652740087244, 0.7669126204778041, 0.7622402752014292, 0.7575062619138249, 0.7528020257662944, 0.7480039359868306, 0.7432703794308466, 0.7385150412743192, 0.7338178500389545, 0.7290141225974737, 0.7242277704431099, 0.7193961516333611, 0.7145554581592338, 0.709621018806824, 0.7047749636740673, 0.6998645107701733, 0.6950029989112225, 0.6901296058183579, 0.6852631683191542, 0.6803690733898576, 0.6755743180873687, 0.6706565002614562, 0.6657413748497731, 0.6607696310853388, 0.6558687481355383, 0.6510041756922033, 0.6461013721415679, 0.6412034186037134, 0.6361930223300607, 0.6313219261174418, 0.6265437609456331, 0.6216637117527806, 0.6167927210817831, 0.6119059876823215, 0.6070587427128624, 0.6021433074297644, 0.5973270091904481, 0.5925183439144517, 0.587734546956013, 0.5829438478506395, 0.5781931651116876, 0.5734262364009908, 0.5686761448505487, 0.5639537038600047, 0.5592385813684931, 0.5544637270090611, 0.5497991919662294, 0.5451515050967939, 0.5405817250213912, 0.5359640905415434, 0.5313903021723138, 0.5268186327444908, 0.5222732250703489, 0.5177289135748812, 0.5132405718480006, 0.508813934250925, 0.5043740695721805, 0.49996366668829495, 0.4955276082880418, 0.4911841871623434, 0.48683548558425077, 0.4825518851979411, 0.47829549283757095, 0.4740673129275207, 0.4698682763917593, 0.4657945242391409, 0.4616442553826081, 0.4575308851203137, 0.4533391518230413, 0.44931396294749737, 0.4453333345910782, 0.44136799833153495, 0.4374356562517252, 0.43354979941729466, 0.4296838469375967, 0.4258478258926225, 0.422054259252114, 0.4182968138399149, 0.41454745582466274, 0.41086703486758375, 0.4072293656235388, 0.4036198630099519, 0.4000474114605842, 0.39649388917855355, 0.3929989289626431, 0.3896291186893819, 0.3861973694722026, 0.382808285449275, 0.3794202105805084, 0.37612046477867256, 0.3728670541472828, 0.3696448875280342, 0.3664623889195743, 0.36335078932027576, 0.3602435027530599, 0.3571874139605613, 0.35416103080702394, 0.35117582376027523, 0.3482143668690776, 0.3453126122663077, 0.34234341314951094, 0.33953340563484735, 0.33675630506567117, 0.3340952842041266, 0.33137553820743243, 0.3286353570922034, 0.32600146817296216, 0.32340296062841306, 0.32082154209661096, 0.3182966526518093, 0.31581076598343116, 0.31335497278313534, 0.31093441108561154, 0.3086656849082305, 0.3063007755117431, 0.3039604082116346, 0.3016797818864106, 0.2994377043916184, 0.2972390571177162, 0.29507098162984596, 0.2929309486082881, 0.290836366788362, 0.28877644759607685, 0.28671646342464846, 0.28472840907372277, 0.2827016809087141, 0.2807841753828015, 0.27889319252330524, 0.2770190175492955, 0.27518296698776434, 0.2734103091993424, 0.2716224938002295, 0.269863237044512, 0.26818477976614674, 0.266474834629966, 0.26469991804082516, 0.2630617590783662, 0.26144684494741516, 0.25987930378574275, 0.2583076130683811, 0.2567345854843513, 0.25521422201687866, 0.2537157964358934, 0.25222907979343795, 0.25077491793847806, 0.24935397409245594, 0.24793871185181776, 0.246543901660894, 0.24522449783902844, 0.24386204079411467, 0.24255854372529725, 0.2412343785283038, 0.23993230443436633, 0.2386183920249098, 0.2373610420769097, 0.23613613626825072, 0.23490965252592083, 0.23369935286681184, 0.23252146095565282, 0.23133888389175478, 0.2301696057437404, 0.2290157688009964, 0.22787485370006735, 0.2266422638814262, 0.22553799296482932, 0.2244456688699022, 0.2233503137510737, 0.22226039962777347, 0.22116164211831882, 0.22008416031711686, 0.21904367455396573, 0.2179705340791771, 0.21690326258077747, 0.2158897448131793, 0.21482669330003215, 0.21374520590046225, 0.21269883722249588, 0.21165648590090402, 0.21064032046765543, 0.2096013868958006, 0.2084664890728015, 0.20744657132841396, 0.206423222109737, 0.20540937705457132, 0.2043778886827503, 0.20343206561607866, 0.20238427434450118, 0.20133859235039306, 0.20030262768078022, 0.199257375051264, 0.19810546621437652, 0.1970728752798242, 0.19601280697744702, 0.19496774477792655, 0.1939142366154573, 0.19290509900343117, 0.19182858314169632, 0.1907029058777702, 0.1896214144432085, 0.188531591797759, 0.1874206175904146, 0.1863156510513132, 0.18530954834821783, 0.18417248549818785, 0.1830322294685852, 0.18186366920550814, 0.1807173595424535, 0.17948288119953518, 0.17833208945037712, 0.1771686636790223, 0.1760952170830286, 0.17489420941197414, 0.17368401983475726, 0.17246998380753853, 0.17124809961342682, 0.16990832152961144, 0.16868300312522183, 0.16746782052204837, 0.1662088413773836, 0.16493677127917594, 0.1636688493643513, 0.16236893974170538, 0.16104882114631458, 0.15972661416164308, 0.15839220896561892, 0.15705561273321075, 0.15569570728157453, 0.154358440921144, 0.1529712067317648, 0.15157434263207456, 0.15020453705315506, 0.14878292892267747, 0.14725350064465767, 0.14582747115613312, 0.14438674215913697, 0.14295170771171267, 0.1414804803175063, 0.14003541258472724, 0.13853508334398282, 0.13702511636176742, 0.13556656626775368, 0.1340293469104706, 0.1324430836916724, 0.1308980090626595, 0.1293432780224137, 0.12778176442883757, 0.1262074822494016, 0.12466370370168632, 0.1230658549510913, 0.12146114628972293, 0.11982807619770089, 0.11821189591826525, 0.11664847897094782, 0.11500797100502308, 0.1133628837824384, 0.11174281318424537, 0.1100840726682056, 0.10832943403510017, 0.10667516939095373, 0.10501177860132846, 0.1034806776352092, 0.10178311289568336, 0.10011034087471117, 0.09841040480504379, 0.09671146910699971, 0.09493197224111206, 0.09324389919895729, 0.09168907015948297, 0.08997465498325541, 0.08826427538583063, 0.08656017610170769, 0.08485585494264387, 0.08318421427259706, 0.0814815216320522, 0.07978296882825409, 0.07804847056624016, 0.07636254316530403, 0.07480034567966332, 0.0731021814372292, 0.07141307436220024, 0.06974243212450884, 0.0680686931049751, 0.06642185762471464, 0.06476239803319789, 0.06311207678526475, 0.06147643857237318, 0.05984335472550817, 0.05827649889083904, 0.056655019840852694, 0.05504637084707044, 0.053440398305136735, 0.05185818922347354, 0.05034061274714546, 0.04877598153818553, 0.047226786068254055, 0.045657382993833776, 0.044143384211814476, 0.042766574559360705, 0.041264349268825454, 0.03978352538765118, 0.03828667796409145, 0.03685212591594311, 0.03550423387377505, 0.03409809739022921, 0.032714746043473644, 0.031319868856641904, 0.029985975320568292, 0.028782242858932768, 0.027476234723382918, 0.02619788945322364, 0.02483305154068852, 0.023623384296234538, 0.02249111210407539, 0.021316178423867203, 0.020166733185438795, 0.019104333325373417, 0.017999397553457176, 0.01686356823839157, 0.015826887957756712, 0.014817142087921576, 0.013874808962441887, 0.012915881880337095, 0.011962512865394967, 0.011069472086178424, 0.010206864496595535, 0.00944498133404018, 0.008636260996780248, 0.007852336546038273, 0.007117443418717351, 0.0064182368333599235, 0.005823232071967421, 0.005187576225170295, 0.004599427404731169, 0.004043473616069599, 0.003528022775070837, 0.0029491885211989604, 0.002527718637768396, 0.0022518431469070706, 0.001886663014438021, 0.0015642635804101956, 0.0011978756407294822, 0.0009719995455465387, 0.0007628218005225375, 0.0006165468773113353, 0.0005087519491686044, 0.0005299589414135618, 0.0004905337526315348, 0.0005015041486226671, 0.0005538434134248214, 0.0006526830294600021, 0.0007312746705533981, 0.0009318659113604656, 0.0011627741440026634, 0.001451931877453203, 0.0017848766702797403, 0.0022050037553222215, 0.002622277459906282, 0.0031119563738140643, 0.0036228803659293413, 0.0041838855298085035, 0.0048106682948626045, 0.00547004289388023, 0.006184871284638204, 0.006946070703478827, 0.007758705194343485, 0.008538884077361631, 0.00946505495884728, 0.010523382073516172, 0.011533183077545485, 0.012596042417995923, 0.013647903658537321, 0.01482480599335872, 0.01602830779118406, 0.017307311528689882, 0.01863538264470346, 0.020074279986709572, 0.021494521681736007, 0.022988815478114735, 0.024514768215320743, 0.02609587579427601, 0.027770335342906214, 0.02945632997307775, 0.031082508090315566, 0.03289639357157966, 0.03475970754345298, 0.036692961546214285, 0.03865434905080691, 0.04067782723696143, 0.04274246472928107, 0.04486023047953738, 0.04708524386116109, 0.04930265384627172, 0.051546535809765974, 0.05387997160063316, 0.05626725955831865, 0.05873103521956457, 0.061222794235758195, 0.06373092078635313, 0.0663367446957224, 0.06904006707606387, 0.0717441449693759, 0.07450278645240187, 0.07727151072830575, 0.08014368244803413, 0.08316777665103368, 0.08612910512570478, 0.08914704369797066, 0.09224205932906311, 0.09536800194992195, 0.09844129300207287, 0.10169090736946187, 0.1049882664624666, 0.10843022869290274, 0.11181127331680353, 0.11526713997584655, 0.11875170200093998, 0.12228946953387339, 0.12587960290063224, 0.12952132429620966, 0.13321959845390893, 0.13696165364259794, 0.1407535815376714, 0.14450941324466823, 0.14840997331217032, 0.15237937855632253, 0.15636332904201738, 0.16039216072973533, 0.16454530898241015, 0.16865320469360137, 0.1728040740561425, 0.17700908638801652, 0.18126064193021216, 0.18551387618339146, 0.18986178452353375, 0.19427996049534668, 0.19870758973414407, 0.20317794697834457, 0.20763069681536622, 0.21219224143419996, 0.21679135347961423, 0.22142791829395564, 0.22610176264920456, 0.23080412666634464, 0.2355528759266303, 0.24047980179004186, 0.24528221487591992, 0.250127936075512, 0.25489455842956416, 0.25983768381447725, 0.26479881032056457, 0.26980788980692655, 0.2748477699385158, 0.27994946978401286, 0.28504614159777053, 0.29017298733877966, 0.2953323601458183, 0.300521895982452, 0.3058148599495776, 0.31105331528052244, 0.3162273045311401, 0.3215411447576546, 0.3268792375407802, 0.3322525484197831, 0.3376364297345139, 0.3431277382684036, 0.34854743621236983, 0.353994091894459, 0.35945071753923463, 0.3649492955962835, 0.3703890479068593, 0.37594129228973816, 0.38150915917381234, 0.38718759022410804, 0.39277359050673627, 0.3983751209799231, 0.40399999624676725, 0.409641966575964, 0.4152003645125288, 0.42088577789828513, 0.426583703617528, 0.4322848467219077, 0.43799395572168365, 0.4437561389888502, 0.4494741777025024, 0.4551217452921149, 0.46086726393178434, 0.46661564670200223, 0.4723538242605875, 0.4781086639661329, 0.4839741119111762, 0.4897169502583143, 0.4954662221717062, 0.5012134310115586, 0.5069723645021473, 0.5127191117961166, 0.518482732763212, 0.524245265996312, 0.5298862596144246, 0.5356587370909384, 0.5415256983934896, 0.5472633737006946, 0.5529960978591164, 0.558610476831138, 0.5643443651425778, 0.5700354512586521, 0.5757441118531313, 0.5814365132645278, 0.5871438801274914, 0.5927995178034836, 0.5985141046723885, 0.6041297946170853, 0.6097333862834646, 0.6151927684739039, 0.6207848978716278, 0.6263709188363993, 0.6319144224710912, 0.6374353677514093, 0.6429361522015811, 0.648410219747611, 0.6537807357894247, 0.6592164056378064, 0.6646223828957789, 0.6700327296345037, 0.675374695914411, 0.6807409851651336, 0.6860190803982982, 0.6912705299341287, 0.6963975025546547, 0.7016045152775989, 0.7067775499182116, 0.7119132943444256, 0.7170130667547427, 0.7221304642128836, 0.7271500805923627, 0.7320741242334731, 0.7370316000527575, 0.741949190576216, 0.7467766269906558, 0.7516192059569375, 0.7563790958424386, 0.7611377321773722, 0.7658494228237475, 0.7706221978372565, 0.7752260965617548, 0.7796934188383373, 0.78422559394014, 0.7887088194543951, 0.793104374855898, 0.7974935239461479, 0.8018674041457183, 0.8061472289476251, 0.8103764825714375, 0.8146142904224686, 0.8187330281862326, 0.8227429646416227, 0.8267699782034533, 0.8307423649067115, 0.8347164622010737, 0.8385707560008744, 0.842383322432932, 0.8461289398957236, 0.8498200847144812, 0.853438674019548, 0.8570200352232548, 0.8604193645167342, 0.8638990251086838, 0.8673120250239412, 0.870748289634928, 0.8740175523231336, 0.8772145362391456, 0.8803627920886131, 0.8834482491419692, 0.8864888909840208, 0.8894449147597094, 0.8922438461348758, 0.8950846465454999, 0.8978557402229191, 0.900678200085572, 0.9032951268729064, 0.9057969224983241, 0.9082945271372413, 0.9107248522921384, 0.9131358760233413, 0.9154244281049992, 0.9176189018178896, 0.9197790598621445, 0.921870617105483, 0.9238917874622837, 0.9258452575175399, 0.927632333923354, 0.9294583664648438, 0.9312087473476423, 0.9329608112231293, 0.934551734514803, 0.9359845601425959, 0.937446494674842, 0.9388330235005067, 0.9402512821791585, 0.9414748945077656, 0.9425265363477756, 0.9436264082085907, 0.9446640660229804, 0.9456127077375981, 0.9464878339033186, 0.9473693014115006, 0.948087970928229, 0.9486258551687887, 0.9492213708277875, 0.9497412625309163, 0.9502401314762269, 0.9506035798772043, 0.9508447826405009, 0.9510725930173036, 0.9512264842240008, 0.9513993354954159, 0.9513950083384288, 0.9513118256765739, 0.9511736070122109, 0.9509666035783999, 0.9506835722396643, 0.9503395546766998, 0.9498464809785734, 0.9493737689772395, 0.9488273620318433, 0.94816112454713, 0.9474755919453753, 0.9467429945849398, 0.9459069268906246, 0.9450003127723534, 0.9440565473190938, 0.9430067364154693, 0.9418176623635841, 0.9406438880680119, 0.9394000060281166, 0.938079860800475, 0.9366994693796233, 0.9353565032050714, 0.9338280547745517, 0.9322393858266088, 0.930472401195947, 0.9287780942492582, 0.9271221957566829, 0.9252820253423785, 0.9233830570674192, 0.921416892845682, 0.9194018712922633, 0.9173253102608668, 0.9151936311018256, 0.9130038849201456, 0.9107508591681532, 0.9084471583351275, 0.9060154928625543, 0.9036076729915405, 0.9011402515457496, 0.898664228387704, 0.8960749429770594, 0.8934423388554561, 0.8907459394473957, 0.8879982218109435, 0.8851969815219283, 0.8823489299827426, 0.8793333591338698, 0.8764019832174732, 0.8734159700302452, 0.8704737296454964, 0.8673712435498692, 0.8641205702377313, 0.8609431108639918, 0.8577167820630284, 0.8544815132450243, 0.8511571093834853, 0.847726359082297, 0.8443263395476566, 0.840882356223425, 0.8374115286530253, 0.8338819918891852, 0.8304031618797093, 0.8267856727212741, 0.823136571058754, 0.8193211093320224, 0.8156269666114634, 0.8119929689907888, 0.8082120655252285, 0.8044018022112298, 0.8004661230164865, 0.7966113251534762, 0.7927308622961244, 0.7888111122936322, 0.7848619062916398, 0.7809385813380277, 0.7769274752254648, 0.7729221322333424, 0.7688627984677544, 0.7647838490639969, 0.7606801255882837, 0.7565642974206244, 0.7523491944797347, 0.7482078755384228, 0.7440452085942907, 0.7398739689479547, 0.7356713053206387, 0.7313865430696012, 0.7271599288019609, 0.7229152198444925, 0.7187478820036102, 0.7144598553604907, 0.7100953064522967, 0.7057999890877095, 0.701493815286945, 0.6971353272955869, 0.6928163992594036, 0.6885417334398503, 0.6841978395572185, 0.6798499618474924, 0.6755444428922923, 0.671185345249238, 0.6667803739859548, 0.6624297646884253, 0.6580785074452942, 0.6537715828949208, 0.6494161309988664, 0.6450153781003559, 0.6406756598386162, 0.6363386477221957, 0.6319256637351706, 0.6276069781627721, 0.6232950128129173, 0.6189791959636121, 0.6146676771354569, 0.610356053075706, 0.6060576260496294, 0.6017625383843372, 0.5974809775232308, 0.5932089490836604, 0.5890441786607702, 0.5847820081903184, 0.5805249079254498, 0.5763001838102079, 0.572092844785147, 0.5678633677174809, 0.5636967462493256, 0.55947940715783, 0.5553541667595452, 0.5512426586544219, 0.5471702471601455, 0.5430866296570607, 0.5391138539315163, 0.5350561260755018, 0.5310234739158455, 0.5268949616698784, 0.5229276179571732, 0.5189842361037751, 0.5150537831276204, 0.5111439668085137, 0.5072314726381448, 0.503368504301083, 0.49964382120141787, 0.49581034279574954, 0.4920067730403057, 0.48814332594365145, 0.4844103666343527, 0.4807672724216672, 0.4770756144076553, 0.47341336909854226, 0.4697364995705375, 0.4661388152158782, 0.46250143384190645, 0.4589669344703129, 0.4554567019249604, 0.45200437341575433, 0.44854123352469316, 0.4450967533316131, 0.4416925044400247, 0.4383170786568283, 0.4350448287325323, 0.4317188724488387, 0.42833738688884754, 0.4250905660388621, 0.4218721908394333, 0.4187652202770746, 0.4155946876515165, 0.41235468486813565, 0.4092656094490759, 0.40620438732112985, 0.40316730524628047, 0.40016391139503804, 0.3972606699935369, 0.394306762166147, 0.39138658518732833, 0.3885239993381991, 0.3856673021649883, 0.38286471125922394, 0.3800734323865343, 0.3773165858554565, 0.3744969209063296, 0.371819560365603, 0.36926354570017156, 0.3666296521339241, 0.36402915921652673, 0.36136626571647734, 0.3588430895515394, 0.35641903428495264, 0.3539402265999108, 0.35138321030007963, 0.34898045723387733, 0.34660212338800966, 0.344250166244514, 0.3419219971091826, 0.33969927663193644, 0.3374129150241065, 0.33515726068837465, 0.33294884610967745, 0.3307508705605546, 0.3284806284357508, 0.32635522080583723, 0.3242529763721318, 0.32218268480388396, 0.32012638063208615, 0.31808430527291803, 0.316077597740734, 0.31409440696607943, 0.3121545960768624, 0.31021573290595233, 0.30827135342824624, 0.3063846133961069, 0.30451983322759424, 0.30275081907053847, 0.3009201427309535, 0.2990382355136482, 0.29726753460908323, 0.2955164179778359, 0.2938060597159163, 0.29209090258295467, 0.29048268106939157, 0.28879649602710544, 0.2871344804247613, 0.28539593760843673, 0.28379146918270887, 0.2822947930803135, 0.2807092223387036, 0.2791438935141119, 0.27749404670120137, 0.2759795379651135, 0.27447961477400457, 0.2729882776515242, 0.2715088789777724, 0.2700285327577138, 0.26857432104470896, 0.2671650639611752, 0.2657280794415473, 0.26430357364821927, 0.26285694829957057, 0.26146030592523684, 0.26010694290497405, 0.25872408578263234, 0.2573518607596414, 0.2560551442339343, 0.2546943058055996, 0.25327081040619026, 0.25194388456957023, 0.2506234320066474, 0.2492835597238458, 0.24797838732222538, 0.24676406662865707, 0.24545601029665234, 0.24415663666033124, 0.24287216517434837, 0.24158664535730384, 0.24019536691776183, 0.2389364354212815, 0.23767626831661004, 0.23653596028795384, 0.23525863075754538, 0.2338863463457123, 0.23263286986218457, 0.2313779400394643, 0.23020689447138049, 0.228938272260128, 0.2275520364766357, 0.22630443989886467, 0.22505181811205582, 0.22383571148744283, 0.22256865462605432, 0.22125549516978577, 0.21998974813405953, 0.21871904537870826, 0.21747335967048845, 0.21618924821956556, 0.21487360000878647, 0.21358662963507577, 0.21229443618234403, 0.21110789895170987, 0.20979108319444298, 0.20847222095885865, 0.2071563547208727, 0.2058392098753553, 0.204488699266411, 0.20317062364774854, 0.20182742263472347, 0.20050109203085312, 0.1991677775895248, 0.19776336191836613, 0.19642380050893243, 0.1951216524270761, 0.19375450810966185, 0.19237988920484114, 0.1909294414503194, 0.18954821907732988, 0.18823789071207198, 0.18682353109336125, 0.1854030748859525, 0.18398188926789258, 0.1825475902758665, 0.18102132358113723, 0.17958424925381344, 0.17813522525568307, 0.17671880935192844, 0.17524167769791618, 0.17379045867787463, 0.17229254756244913, 0.17078827902287394, 0.1691891921181038, 0.167682516499742, 0.1661595074714533, 0.16462976499844306, 0.16308871679561643, 0.1615567294338687, 0.15999187827141959, 0.1584422498180686, 0.15685660922027014, 0.15526370453715815, 0.1537516594220399, 0.15213296479539457, 0.1504279730160582, 0.14881439316686929, 0.1471924091625484, 0.14556503646029315, 0.1439264014364726, 0.1423155964143858, 0.14065718222212054, 0.13899336628066497, 0.13730412706095987, 0.13563172921465774, 0.1340379219716539, 0.1323414361055333, 0.13064335068440178, 0.12891046471472783, 0.12721193167785677, 0.12550165466930757, 0.12379478764840754, 0.12208299626991889, 0.12048305621758267, 0.11874719946062313, 0.11701496075303802, 0.11528261638279798, 0.11355128375721325, 0.11189019044206329, 0.11015082357831522, 0.10836272832677664, 0.10663707947645111, 0.10491109588016787, 0.10320752880059855, 0.10147806247512982, 0.09984927518480942, 0.09810949200980057, 0.09637649898571099, 0.09469228993710276, 0.09296563453271996, 0.09127078349306467, 0.08955573729416416, 0.08784864433563135, 0.08618598058560974, 0.08448877272617299, 0.08273937381036857, 0.0810674080559317, 0.07940029827149901, 0.07776114588725952, 0.07610196422635257, 0.07454110794416852, 0.0728853346591554, 0.07124261059559815, 0.06959552375688705, 0.06798014254424244, 0.06643022078932373, 0.06483098372174659, 0.06324654056117453, 0.061652550758605595, 0.060100363469816426, 0.05862542109922304, 0.05709196418001783, 0.0555760338127635, 0.05414151701048116, 0.05265233249915733, 0.051212679662111675, 0.04976172719776506, 0.04833288744285377, 0.04685756914610671, 0.04548071906262472, 0.0442466736587078, 0.042889895714476815, 0.04155896142383681, 0.04016246095888935, 0.038893664814479915, 0.03777279425460079, 0.03652840003177914, 0.03531253984133546, 0.034036727377836556, 0.03288825324213489, 0.031767040535083835, 0.030664745057946478, 0.02963548804603248, 0.02857714506092128, 0.02754758013788272, 0.026548510950242757, 0.025577252464161572, 0.024668569663816656, 0.023753308869486192, 0.022870572893245286, 0.022043299992173342, 0.021223345273244643, 0.02038243837029925, 0.019638651365545143, 0.018926595073197154, 0.018362146730446754, 0.017701047806307633, 0.017016186247096627, 0.0164433647541993, 0.015906736481922933, 0.015477836859269388, 0.015005919171750646, 0.014458919958409863, 0.014084700321270889, 0.013745342101821283, 0.013557016437523247, 0.013275715658341675, 0.013069817681247745, 0.012872700790393102, 0.012721336609050326, 0.01259560250583295, 0.012537705839209408, 0.012413131961933988, 0.012457922267327256, 0.01254112207290687, 0.01274919487812913, 0.012901764058972101, 0.013083647236739106, 0.013331358086059591, 0.013624963944252126, 0.01393358129453786, 0.0143241350763879, 0.014791308864519995, 0.015269218228132552, 0.015795464665525265, 0.016306374512460194, 0.016938341291561607, 0.017668621174280415, 0.018386155436319652, 0.019153923776081046, 0.019918160709602173, 0.02079404234744088, 0.02181604913668742, 0.022776221479520003, 0.023791224641437698, 0.0247883203791776, 0.025921561884447625, 0.0271761623705574, 0.02840142124610398, 0.029681876735254496, 0.03104439427604842, 0.03243140238225004, 0.03389325431482129, 0.035390364935544004, 0.036944372769281975, 0.03845682909873189, 0.04013611438370753, 0.041860286193178664, 0.04364205307119938, 0.04547524097705067, 0.04746562437607248, 0.04938991845897518, 0.051253544830699174, 0.05331004738510066, 0.0554177597200799, 0.05767398642594732, 0.05987363212679679, 0.06206751976441645, 0.0643913471704609, 0.06676909913790667, 0.06929199441883868, 0.07176667478853428, 0.07428099734854088, 0.07687667382105356, 0.07952959949773118, 0.08228493331623297, 0.0850455914086592, 0.08782954102675247, 0.09071173980442662, 0.09364956800266284, 0.09668687149311835, 0.09972968332608428, 0.1027915232017763, 0.10595347258094027, 0.10916961038645, 0.11236297946192307, 0.11569670188479247, 0.11920351278454705, 0.1226207692555254, 0.12609512999470626, 0.12960596845496028, 0.1331949536432537, 0.13679526011913085, 0.14049718396923935, 0.14424986766287393, 0.1481016070485779, 0.15194950044658506, 0.15587335582547862, 0.15982424922199498, 0.16382856443336766, 0.167902675713418, 0.17200964076145797, 0.17608226880486214, 0.18030428131167534, 0.18457239761721764, 0.18887669400378868, 0.1932383096004806, 0.19764112328930558, 0.2020941521212914, 0.20659223850036149, 0.21117933417803444, 0.21576151195943052, 0.22036507066092825, 0.2250438044372277, 0.22976680829608875, 0.2346303531006639, 0.2394283579940484, 0.24422208113119467, 0.24912212838589168, 0.25406507440415027, 0.2590160759369703, 0.26404699991641395, 0.26910683016791065, 0.27421631007125674, 0.2793632119796143, 0.28459974610960764, 0.2898135840904811, 0.2950394498700502, 0.3003338638545419, 0.30566396285863606, 0.3110205395823195, 0.3164210523127725, 0.32194146140266744, 0.3273966722448987, 0.3328886128393434, 0.3384272924320633, 0.3439872236666221, 0.3494682848524302, 0.35510809733178017, 0.36077260295428587, 0.3664814609280256, 0.3721920226293187, 0.37799998335979834, 0.38375053666583103, 0.38952883089979695, 0.39522414069268924, 0.4010681267345665, 0.40692731730198456, 0.41280753717068375, 0.41870512264370385, 0.42463679023708406, 0.43056583756107386, 0.43655462963588854, 0.4425117797707836, 0.44848703528870626, 0.45445941167510634, 0.46047018310802235, 0.466554485742316, 0.4725844408532485, 0.47862979540764045, 0.48464367281259585, 0.4907215198556565, 0.4968139402833602, 0.5029079754572219, 0.5090094817904756, 0.5151189585692774, 0.5212324584181902, 0.5272981225408614, 0.5334268986969433, 0.5395556283511381, 0.5456226487408524, 0.5517574205786195, 0.5579993590789374, 0.5641094077591567, 0.5702201509234535, 0.5762322065308938, 0.5823529952589507, 0.5884965664604929, 0.5945960076282609, 0.600687854873929, 0.6066959605905976, 0.6127797847518995, 0.6189176250182833, 0.6249640843431188, 0.630999538886412, 0.6369405323224387, 0.6429614667532498, 0.6490249631722605, 0.6550006610211628, 0.6609604543940777, 0.6667952820190698, 0.6727339693843416, 0.6786320702901456, 0.6845227156634077, 0.6903701002768088, 0.6962102961510811, 0.7020228051447907, 0.7078898338397228, 0.7136356246871393, 0.7192861541238695, 0.724991421029218, 0.7306661605173844, 0.7363467515778251, 0.7419539233460463, 0.7474453790740218, 0.7530015185207306, 0.7585204084005233, 0.7640699632642222, 0.7695046113409317, 0.7748505403089267