0.04236265793420822, 0.04200944138874786, 0.041773535869450776, 0.04145773191857727, 0.04116632579172973, 0.04091562893827757, 0.04066021215209431, 0.04044082795946064, 0.040212704561869254, 0.03999728838587931, 0.03966472885760334, 0.039485460698230966, 0.039298341485787716, 0.0391214569146272, 0.038944762478520085, 0.03881677626096477, 0.03863497358796175, 0.03843405778585326, 0.038262335863515184, 0.0380929359715773, 0.03796024760181802, 0.03779203575261738, 0.03758917917226543, 0.037436396173560045, 0.03728675306335528, 0.03717201731553351, 0.037026180400385564, 0.03694072225092204, 0.03680100377277634, 0.03667114452711622, 0.036488424510926536, 0.03638573177239879, 0.03621513538106064, 0.036134314357420635, 0.03605633881287769, 0.03611019600367211, 0.03602480816516395, 0.03589263776012781, 0.035840406993294195, 0.03579734132054018, 0.0357836972327064, 0.035757498133111326, 0.035734075142388896, 0.035731717129326886, 0.0357404983695936, 0.035729381327686285, 0.03576509610900398, 0.035836476062340986, 0.03588958983073714, 0.03595513757108157, 0.03608165575178687, 0.03616657851577241, 0.03622461821859219, 0.03634626879844803, 0.03648096268899422, 0.036628947457551596, 0.03679046744217817, 0.036889004779782464, 0.037088022285176186, 0.037296984160197846, 0.037491155567668855, 0.037725717824341254, 0.037962587430899676, 0.038220745379106615, 0.03849086842720003, 0.03891017512851508, 0.03918917319693944, 0.03944436662848236, 0.0397719432968374, 0.04011765912068806, 0.04041043033698431, 0.04080140480641184, 0.04120372865188554, 0.041624077304934275, 0.04205966762410484, 0.04253948474876922, 0.043003587356588144, 0.04355998440475092, 0.044051707638688126, 0.04456637600486953, 0.04509507402953363, 0.0456556244538744, 0.046149563724396436, 0.04676417921279003, 0.04739517866677157, 0.04799206660083125, 0.048664285180011015, 0.04937748550305638, 0.05007820812771541, 0.05079756951406838, 0.051635644995479436, 0.05238137323248926, 0.053076145480300596, 0.05388283006100649, 0.054710363470479056, 0.0555079568694737, 0.05638478594291907, 0.05736027559389824, 0.05826588534117661, 0.0591964089870552, 0.06012905982850954, 0.061112179796560445, 0.062152988126722125, 0.06317914129593853, 0.06423117651394408, 0.0652663631146791, 0.06637532232637963, 0.0674763185560108, 0.0686361805733569, 0.06981823333213079, 0.07105144166941557, 0.07227583582803652, 0.07345439763933172, 0.07473842385804243, 0.07604401741200449, 0.07736904653099079, 0.07872018568374207, 0.08006619786487629, 0.0814680453212566, 0.08289255256630902, 0.08438866290598009, 0.08585413711476012, 0.08743755959282783, 0.08894548195635234, 0.09048547663497504, 0.09194307432393656, 0.09355941711962537, 0.09520227168035743, 0.09686597310112324, 0.09861391028498674, 0.1003193833680782, 0.10205320210621634, 0.10374398262552786, 0.10554257094112994, 0.10744141103882023, 0.1092776014443325, 0.11114218184783539, 0.11292103432517205, 0.11485560155419339, 0.1168508626341855, 0.11882277543624767, 0.12081890601743107, 0.12286493442999513, 0.12490650824769987, 0.1269596908115384, 0.12905449146202694, 0.13117387900895836, 0.13332627070418057, 0.13549340031647075, 0.13770510656585494, 0.13991883961437473, 0.1421578937433664, 0.144390590579656, 0.14668303570898836, 0.14896090745291862, 0.15130267332475772, 0.15366448231829777, 0.15605214904677678, 0.15845365349374252, 0.16092975284212674, 0.16336550897385851, 0.16582468316495752, 0.1681901293754057, 0.1707091412738152, 0.17332577763283463, 0.17586512964076917, 0.1784249967129449, 0.18098218237739838, 0.18358459359595422, 0.186179289705639, 0.1888203995005646, 0.19147736006933885, 0.19415289027283164, 0.19684077268947067, 0.1995441532842447, 0.20226275312681533, 0.20499625948136066, 0.20774432869679427, 0.21050658884533727, 0.21331675746252354, 0.21610186935053366, 0.21890182513679507, 0.22168177303012315, 0.22451353641719451, 0.22738449494558097, 0.2302337755776809, 0.23309455493399714, 0.2359320251909365, 0.23881804644875443, 0.24167179773633118, 0.24457751739604833, 0.24748771281876733, 0.25049038288809, 0.2533979261229187, 0.25630009371421103, 0.2592260969929999, 0.2621581511421543, 0.26499592845373815, 0.26795020845869694, 0.2710048777508146, 0.27394232705505933, 0.27688352213837075, 0.27973652342919464, 0.28269384645984086, 0.28564984424029144, 0.288598319157487, 0.291542411750126, 0.2944676003026128, 0.29740375035099714, 0.3003563856484185, 0.3032768036107725, 0.3061915058999009, 0.3090742808185424, 0.3119788900859204, 0.31494548487293983, 0.31782245651383695, 0.3206933384710027, 0.32350015019858835, 0.32636271578657294, 0.3292639227508909, 0.33209439862586454, 0.33491407540479917, 0.33763664701733637, 0.34044248530946, 0.343235457038695, 0.34600322099157793, 0.3487521880615357, 0.35154448819226336, 0.3542466650558003, 0.35696345527029927, 0.3596273243009952, 0.36227424940584996, 0.3648944758466289, 0.3675049722998195, 0.3700973821911204, 0.372664664102368, 0.37520922022287606, 0.3776647135295447, 0.38016927021740005, 0.3827129099763869, 0.3851502120383776, 0.38756149048192656, 0.38997421842506913, 0.39232702305756134, 0.394521862706771, 0.39683573869498073, 0.3991129740259821, 0.4014417744674864, 0.4036347258527971, 0.40573057678623087, 0.40786751020053746, 0.40996736957412966, 0.4120981052020857, 0.41411430830470325, 0.416028078325011, 0.41798356673994963, 0.4198991912026987, 0.4218144434657763, 0.4236443469538145, 0.4254299128108795, 0.4271825174138986, 0.4288947417617264, 0.4306284999185306, 0.43225017696302825, 0.4336881410325055, 0.4352496093229309, 0.4367621032251406, 0.4382684816978707, 0.4396781987488317, 0.44103321683619773, 0.44235132789911574, 0.4436220888593215, 0.4449134314431532, 0.4460799532496042, 0.44717927065964136, 0.44825886204934373, 0.4492910093531753, 0.45019268515663363, 0.4511386527298238, 0.4520621663322037, 0.45289689663980015, 0.4536799394424061, 0.4543997381897007, 0.4550802791535043, 0.45567663975303396, 0.4562552026454461, 0.456778856622441, 0.45735858742947294, 0.4577587001119859, 0.4580989793672613, 0.4584027293080457, 0.4586557137221757, 0.4587663438527824, 0.4589275204681842, 0.45910508866153155, 0.4591421686661551, 0.4591264322705447, 0.4590205563827024, 0.45890281197724464, 0.45873206237022845, 0.45850232643023103, 0.4582170327338376, 0.4578677001997058, 0.4574725207142838, 0.4569873581605311, 0.45648489989984375, 0.4559249481453314, 0.45528233975572135, 0.45461187689734367, 0.45394337354897774, 0.4531504330779372, 0.4523041699155624, 0.4513249798442971, 0.45038215930026004, 0.44944133116117263, 0.44837626654221985, 0.44725823694653705, 0.4461442468946228, 0.444913556595394, 0.44360800650040105, 0.44228175695140187, 0.440904380873602, 0.4393850125797279, 0.4379172523465303, 0.4365386967939103, 0.434941991526209, 0.4332994978702378, 0.4315085587142887, 0.42978659715697765, 0.42802384042340386, 0.4261969016775345, 0.4243200005331394, 0.42237389761283345, 0.4204015665901906, 0.41842561423915253, 0.41635012727724047, 0.41419841677364233, 0.41203739161099673, 0.40983051250547625, 0.40766094836433514, 0.40535410598838767, 0.40294850061946186, 0.4005711427433305, 0.398151574109301, 0.39565353586832996, 0.3931563275857369, 0.39061696502045173, 0.3880364767857997, 0.3854158650226042, 0.38272767937220814, 0.3800333320918297, 0.37738543377036304, 0.37460378055558663, 0.37179034662101407, 0.36883749534669336, 0.3659753982433592, 0.36309101472332733, 0.36015553051044896, 0.3571871018075886, 0.3541698443725988, 0.35114116531490847, 0.3481360102865363, 0.3450407271828014, 0.34192035949714855, 0.3388154034355636, 0.3356419406831666, 0.33248189034264625, 0.32926314466668344, 0.326026541427765, 0.32268138013595293, 0.31942146745743005, 0.31614249515414955, 0.3128396478552181, 0.30951748798893625, 0.30621696774465584, 0.30285458246655683, 0.29945860974421046, 0.29607214081166583, 0.2926724402087287, 0.2892576449188007, 0.28583477996354123, 0.28237019032964866, 0.278931376058452, 0.2754823534170939, 0.27205564002359695, 0.268585947759117, 0.2651398662434575, 0.26165784092441885, 0.25817439496996475, 0.25473569501722876, 0.25124572754960794, 0.24772206590893406, 0.2442436996937483, 0.2407673917268055, 0.23725985232023664, 0.23379446782747287, 0.23034880917008793, 0.2268877469793005, 0.22343257110472506, 0.21995012416182885, 0.21651390283667923, 0.213112940155784, 0.209687997642833, 0.2062738686835236, 0.20289989014524792, 0.1995065092339238, 0.19614529621836307, 0.19278063623565894, 0.18943337849098094, 0.18603016422661903, 0.18272876079368963, 0.17950491789206469, 0.17622687076977908, 0.1729697601914026, 0.16962617895544826, 0.166426488757997, 0.16334308958940655, 0.16016592339938135, 0.1570140858400258, 0.15376870864050268, 0.1506842445268041, 0.14769681105075683, 0.14464471224108424, 0.1416201355808595, 0.13861808985217006, 0.13565134215783442, 0.1326399107756566, 0.12974166088957678, 0.12686984547861332, 0.12415647519082933, 0.12132460556772424, 0.11847308112230134, 0.11572273171047923, 0.11300629914125085, 0.1102702558283036, 0.1076299388373532, 0.10509300790513794, 0.10250921439448575, 0.0999634247721277, 0.09741317991259908, 0.09494935839816299, 0.09255585596493908, 0.0901606895164949, 0.0878047269048895, 0.08547112648473436, 0.08319637764119604, 0.0809889552751303, 0.07878875860943325, 0.07662973942069351, 0.07447502344788268, 0.07240329253752224, 0.07042211301738618, 0.06842306857091676, 0.0664670387439987, 0.0644942416117821, 0.06263156776350026, 0.06087091500593981, 0.05907973194537679, 0.057332376750027295, 0.05558036473748479, 0.05392632936988001, 0.05234142390887896, 0.050765471242994326, 0.049232326704460365, 0.04765951404632175, 0.04622230835019134, 0.04489423774029103, 0.04352477221795516, 0.04219847021774562, 0.04089528368395153, 0.03965737386559036, 0.038341638101429626, 0.037201963949016745, 0.036097102211445284, 0.0350819508088793, 0.03404238282764993, 0.03308836174817149, 0.032123204846646415, 0.031200687725860928, 0.03032321903038266, 0.02948431567403501, 0.028723856259814055, 0.02796278303786762, 0.027244331265540826, 0.026462542838176596, 0.02584035924364577, 0.02522425274951182, 0.024674840810306006, 0.02415858476745737, 0.02382070753183429, 0.02335303250491354, 0.02291285036904061, 0.02252918794696489, 0.022184106909850905, 0.02186528503316655, 0.021595996132521077, 0.021390352505571152, 0.021187156750266965, 0.02101930264093941, 0.020905752498080913, 0.020803292686974426, 0.020737440454639756, 0.020701163791006283, 0.020696886260066195, 0.020661144479723042, 0.020726056941753435, 0.02083671758497645, 0.020950498171495715, 0.021090585114044644, 0.021262123226701405, 0.021452468906910785, 0.021741697927435872, 0.021972010331489336, 0.02223019015041746, 0.022486582121071446, 0.02280048186947256, 0.02316844558376044, 0.023523160810608006, 0.02390081514046159, 0.024297537858330956, 0.02471839262355368, 0.025232993281517686, 0.025683280038097715, 0.02615581179280934, 0.026640640174938758, 0.027154578328273414, 0.027774435563295688, 0.028311717258641077, 0.028869615633533068, 0.029381061443688815, 0.029983552018799955, 0.030706371587242424, 0.03131901033019146, 0.03194846803665488, 0.032573250923740665, 0.03323421617405128, 0.0338553163226401, 0.03454429270259882, 0.03535903443383765, 0.03604511669738121, 0.03674322873944169, 0.03750023546876458, 0.03821202592485007, 0.03887766584012082, 0.0396165449162429, 0.04036004499843092, 0.04119549830452696, 0.041934754688461626, 0.04267280848202636, 0.043426432617211665, 0.04418430353314111, 0.04495105032712036, 0.04571361773901494, 0.04652333455479197, 0.047282621452626496, 0.04804448704617387, 0.048847648436222836, 0.049606489588494423, 0.05034444485602906, 0.051108750160818686, 0.05187149680675922, 0.05273714529620482, 0.05348135940797745, 0.05416538934672032, 0.054920845340785805, 0.05567253206911401, 0.056417015680293794, 0.057159813151037644, 0.057916990686898, 0.058645831432900614, 0.05936951136419537, 0.060104608090073675, 0.0608144231495091, 0.06158698059375726, 0.06227672106304411, 0.06296391644346565, 0.06371304273310475, 0.06438426075004561, 0.06502008748550181, 0.06569194321092715, 0.06635851143329667, 0.06705334452008528, 0.06770342459657087, 0.06834301554266574, 0.06898361282359831, 0.06961799688036768, 0.07027992292071894, 0.07089656251304882, 0.0715393151656929, 0.07214125376510244, 0.07273902117095678, 0.07332358005571628, 0.07391266258737897, 0.07448450190068218, 0.07506312389358298, 0.07563499382470111, 0.07619164900761255, 0.07675133583371371, 0.07740362183627612, 0.07793717602023247, 0.07846994665867907, 0.07894173510199406, 0.07947911605217012, 0.08004249216424428, 0.0805656738093773, 0.08108598045870405, 0.0816319546664767, 0.08214331153490562, 0.08266526076103375, 0.0831736565380361, 0.08368205180359181, 0.08417630871248265, 0.08468679918750388, 0.08517417711714319, 0.08568718232931942, 0.08619933268815513, 0.08673684356978974, 0.08724594287222678, 0.08773194379187593, 0.08824969654201535, 0.0887694166704798, 0.08940268562448535, 0.08991444277270265, 0.09033700884987629, 0.09088178776891463, 0.09143104026583312, 0.09199696731747325, 0.09255620866935259, 0.09322252884432518, 0.09378505767043807, 0.09436218565076682, 0.09492825492731685, 0.09553770675096507, 0.09610070979174405, 0.09674463472024171, 0.09739935064248115, 0.09815967027515995, 0.0988270753218353, 0.09952768558549983, 0.10023146624113632, 0.10095549854031567, 0.1016459956096556, 0.10241812606316408, 0.10323966289555649, 0.10404498198784021, 0.10487194130721697, 0.10571832422657548, 0.10659083369001386, 0.10747257805817395, 0.10839451560208083, 0.1093405858741372, 0.11025480840368442, 0.11125896604054417, 0.11231512255414813, 0.11336415102613207, 0.1144409359695355, 0.11554361458409255, 0.11667918868441747, 0.11796179120984902, 0.11914450034199187, 0.12036607041107679, 0.12151842681543894, 0.12283134558196053, 0.12419427005059247, 0.1255720125525314, 0.1269857890547723, 0.12843362625805518, 0.12992242078694374, 0.13153208941492703, 0.13308815669213198, 0.1346889384774945, 0.1361981113903228, 0.13790605211331564, 0.1397596754917089, 0.14153066089947286, 0.1433480703497568, 0.14514402676893592, 0.14706399937505563, 0.14902202035706416, 0.15103115273313275, 0.15308559244290187, 0.15522037096822844, 0.1573638085877054, 0.1595854935913321, 0.16182546849968485, 0.16411783977359232, 0.1663633533038703, 0.1687738618661635, 0.17134853817946402, 0.17384061458350525, 0.17638893037366088, 0.1789593487762202, 0.18162443040009593, 0.1843012369739063, 0.1870807989293365, 0.18991302588855802, 0.19273604168879777, 0.1956834552797213, 0.19882116611981274, 0.20185396363771085, 0.20494748381768182, 0.20794220180809056, 0.2111763807107746, 0.21450700174885468, 0.2178384146077433, 0.22122535348393746, 0.2247478769143959, 0.22823710580277512, 0.2317562307018931, 0.23537138129764695, 0.239045232670695, 0.2427435982599902, 0.2465389362619037, 0.25043060353716834, 0.2543341228299551, 0.25829666818111313, 0.2622071038912206, 0.2663009305206157, 0.2705405740906863, 0.2747271453407742, 0.2789720737828894, 0.28317263308496915, 0.28754606465500726, 0.2920874975492779, 0.29654948242210766, 0.30107015327265524, 0.3055208294115902, 0.3101728204744618, 0.31496509733848305, 0.3197045330384345, 0.3244989137387563, 0.32922535559402577, 0.3341431591239249, 0.3391980740936685, 0.34419695895693686, 0.3492475695286113, 0.35434922415721914, 0.3595012181042583, 0.36460900699140786, 0.3698713369102978, 0.37517649184675395, 0.38066942225526046, 0.3860416624795852, 0.3913848105773573, 0.39686661544281715, 0.40243980861022416, 0.40800084485087995, 0.41360606662557103, 0.4191462091198375, 0.4248497773104531, 0.4306105557172517, 0.4363798543164636, 0.4421841404082583, 0.44794310775575197, 0.45382525864132556, 0.45977543444044044, 0.46570876082260315, 0.471671935726378, 0.4777153248425582, 0.4837292372847333, 0.4897135493618199, 0.4957938079647217, 0.5018980062791284, 0.5080138447928798, 0.5141645153979529, 0.5203980693007965, 0.5265805037745881, 0.5327847181664648, 0.5389067477951759, 0.545162619780645, 0.5514894135618819, 0.5577594183762434, 0.5640423836619416, 0.5702828784276713, 0.576594332172865, 0.5828346615133302, 0.5891660630926757, 0.5954966701170818, 0.6018401590869282, 0.6081656336645928, 0.6145943041688151, 0.620901484705807, 0.6272104774122939, 0.6333856564410553, 0.6397091845323638, 0.6460211194059209, 0.6523206378891382, 0.658606814783403, 0.6649582358608576, 0.6712045339978477, 0.6774329875254319, 0.6836538131377583, 0.6898584359673579, 0.6960109575964403, 0.7021821544399315, 0.7083128733510358, 0.7144379233676595, 0.7205356506953053, 0.726544992353731, 0.7325915084414327, 0.7386145517040036, 0.744588979936926, 0.7505272015568385, 0.7564109587763612, 0.7622752736783492, 0.7682095563602663, 0.7739768465891538, 0.779707019915361, 0.7853382022383105, 0.7909952487605236, 0.7965458306592245, 0.8021154188956304, 0.8076319332089957, 0.8130830054073451, 0.8184917655910464, 0.8238635678651096, 0.8291550469028613, 0.8343886424385843, 0.8395971769676301, 0.8447068010137272, 0.8497337999588238, 0.8547249424190774, 0.8596517706468064, 0.8645783243936894, 0.8693642219630943, 0.8740769308393633, 0.8787327456263292, 0.8833198184859744, 0.8877483991902652, 0.8922043349306867, 0.8966018056809173, 0.9008977566488706, 0.9051149478010339, 0.9092609442418628, 0.9133166415468434, 0.9172229249174243, 0.9211238447208475, 0.9249376889744745, 0.9287151674859293, 0.9323469487135846, 0.9359697471453706, 0.9394193312451103, 0.9427854873863647, 0.9460239914017897, 0.9492240438110726, 0.9523366732785037, 0.9553548805223804, 0.9582811140696608, 0.9610377178933676, 0.9637870606884987, 0.9664148116119262, 0.9689691746506487, 0.97142305745866, 0.9738474881544177, 0.9760912404899651, 0.9782496022017636, 0.9802976559828772, 0.982248159118375, 0.9840378297618105, 0.9857989831665576, 0.9874712426427374, 0.9890243072746019, 0.9904749002901808, 0.9917716403937934, 0.9930231457549852, 0.9942966491949402, 0.9953203536233792, 0.9962457564148287, 0.9971175006581688, 0.9978381256118812, 0.9983783434819392, 0.998912565128253, 0.9993425256330446, 0.9996767732642855, 0.9998972257259213, 0.9999827841731471, 1.0, 0.9999119865046279, 0.9996821722537194, 0.9993895417918722, 0.9990789269468494, 0.9985636384035707, 0.9979485902650485, 0.9971058188879307, 0.9963074081519134, 0.9954931599446806, 0.9944708346766237, 0.9933491618767905, 0.9920517438089712, 0.990742210321172, 0.9893074943687943, 0.9877970661319584, 0.9861851015694693, 0.9845438989035704, 0.982723503448629, 0.9808318473738111, 0.9788211054893163, 0.9767187566583048, 0.9744627014010168, 0.9721864481972892, 0.9699189541601015, 0.9674437240925304, 0.9648829193931235, 0.9621231293853922, 0.9594065769251593, 0.9566163469789833, 0.9537176751341347, 0.9507322094380342, 0.9476498914294132, 0.9444962114297932, 0.9412533431096215, 0.9379347765028695, 0.9345351785184529, 0.931073037718284, 0.927513504550707, 0.9238639528649368, 0.9201558861944702, 0.9163737881689528, 0.9124735961605702, 0.9085534626596061, 0.9046662170748655, 0.9005899857339581, 0.8964509262508837, 0.8921845389963345, 0.8879308319059127, 0.8836192030835922, 0.8792391904458655, 0.8747991423172391, 0.8702466189839825, 0.8656980621556168, 0.8611736256471724, 0.8565000203083355, 0.8517767203519109, 0.8469651979231877, 0.8421514061893444, 0.8372015070024553, 0.8323046236979913, 0.8273582492734766, 0.8224273459950957, 0.8173812432947946, 0.8122677195332831, 0.8071488970409587, 0.8019928221443767, 0.7968582455676507, 0.79162612289267, 0.7863626858870891, 0.7810753354751064, 0.7757023996070274, 0.7703722773584025, 0.765015841823009, 0.7596322278619865, 0.7542294206131894, 0.7488599793016658, 0.743410939581432, 0.7379480440388356, 0.7324613239858238, 0.7269763916474927, 0.7214698831294957, 0.7159675485458122, 0.7104575165501726, 0.7048789162772119, 0.6993664117276945, 0.6938761288498092, 0.6883497685039249, 0.6828230336627472, 0.6772692849584467, 0.671750734065471, 0.666249704833449, 0.6607378995566507, 0.6552340018682709, 0.6497482492902329, 0.6442641814177333, 0.6387451984055038, 0.6332956168487094, 0.6278598098462181, 0.6225221178748935, 0.617109054656013, 0.6116488093211335, 0.6062935610994667, 0.6009603359528631, 0.5956820761631688, 0.5903939023457878, 0.585122995752051, 0.5798948131624241, 0.5746971711097877, 0.5695569998256663, 0.5644212111331397, 0.5593213586750655, 0.5542585095968102, 0.5492337333709026, 0.544188397584027, 0.5392505208756744, 0.5344102661749359, 0.5295422168003762, 0.524718440847484, 0.5199483907626353, 0.515214853639138, 0.5104975630496874, 0.5058638637931969, 0.5012776216553047, 0.4967314044431761, 0.49224440905480366, 0.48778767483363517, 0.4834045786875312, 0.47907260385750444, 0.474744555542483, 0.4705242790193476, 0.46644092664227216, 0.4623144896135565, 0.4582470771713511, 0.4541737740001876, 0.45023409309232887, 0.4463312751841017, 0.44250862232629645, 0.4387435115065368, 0.4350540011353278, 0.4314047344782265, 0.42777976028266773, 0.424258291166107, 0.4207971920198442, 0.41740865126175086, 0.41406921930139234, 0.4108526983610956, 0.4076326243712024, 0.40448002884695733, 0.4013265783140636, 0.3983172663812136, 0.3954111188653494, 0.39252396368460185, 0.3897032628191734, 0.38688932582472324, 0.38420909568047273, 0.3816886021024885, 0.37912273373761646, 0.37662614623576557, 0.3740647192899172, 0.3717221074567797, 0.36943984475698727, 0.36721856717395857, 0.3650587900399243, 0.36295523135462204, 0.3609202826715695, 0.3589957558793015, 0.35707904413529706, 0.3552273775247584, 0.3534460505585107, 0.35172255558159626, 0.35009444718969246, 0.3484947157580281, 0.34695981447396035, 0.3454349308615503, 0.3440341436053566, 0.34268143245580557, 0.3414006494714353, 0.34017796937215006, 0.3390557048735361, 0.33794279088665075, 0.3367897182662586, 0.3358072482003364, 0.33487688559091766, 0.33411516061364094, 0.3332740813376321, 0.33247704496903313, 0.3317530272584446, 0.33108400487508083, 0.3303580363365703, 0.3298098364451875, 0.3294010646573768, 0.32893208361075466, 0.3285135925441947, 0.32807342452486166, 0.3277616263804628, 0.32749591145998647, 0.3272697285688295, 0.32708586551911667, 0.326912390415092, 0.32681508778267865, 0.32678464163779314, 0.3267600404537344, 0.3267742726741595, 0.32689180052798017, 0.3269726249346726, 0.3270703424934547, 0.32723178042890283, 0.3274285502403165, 0.32764800843983827, 0.3279130766634176, 0.3282460166138082, 0.3285670916785669, 0.3289188575914609, 0.32925722175070615, 0.32967145067452486, 0.330104047629735, 0.33056609294736633, 0.3310498357625876, 0.33159692395704776, 0.33211566248156804, 0.33255878848588105, 0.33313045310173073, 0.33371498910627634, 0.33439712689851075, 0.3349948769248799, 0.3355828169486817, 0.33621391785798993, 0.3368565189715814, 0.3374980824348931, 0.3381616271907273, 0.3388041178606087, 0.33948494548291114, 0.3401694220217811, 0.340899346726846, 0.34158316334338423, 0.3421822661914852, 0.3428827902886464, 0.343579267423291, 0.34433088106271026, 0.3450100939271389, 0.3456413752322865, 0.3463202738780563, 0.34699183664113664, 0.34763538096018265, 0.3482924116484799, 0.3490579604950054, 0.34967742471740554, 0.35029127057181225, 0.35080395530040864, 0.35141334236363647, 0.3519642974838348, 0.3525467884006424, 0.35310965413783996, 0.3537576786233578, 0.3542667253533072, 0.3547095069554286, 0.3551934472925772, 0.35565671014644623, 0.3561410960383014, 0.3565550928053032, 0.35692556640516787, 0.35729973066567017, 0.35764959833435905, 0.35788618306048225, 0.3581960625520298, 0.3585367608514263, 0.35877521532257994, 0.358985261689703, 0.3591946462356376, 0.35934224911962387, 0.3594752553902603, 0.35956257913270384, 0.35954914456811693, 0.35958520359651086, 0.35958588329638475, 0.3596419584534345, 0.3595597594809675, 0.3593954610512808, 0.3592569015512117, 0.35908267089631946, 0.3588496184946445, 0.358605720357319, 0.35831518608338525, 0.35799598911431013, 0.3576378792088362, 0.3572890910133523, 0.35684675293132495, 0.356254196431664, 0.35575274154364855, 0.3552074670301543, 0.35468143505282534, 0.3540420972417114, 0.3533296901854459, 0.3526165925739876, 0.35186231391474165, 0.35104994235404086, 0.3502158809739262, 0.3493429213159787, 0.3484252680589335, 0.34746651197758704, 0.34645547064287685, 0.345416504977929, 0.3444358436027361, 0.3433021622533328, 0.3421333802443457, 0.3408379677872545, 0.3396089147158622, 0.33843208352851584, 0.3371084195822893, 0.33574929424188393, 0.3342349666617179, 0.3328190890628973, 0.33147400531653914, 0.3299587637306409, 0.3284086530938978, 0.32676951085321826, 0.325156127086458, 0.3235586395595167, 0.32186268498333925, 0.32013264469222763, 0.3182435067501132, 0.3164614043961563, 0.3147011521719544, 0.3128310059391575, 0.3109261052390564, 0.3089273545366397, 0.3069623139821931, 0.30504059641503395, 0.30299402797924313, 0.30091778401733227, 0.2988150607922808, 0.29668020384604726, 0.2944942577119065, 0.29230602129468886, 0.2900890690924113, 0.2879094732071692, 0.2856288826591363, 0.28325709054688675, 0.28093936562496213, 0.2785952747994218, 0.2762967599572331, 0.27389354908741403, 0.2714279020114079, 0.268990777958416, 0.2665320940920137, 0.2640497574815703, 0.2615505762990405, 0.25899500496558286, 0.2564624408277967, 0.25390999349700594, 0.25130750864582657, 0.24872257143066376, 0.24614484498511904, 0.24352120503859434, 0.24088313840919612, 0.2382856356953863, 0.2356147920025858, 0.23289846600602324, 0.23021573814399732, 0.2275234350465376, 0.22477977833729906, 0.22207630986547391, 0.21932650046153956, 0.21661013660720163, 0.21388466399437356, 0.21118560382590576, 0.20844174304632868, 0.20566057260148282, 0.20291556352962625, 0.20016727782248908, 0.19743677580909522, 0.1946828480231751, 0.19198126193680562, 0.18922406040733222, 0.1864725989665975, 0.1837358192939306, 0.1809960344778185, 0.1782240108231166, 0.17550482505988516, 0.1727918863812603, 0.1700405343494761, 0.16734830767845824, 0.16473613252901903, 0.1620479847037699, 0.15937237211604513, 0.1567495470935826, 0.1540953522148867, 0.15147725530925757, 0.14885313916206186, 0.14624679430805526, 0.14352759265497975, 0.1409738300227491, 0.1384908253174127, 0.1359529931965986, 0.13343221317776666, 0.1309149883720842, 0.12843224790565172, 0.12597071206970867, 0.12352512135774048, 0.12109959379174277, 0.11868630532568968, 0.11630407225874428, 0.1139292506802445, 0.11159276937994889, 0.10927848988823886, 0.10701844059183556, 0.10474683669563563, 0.10246153257622766, 0.1002475482514133, 0.0980581978010404, 0.09590554893505394, 0.0937660703888938, 0.09165381702820159, 0.08956926428249011, 0.08751286111577654, 0.0855305182832739, 0.08352591018541675, 0.08146223033753897, 0.07953291762669398, 0.07763040165885203, 0.07576681677047672, 0.07391866964963031, 0.07220237314249564, 0.07040076001574334, 0.06863527792198133, 0.0668685202215464, 0.06517868925246502, 0.063450673479786, 0.061835617672265114, 0.06024948896238079, 0.058704248099498195, 0.05717623203357298, 0.05566512652445415, 0.054201458643863304, 0.05276867393985451, 0.051369942621135284, 0.0499994929129307, 0.048629638075232656, 0.047327031083955244, 0.04605480450919409, 0.044807600013796675, 0.04359776931935571, 0.04250976264359687, 0.041350319329380755, 0.04022715456777133, 0.03909413101636007, 0.03804736642153937, 0.03710641656365995, 0.03611393255535123, 0.03515713883388127, 0.03424945487860442, 0.03335991811675764, 0.03244211022739534, 0.03162827709406216, 0.0308437592904518, 0.030102625587120263, 0.029374483091297574, 0.028661740794672014, 0.027994305797370545, 0.027355044248731513, 0.02678069907579858, 0.026192445497516745, 0.025605304410863543, 0.02507915830023124, 0.024579835644638223, 0.02403879795608045, 0.02360080962362794, 0.023184845143347357, 0.022791098934564887, 0.022419682597591396, 0.022084846608493112, 0.021756330785414755, 0.021519078675646664, 0.021227734016793384, 0.02096267713964603, 0.02069174649996255, 0.020480588106998012, 0.02038806091943151, 0.020208085342849534, 0.019974822335048457, 0.019856217097727013, 0.019756903363199754, 0.019707644333502833, 0.01964142745385836, 0.019546385353441685, 0.019524513589060908, 0.01951791033960513, 0.019540453232863835, 0.0195615509877917, 0.01963173874628198, 0.019677945512401426, 0.01973998086999713, 0.019828402551485644, 0.01991824371458899, 0.02007336534835985, 0.02018412392307875, 0.02031023946896432, 0.020396519384252913, 0.020556725690430374, 0.020791339829617565, 0.020960787340092206, 0.021141864170498383, 0.02127665987744028, 0.021485096678804928, 0.021824101439946456, 0.022027268074517686, 0.02224210350659482, 0.022393260951433142, 0.02263660734222681, 0.022971658877887248, 0.02321049688693355, 0.02345684177709564, 0.02370096868671659, 0.02395991619212684, 0.02418847461118749, 0.024458327707000325, 0.02472833516247669, 0.025091847959308862, 0.02534892135320957, 0.025681139504114218, 0.025936195748796603, 0.026197071553568943, 0.026371250442971443, 0.02665079769926865, 0.0270064898763029, 0.02726867305446455, 0.02753112112517698, 0.02783834226972745, 0.028092730842233626, 0.02827905553595237, 0.028541326191316194, 0.028797894589722754, 0.02918491346570718, 0.02941192512587319, 0.029654259291304882, 0.029880355469594912, 0.030105844555878707, 0.030332416259448314, 0.030553012174061766, 0.03084970975580879, 0.031052443929584662, 0.03125465843651454, 0.03138404373734062, 0.03159066084989363, 0.031860609762063875, 0.032042535906050405, 0.03222031438318797, 0.03245863059911308, 0.03261784848032957, 0.032783325642969534, 0.032935992225807884, 0.033085143819463904, 0.03323289361968037, 0.03337259083563652, 0.03356680519228508, 0.03368816800919412, 0.03380695574192302, 0.033876959774826194, 0.03399431696884752, 0.03408770949699731, 0.03419341252143995, 0.0342913075150586, 0.03446123121786767, 0.03453417107697756, 0.03462443820159628, 0.03468936871798917, 0.03475224404516421, 0.03474166331559577, 0.034808528118468414, 0.03501079131541755, 0.035046689774124264, 0.03508482298424566, 0.035144450306796894, 0.0351827539092912, 0.03517172085111677, 0.03521974770991155, 0.03526602272870492, 0.03535625770488303, 0.035394000257402435, 0.03545610088224314, 0.03549418569283714, 0.035535218676099205, 0.03560190063308748, 0.03564591325599979, 0.035697117582752784, 0.03574947826590215, 0.03580645286150699, 0.035745944352580224, 0.03582812234037141, 0.036065068940186074, 0.03612561459656385, 0.03619591888818789, 0.036190625081739605, 0.03629112157695305, 0.036427938248756196, 0.03653545626142921, 0.036651522146589115, 0.03681085137653096, 0.03694151881469202, 0.037121461445117944, 0.037272466176366766, 0.037438661833147424, 0.03762306052995297, 0.03781986130080975, 0.037995779829194685, 0.03822975507442726, 0.03847848847871767, 0.03871999115033756, 0.03900338874088203, 0.039322456202276465, 0.039635834559350124, 0.039967997524812726, 0.040368038282309296, 0.040733953602845145, 0.04110660958582943, 0.04152266302780877, 0.04196237713101938, 0.04247754155149832, 0.042959980149889415, 0.04342822382625125, 0.043973218813168964, 0.04454486842161964, 0.04514106387028588, 0.04576859447240098, 0.04649876672723533, 0.04717518345227994, 0.04788603877312321, 0.048568978587655354, 0.04935726424154055, 0.050185791203064004, 0.05103731331259068, 0.05192279468044729, 0.052874305604499724, 0.05382614201971808, 0.05477343130742988, 0.05580738667060651, 0.056878136996361975, 0.05799797573200432, 0.0591436181358136, 0.060366342637900486, 0.061588317842340076, 0.06285399592767106, 0.06411264247476103, 0.06547353688174207, 0.06695056517426003, 0.068387462316845, 0.06987251577489868, 0.0713462719927807, 0.07293597168831413, 0.07455996604832119, 0.07624326968036753, 0.07797323348115667, 0.07974787135228698, 0.08157404218813395, 0.08342072718605531, 0.08534913601369522, 0.0873263656508583, 0.08943292549007094, 0.0915003893391188, 0.09356965924767416, 0.09575568468840812, 0.09799470454962272, 0.1002673914100487, 0.1026166010061549, 0.10509606444701025, 0.10754319166089922, 0.11004933901904249, 0.11250070899064375, 0.11513906691346895, 0.11782422836688003, 0.12056919947473081, 0.12336807642951843, 0.12636378393876913, 0.12925474653791566, 0.13218124303313505, 0.13520312147444152, 0.13828623068435938, 0.1413109285031953, 0.14453090780404543, 0.14788722421165745, 0.15120535351261583, 0.15452377619652397, 0.1579693706905087, 0.16147145532623086, 0.16511855153178412, 0.1687235751633556, 0.17235404476156674, 0.17608803747423044, 0.17988136733509716, 0.18370260468891705, 0.18761807559074947, 0.1916360972151011, 0.19565999069340156, 0.19974354533738606, 0.2038891910811977, 0.20809047162943858, 0.21223093403016804, 0.2165640448454463, 0.22094816284374733, 0.22538948933693964, 0.22987632340033737, 0.23454075228300442, 0.23911690352769324, 0.24375273258966065, 0.2483277755999446, 0.25309492196473665, 0.257940424753072, 0.26280384961323927, 0.26771874458358097, 0.2726790403296937, 0.2776963950434094, 0.2827636063136931, 0.28788019797097475, 0.29304564732789523, 0.29820537207781783, 0.30347362568726927, 0.3087602978975429, 0.3141195468568993, 0.31952077623702557, 0.32498935732928785, 0.33047056606941994, 0.33604258144678106, 0.341601934326452, 0.3472050275350643, 0.35275117183995175, 0.35845077133923914, 0.36418213509873887, 0.369950929256573, 0.3757533132867212, 0.38157452586854956, 0.3874441610935052, 0.39348115954106483, 0.3993946778868059, 0.4053453432999882, 0.41127438279899803, 0.41730086002270406, 0.42325909700838943, 0.4293533695241853, 0.4354680997258672, 0.44167101668430564, 0.4478164280029903, 0.4538961908216953, 0.46009637797364566, 0.4663114269142197, 0.4725236364799701, 0.4787685380475693, 0.4850933618686668, 0.4913522488892378, 0.4976250256690368, 0.5038561875936088, 0.5101591026842539, 0.5164683968801708, 0.5227830037773816, 0.5291018001788399, 0.5354406694326912, 0.5417621194450865, 0.5481106472408596, 0.5544304101933071, 0.5607502157463368, 0.5670143789641884, 0.5733361058428049, 0.579584489420664, 0.5858973757749831, 0.5921962007878901, 0.5985001127211768, 0.6047659425434968, 0.6109906964442265, 0.6172276015807425, 0.6234451681939496, 0.6296764394961734, 0.6358477341289933, 0.641947027255566, 0.648081614332879, 0.6541894491689629, 0.6603660636426262, 0.666404731887602, 0.6722934363556275, 0.6782961169692052, 0.6842628523860407, 0.6901585914043455, 0.6960548679895996, 0.7019529075712659, 0.7077611717713883, 0.7135291473878144, 0.7191815589608146, 0.7248742036088994, 0.7306149312547637, 0.7361973813804547, 0.741734956848844, 0.7471861030489302, 0.7526337336680454, 0.7579722335866129, 0.7633211711440622, 0.768611959821941, 0.7738948757424896, 0.779060146485196, 0.7841871797647965, 0.7892321954974773, 0.794217278890084, 0.7991863245316786, 0.8040410518746203, 0.8088109896338889, 0.8135426516514491, 0.8182073738738197, 0.8227012997527787, 0.8272405976733869, 0.8317795786212291, 0.8361544660020614, 0.8404554189081062, 0.8446754688065782, 0.848825455519299, 0.8528690062546836, 0.8568654313224353, 0.860779993039544, 0.8645293811594331, 0.8682880415471429, 0.8720002524196866, 0.8755751288189042, 0.879062817044412, 0.882439880454827, 0.8857539729662774, 0.8889575786534905, 0.8920924708376942, 0.8951345460797323, 0.8981174896687703, 0.9009682930823942, 0.9037779802911929, 0.9064369476337437, 0.9090049408864539, 0.911438155901513, 0.913826185638039, 0.9160948399958887, 0.9182918731378333, 0.9203898017053359, 0.9224507874423556, 0.9243414510077704, 0.9261154767046044, 0.9278143085712062, 0.9294136121764716, 0.9309526167491902, 0.9323461617157689, 0.9336607338603763, 0.9348532590488988, 0.9359465969076564, 0.9369115622085064, 0.9378079458846752, 0.9385617523713653, 0.9392573514957299, 0.9398474594537857, 0.9402668380150895, 0.9406546835237936, 0.9409253027167734, 0.9410975257731986, 0.9411619060899197, 0.9411162615869106, 0.9409672504481769, 0.9407774709575707, 0.9404084430196976, 0.9399380245700145, 0.9394003157157924, 0.938722805508775, 0.9378634719902915, 0.9369974811531514, 0.9360272665923882, 0.9349762385072834, 0.9337966888284914, 0.932541746316818, 0.9311574631430566, 0.9296745793615087, 0.928002421138982, 0.9263347886644856, 0.9245843975401555, 0.9227101046852889, 0.9207365714500494, 0.9186789412161358, 0.9165079034912712, 0.9143094064918151, 0.9119391518564212, 0.9094786293563721, 0.9069224232860612, 0.904282979507591, 0.90150567905445, 0.8986938477351685, 0.8958023237749262, 0.892807994318201, 0.8897253844190692, 0.886546961368241, 0.8832918800548524, 0.879908452158539, 0.8764884902658872, 0.8729827116780523, 0.8693613476072841, 0.86569237249053, 0.8620454465097896, 0.8581985780661064, 0.8542777988760161, 0.8501872040748755, 0.8461331611719637, 0.8420164713663649, 0.8378086390948316, 0.8335281661200363, 0.8291481671523907, 0.8247306248728401, 0.82029461052106, 0.8157330456593126, 0.8111081481702436, 0.806387064764093, 0.8016436271690571, 0.7968416476011531, 0.7919766913641303, 0.7870537198999661, 0.7821141022995676, 0.7770747682297068, 0.77193317415446, 0.7667993774335117, 0.7616141444677978, 0.756421849107098, 0.7511335246193259, 0.7458439434314171, 0.7404637703472489, 0.7350448120709289, 0.7294658872193747, 0.7239880799804899, 0.7185362559047984, 0.7129675657945211, 0.7073648652134238, 0.70174676935503, 0.6960785750428783, 0.690382032965233, 0.684658594285727, 0.6789097354161394, 0.6730658817704109, 0.6672796852560408, 0.6614458896982967, 0.6556149797252919, 0.6497621235474977, 0.6438752995974449, 0.6379868559310647, 0.6321360546757844, 0.6262101452395452, 0.6202750467324694, 0.6143721061209747, 0.608418231941513, 0.6023824293204801, 0.5964351844488502, 0.5904836157770098, 0.5845154327789363, 0.5785627343607797, 0.5726389645495489, 0.5666855644060181, 0.5607379925965612, 0.5548034949793345, 0.5488715223994427, 0.5428934636643916, 0.5369916860412953, 0.531100400091016, 0.525235715448955, 0.5193692320212683, 0.5135564812249862, 0.507720464847561, 0.5019064396135771, 0.4960957223130542, 0.4903318496376979, 0.48452143417498234, 0.4788169872913568, 0.47313581558095924, 0.46761912715558923, 0.4619725125396319, 0.45622881524796727, 0.45067269373063673, 0.4451467305038418, 0.43963559330309715, 0.43417719620964984, 0.4287387176105119, 0.42335201399746375, 0.41800182140862546, 0.41276932432886415, 0.407486749573743, 0.40222406157894475, 0.39703637140242437, 0.3918941358101094, 0.386767010621472, 0.381722402569429, 0.3766957887914855, 0.3717487413788901, 0.3668487078211766, 0.36210780926388647, 0.35729144999107915, 0.35245224635067524, 0.34775961456877763, 0.3431196171871538, 0.3385274479624619, 0.33399603421217444, 0.32949101800793257, 0.32507365384746806, 0.3207110793284048, 0.3163957087265595, 0.31214655192671736, 0.3079372743325943, 0.303804964097562, 0.2997301994728326, 0.29575360642566795, 0.291791299755478, 0.2879080834245262, 0.2840679790981851, 0.2802914304318995, 0.27653590652103643, 0.27289219561204037, 0.26927301189009134, 0.2657573803483685, 0.26230197870554545, 0.2589557669387855, 0.2556165201728673, 0.2522878428535043, 0.24908460184996692, 0.24594290567989463, 0.24292001238021022, 0.23989534038098728, 0.23687099675557352, 0.23398575821475676, 0.23116203036851304, 0.2284967236272404, 0.22578447545104594, 0.2231482327029421, 0.22056913252826144, 0.21805657257964287, 0.21553306983194132, 0.21316116076643446, 0.21085794492958979, 0.2086052718956985, 0.20641315723826867, 0.2042160217604651, 0.2021526748755128, 0.20018247718680385, 0.19822705404270363, 0.19633022379432416, 0.19445190762965803, 0.19267641279642153, 0.1910558011259057, 0.18937838880080535, 0.18776166635322206, 0.18617331048163688, 0.18467880012488783, 0.18323447533635584, 0.18185170846344742, 0.1805230455587715, 0.17924779025307802, 0.17802522829048678, 0.176806297857931, 0.17569302035160655, 0.17462747645890456, 0.17355525561783083, 0.1725907594667912, 0.17176056571846146, 0.17087108361302375, 0.17002965078746554, 0.16920108124624553, 0.16845685244320316, 0.16771859953697368, 0.1670641248813182, 0.16644890361017894, 0.1659434566565578, 0.1653960340200664, 0.16491843871421177, 0.1644489186562681, 0.16401981786870512, 0.163592695340809, 0.16324470484890571, 0.1628369310440035, 0.16256781155387334, 0.16232534084918318, 0.16211489413062202, 0.16192397317821092, 0.16185546668072362, 0.16170321378677271, 0.16158083576539542, 0.1613873095609059, 0.16133274533595462, 0.16139469879306567, 0.1613670291653956, 0.16136337768660888, 0.1613196995491925, 0.16136753598185993, 0.16139455040963374, 0.16147845613053885, 0.16157464337740055, 0.16171659475941297, 0.16183107476937997, 0.16197189750278415, 0.16210777188655726, 0.16224022174844238, 0.1623982832945461, 0.1625639671769532, 0.1627845490106469, 0.16295620099488273, 0.16308953062574152, 0.16327981627334717, 0.16347186945911804, 0.16366470438245462, 0.16385733268351055, 0.16405160788507808, 0.16424049559257806, 0.16442637034887134, 0.16462243951970315, 0.1647974760736027, 0.16487916583587006, 0.16505381510963016, 0.16521612757835294, 0.16540840163865503, 0.16553954524847841, 0.16569078945745633, 0.16579477164154396, 0.16588760773328615, 0.16589710806591487, 0.16597332323191868, 0.16610507074273678, 0.16613472423125444, 0.16614920587949505, 0.16619004291757453, 0.16616548345832052, 0.16598562329869798, 0.16594535180659437, 0.1658786827580587, 0.165816831894785, 0.16569317452903645, 0.16566959465297104, 0.16547960739118064, 0.1652706342570204, 0.16494165310950687, 0.16470284921353384, 0.1643698743949412, 0.1640813784434579, 0.16375963683884778, 0.16345025781199884, 0.1630565700356927, 0.16273470587254166, 0.16226661307283283, 0.16177290375473938, 0.16109029463756322, 0.1605622421157581, 0.16005578990310743, 0.1594443538857355, 0.1587988268580936, 0.15817865642139334, 0.15745663862948228, 0.15659509473147615, 0.15582302542825338, 0.15501202210221263, 0.15420784807916524, 0.1533140056602321, 0.15241574412831302, 0.15144634990150654, 0.150442605419124, 0.1493187890580606, 0.14825587584320352, 0.1471981558413699, 0.14604929462296826, 0.1448634310857383, 0.14369168382340933, 0.14242519742966034, 0.14105907554606836, 0.13973194216855636, 0.13836612211818528, 0.13699028354890805, 0.1355442064412342, 0.13404752591585833, 0.13253046995803017, 0.13097626009750085, 0.1294987886576434, 0.1278564318394937, 0.12615259980779908, 0.1244530979842422, 0.12272038167526295, 0.12090592807904799, 0.11911239293886877, 0.11732522437657211, 0.11545415435606741, 0.11355003702906928, 0.11160443891191678, 0.10963564685270857, 0.10760250480740724, 0.10557182934150573, 0.10350699215568565, 0.10133755667200402, 0.0992152918079309, 0.09710227133796959, 0.09490297706717418, 0.09267233761121545, 0.09038547650204341, 0.08809750202655198, 0.08570493275755109, 0.0833658390975744, 0.08099367203849704, 0.07867514902121443, 0.07623024319204502, 0.07371557311868289, 0.07122834972033877, 0.06871528516662458, 0.06623981038813119, 0.06366978633148819, 0.06104305177298124, 0.05843850725093001, 0.05581280412838494, 0.05314958065283814, 0.05048580706766482, 0.04787877266209648, 0.045166096456721316, 0.04243938176820427, 0.03960785846913923, 0.03686524924958124, 0.03410430637172472, 0.03132615226015713, 0.02853187036851795, 0.025807797659037988, 0.02297359240137494, 0.020108360448007546, 0.01726074611790453, 0.014404199524280095, 0.011502349072482545, 0.008634400691595516, 0.005782879469794032, 0.0028943430624923995, 0.0