0.0356055436960549, 0.03517695395143, 0.034729628676505996, 0.03433916291762934, 0.03396473665866925, 0.03359426471252333, 0.03323210735046511, 0.03288189488483893, 0.03253212214426351, 0.03214846033549095, 0.03181348624408855, 0.03148016701280824, 0.031221798369309144, 0.030881889704147777, 0.03050562949470854, 0.030180978981128755, 0.029858160894467117, 0.029542007229809816, 0.029222077884016068, 0.028891942318646936, 0.028577681751708744, 0.02826486769328498, 0.027975747736852453, 0.02766362615788982, 0.027308238345284494, 0.027008643252767556, 0.026709849933847767, 0.026431932963930663, 0.026133643812032446, 0.025831229512508744, 0.025540555016667046, 0.025253152515557778, 0.024959499208002195, 0.02468070643821745, 0.02436622422433318, 0.024099751179073193, 0.023835214829528387, 0.02363202262679928, 0.023365638002938213, 0.023074235528518342, 0.02282551967687169, 0.022581788933715603, 0.022308976562917967, 0.022080262528321473, 0.021938601882561966, 0.021707277827707216, 0.02148524127885268, 0.02120112557599483, 0.021005803204328814, 0.02082727042090203, 0.02063986571447378, 0.02045843619699635, 0.020263600625356218, 0.020097254671734247, 0.019931502003450886, 0.019777097888738472, 0.01962854679777514, 0.019498413475539707, 0.019360922830460973, 0.019198960444135663, 0.019080403879221778, 0.01896770096765139, 0.01891758888530564, 0.018810543285859516, 0.018728224344595475, 0.018639182623842104, 0.01856065485030552, 0.018426230722398847, 0.01837641171205548, 0.018354841313952916, 0.018315019447777477, 0.018283394421505034, 0.01825032021667921, 0.018236792085579018, 0.018253418809120795, 0.018253518550628955, 0.018263379516830564, 0.018270764483732157, 0.018301757057695354, 0.018339454092867725, 0.01838921276186026, 0.01844827745290883, 0.018536412745683326, 0.018612082923103165, 0.01865450977745314, 0.018757482949508034, 0.01886884039999224, 0.019015911605766607, 0.019141713807680424, 0.01927843815922203, 0.01942615464973052, 0.019584936932597007, 0.019784270171201185, 0.01996169971368663, 0.020068761806678072, 0.020282486073574357, 0.020504216816923968, 0.020763938305844443, 0.020999633425024904, 0.021229388615310596, 0.021489861991747117, 0.021760932005493793, 0.02203063472473882, 0.022325286321429834, 0.02264043247003192, 0.022955535805632806, 0.02328246187184571, 0.023616472689062907, 0.023968135713146047, 0.02431952971197706, 0.024696863341489492, 0.02508578008578556, 0.02551835425197782, 0.025927027930155052, 0.02632268169369522, 0.02676252345979935, 0.027214570231275676, 0.0277255077443642, 0.028196428006337437, 0.028711892013691225, 0.02920906600040076, 0.0297224613553718, 0.030190339332502817, 0.030742565039550838, 0.031303870931559334, 0.03187964076739389, 0.03246712806122345, 0.033088540758060773, 0.03369710912918578, 0.03430432394019134, 0.034941369657382385, 0.03559078041803508, 0.036286911042634276, 0.036956838705101344, 0.037548034257044886, 0.038258261781107826, 0.03897715635707594, 0.03975916480733244, 0.04049009800713026, 0.041216949126457354, 0.04197609226001931, 0.04274713437406615, 0.04353745673887454, 0.04433143556628425, 0.04512305305869189, 0.045943493102008306, 0.046775275995272904, 0.047591463765292746, 0.0484493776333734, 0.0494175947300817, 0.05028263177621096, 0.051163443570134325, 0.05202010626910867, 0.05293535127099956, 0.05380830447596948, 0.05475339018605461, 0.05570663567804526, 0.05672708193030412, 0.057689835817581726, 0.05860331602539887, 0.0595974217638547, 0.060599341456174405, 0.06163128315642211, 0.06264645363947112, 0.0637224675244112, 0.06474974309662082, 0.06578898284559025, 0.0668273525202642, 0.06789036941839678, 0.06892873250500503, 0.07001502991703308, 0.07106912639916997, 0.07217434132795929, 0.07328422439609925, 0.07441859566264725, 0.075535922812142, 0.07664724242588764, 0.07777851101762327, 0.07891511506910463, 0.08009376873572115, 0.08123622598416588, 0.08235399265724387, 0.08351438668234873, 0.0846793181607605, 0.08588049886464971, 0.08705001467315529, 0.08816163532572717, 0.08935039137894765, 0.09054048737177839, 0.09177121495482113, 0.09295922448201949, 0.09410430602239522, 0.09530509968844615, 0.09650617029961556, 0.09776143667823299, 0.09895621069149622, 0.10009535166943725, 0.10130337686388753, 0.10251020106323057, 0.10369372818251367, 0.10490077751493579, 0.10614435798272538, 0.107341114247507, 0.10853738746070514, 0.10980140673010176, 0.11098686529597024, 0.11213285324276451, 0.11332701405746919, 0.11451920079735721, 0.11574078896787371, 0.11692356357645636, 0.11806553254949459, 0.11924937496031306, 0.12042806353008707, 0.12163560323603961, 0.12279872797134947, 0.12395769775158016, 0.12511192011566474, 0.12626083350335945, 0.12740880561426385, 0.12854490548635936, 0.12963033100612845, 0.13075837886144273, 0.13187640118165914, 0.1329377272727653, 0.13404123646477806, 0.13515866504769777, 0.13623288428457309, 0.13729590147336612, 0.13837942748771748, 0.139415541532791, 0.14043436755425326, 0.14145106271212896, 0.14245646901628917, 0.14343303885754533, 0.14441686160848666, 0.14533825143993415, 0.14630118833443834, 0.14724745245931245, 0.14820902607853376, 0.1491182271951223, 0.14997843174499648, 0.15086230349908908, 0.15172896526757434, 0.1525930836731764, 0.15342331219714844, 0.15423202178951478, 0.15502936799844955, 0.15580927388545435, 0.156588641222709, 0.1573307240680644, 0.15803102267539199, 0.1587412219518882, 0.15943192289434208, 0.16018623672406657, 0.1608267551351127, 0.1614150133723362, 0.16202826087056013, 0.16262218265489523, 0.16317179225823752, 0.16372874847814112, 0.16429059913856445, 0.16479981177556421, 0.1652880532030315, 0.16569607628546093, 0.1661485451244807, 0.16658777781506773, 0.1669878315104299, 0.16736327168630613, 0.16775325210133687, 0.16807431861217162, 0.1683678495459188, 0.16864385007604923, 0.16889613541238455, 0.16910232688902382, 0.16930902300594164, 0.1695119136541049, 0.1696640094792101, 0.1697912998035074, 0.1698518486096983, 0.16993399149591024, 0.1700568433732218, 0.17007460543311073, 0.1700685142583385, 0.16995966519212116, 0.16991438391625222, 0.16986895224232043, 0.16976111969058594, 0.16962590762141017, 0.16944368347032637, 0.16925610817451836, 0.16909143197325305, 0.16884034773233256, 0.16856382534679737, 0.16823948985373505, 0.16791396170217185, 0.16755356115124073, 0.1671738871040935, 0.16676621922044918, 0.16635510599153716, 0.16588847831138118, 0.16542967185861673, 0.16490558100895644, 0.16435665850229292, 0.16381929502175174, 0.16321501193371235, 0.16255761627487555, 0.16190914124224953, 0.1612343909276059, 0.1605381591723641, 0.15980995506190748, 0.15909230230808705, 0.15830699340670126, 0.15749749537098662, 0.15659492150604606, 0.1557449841411663, 0.15489825379402095, 0.1539874479768622, 0.15305068566393407, 0.15215430598615584, 0.15115779336619348, 0.15016900699228442, 0.14912509794482168, 0.14806060853710742, 0.1469702388473518, 0.1458641078101511, 0.14475335664976108, 0.14360140674973385, 0.14242851012597038, 0.14121249737957547, 0.14000022659051678, 0.13878279030821492, 0.13752396473572245, 0.1362443203922694, 0.13501509943037676, 0.13368538958643783, 0.13233458355300762, 0.13097281543112516, 0.12959410125259868, 0.12824494622085564, 0.12682635620147417, 0.12542779240044932, 0.12397607388845848, 0.12251165214112303, 0.12101461623207671, 0.1195264670395791, 0.11801903427674534, 0.11650290725200882, 0.11497252074341902, 0.11355318698640186, 0.1119795072596988, 0.11032617730325511, 0.10874897941474533, 0.10716057310239656, 0.1056078541229029, 0.1039921942993458, 0.10235438402063958, 0.10072578780209755, 0.0990891961321313, 0.09754300628446981, 0.09587918965722964, 0.09422638734919091, 0.09255825918298363, 0.090889143592646, 0.08919440156423285, 0.08752613085599095, 0.08588484947587532, 0.084208403813901, 0.08253201035594032, 0.08090248672321279, 0.07922114880458751, 0.0774895398211445, 0.07582238489186603, 0.07415610155281, 0.07252814456980557, 0.07086106249686633, 0.06926277977406362, 0.06759826031481801, 0.06598257010343916, 0.06433236604463292, 0.06269415535256852, 0.0610433444495533, 0.0594320780693887, 0.05783151416402819, 0.05624208266288413, 0.05466427244137974, 0.053140285505134735, 0.05158211639047344, 0.050002896222988556, 0.04848111575392465, 0.04697369606080703, 0.0454936395047966, 0.04401565586912319, 0.042613831453623185, 0.041163788843918386, 0.03973579423557305, 0.03835461117189308, 0.0369684568560336, 0.03559935363787285, 0.03426318835125778, 0.032951593857640404, 0.03161845843919857, 0.030363296150216598, 0.029143840823626997, 0.027934991503839154, 0.026752178934834225, 0.025618286049700536, 0.024487235619705693, 0.023341817403023574, 0.022276469804609622, 0.02123967917680732, 0.02029128052152526, 0.019307189009548264, 0.018441234109221223, 0.017516684127032583, 0.016632554106547348, 0.01577397738091315, 0.01497216476753184, 0.014146048043706493, 0.013431358868358884, 0.012753046517433518, 0.012136481064989315, 0.011530395138735224, 0.010994004179470234, 0.010465384875261672, 0.00997993188605499, 0.00953558011861934, 0.009137957907355613, 0.0087797097712102, 0.008471744377092588, 0.008208768027915245, 0.007986434118752021, 0.007815724851681381, 0.007747772373556196, 0.0076633215799064, 0.007629625543977865, 0.007588005325574858, 0.007663715819976326, 0.007833993514793226, 0.00800056124195344, 0.008219190448579747, 0.00852939871213752, 0.00884813341178865, 0.009158389374379712, 0.009595699402952108, 0.010084803323094508, 0.010663105357525838, 0.01125305367049026, 0.011896258324443916, 0.012598198435169506, 0.013356254810617847, 0.014156029890664704, 0.015029100255374494, 0.01598779538238735, 0.01697000705678981, 0.018010920650874857, 0.01915235174538875, 0.020305874719676282, 0.021462113732025664, 0.02274598171764916, 0.024087812695226026, 0.025563976347265028, 0.02701329708133147, 0.028533313834163725, 0.030108103697846764, 0.031746122734856906, 0.03336624518477403, 0.035140232840860965, 0.03696002533548114, 0.03885219023189811, 0.04080269430719584, 0.04283409788314433, 0.04489994317356734, 0.04701444535180555, 0.049203815256012806, 0.05145368851132974, 0.05379366992588962, 0.05616138224192758, 0.058562314271039834, 0.061058848827555946, 0.06361605256794342, 0.06627075979759253, 0.06894483999749548, 0.07168176766204531, 0.0744812179515679, 0.07734287150325331, 0.08025170817441707, 0.08323868055049231, 0.08631059179185321, 0.08941513060887785, 0.09258106049401035, 0.09583490667139116, 0.09911891999630065, 0.10248416341297675, 0.10588831151363413, 0.10935394067721152, 0.1128631533926551, 0.11645172408073172, 0.1200790896357551, 0.12378643444480202, 0.1275500745835083, 0.13142113619645632, 0.13528982727989194, 0.1391945765864783, 0.1431814782915167, 0.1472236756590107, 0.15134265580810266, 0.15549094996740953, 0.15966711472241196, 0.16392772495022445, 0.1682401709064918, 0.1726211071766197, 0.1770335389704802, 0.1814678119719767, 0.1859857735534417, 0.19055195966908653, 0.19519532611733992, 0.19985285339520267, 0.20457105602255332, 0.20932309623440018, 0.2141226839488225, 0.21894688367478368, 0.22384172739853236, 0.22881703161114814, 0.2337939500377024, 0.23881525775954815, 0.24387014283496544, 0.24897846027737938, 0.2541202920262121, 0.2593103900900137, 0.2645391794756105, 0.269805838005766, 0.27510953444230024, 0.2804175691930289, 0.28579683754158836, 0.29120880377721714, 0.2966258953513607, 0.3021047783004989, 0.30763738390857376, 0.3131710835042746, 0.3187342807652241, 0.32435065302706884, 0.32996723242960435, 0.3355704583100818, 0.3412478222584064, 0.3469489615948195, 0.35272948457567777, 0.35846873673877794, 0.3641859790116957, 0.36997890737755623, 0.3757911679966321, 0.38162677014585755, 0.3874743744374337, 0.3933241333486734, 0.3992063146422232, 0.40510251651455187, 0.4110044792589802, 0.41692690292240103, 0.4229728678678631, 0.42890173977906, 0.4348458866315532, 0.4406907048176062, 0.44667413036049053, 0.45271752078113603, 0.4587003030011578, 0.464688373763838, 0.47062901695598214, 0.47663043674342526, 0.4826403632564101, 0.4886371690612857, 0.49463162792691906, 0.5005958526615681, 0.5065862177433125, 0.5126213427047456, 0.5185910277816338, 0.5245553287174717, 0.5304492749031717, 0.5364071250612555, 0.5423400612743146, 0.5482734544796419, 0.5542533489135478, 0.5601487882290428, 0.5660314993548766, 0.5718610105056522, 0.5777194631191329, 0.583480849489196, 0.5893110472885585, 0.5951164165693508, 0.600913823598894, 0.6066664084917597, 0.6124332046821971, 0.6181301574733676, 0.6238029133653105, 0.6294283369936857, 0.635052253505174, 0.6406524105014672, 0.6462174977492331, 0.6517524087612087, 0.6571557116518707, 0.6626401081453894, 0.668171590379197, 0.6735676123363642, 0.6789293547955304, 0.6842141276445748, 0.6895095017569521, 0.694738242205691, 0.6999570078488788, 0.7051332253310488, 0.7103007013081002, 0.7153859284052697, 0.7204362408120453, 0.7254351037267616, 0.7303903156143962, 0.73527642191599, 0.7401446030714489, 0.7448840905043322, 0.7496661529482397, 0.7543944450049185, 0.7591203675325049, 0.7637343388026546, 0.7682455354591466, 0.7727626975177154, 0.7772242661418052, 0.7816691658023657, 0.7860136809346635, 0.7902449859397839, 0.7944874205851759, 0.798670710604968, 0.802794618966372, 0.8068588620937505, 0.8108410606629202, 0.8147877591654277, 0.8186724908617035, 0.8224852238955843, 0.826246534415588, 0.8299837392098214, 0.8336132086040152, 0.8371810302012789, 0.8406547226858218, 0.8441014280969413, 0.8475024926424034, 0.8508159187542756, 0.8540645725573105, 0.8572332668467678, 0.8603528015798225, 0.863437196630136, 0.8664183915716445, 0.8693337507876685, 0.8720871368784728, 0.8748812658793758, 0.8775756712740048, 0.8802279965286488, 0.8828066219534604, 0.8853977444103294, 0.8878193219428934, 0.8901265121293163, 0.8924178722103435, 0.8946379215991273, 0.8968087110919315, 0.8988833243041693, 0.9008804697738172, 0.9028155780998895, 0.9046797730008298, 0.9064508966259108, 0.9081757623095852, 0.9098429186962763, 0.9114212185886298, 0.9129281648134635, 0.9143318915326503, 0.91570015144812, 0.9169732346777212, 0.9181983344238173, 0.9193496437940022, 0.9204545604486515, 0.9214561694465289, 0.9223842808133655, 0.9232442489545994, 0.9240333280102159, 0.9247345452776078, 0.9253845700550561, 0.9259486122056318, 0.9264582880619805, 0.9268965525099351, 0.9272687651404702, 0.9275649459224361, 0.9278476867554517, 0.9279975110762955, 0.928081454743215, 0.9280577838369528, 0.9280150753102866, 0.9278893985380844, 0.9277124473065498, 0.9274672654959218, 0.9271201007363318, 0.9267444599519694, 0.9262782584005843, 0.9257692136811274, 0.9251920235182093, 0.9245672196825754, 0.9238539898045974, 0.9230984093395795, 0.9222542174527192, 0.9213481247333443, 0.920383023056369, 0.9193541574681302, 0.918284502994442, 0.9171328369915148, 0.9159228289815491, 0.9146401196915385, 0.9133163579323552, 0.9119198669900265, 0.9104824803572295, 0.9089873911800198, 0.9073961031844898, 0.9057927101263583, 0.9040825437113243, 0.9023708590285752, 0.9006006876673472, 0.8988689602337865, 0.8969737154516074, 0.8949679183603094, 0.8929822268735228, 0.8909446072355706, 0.8888658106094633, 0.8867259146366457, 0.8845570171649841, 0.8823182304527826, 0.8800335344744413, 0.8776545482213469, 0.8752861443982436, 0.872858771221172, 0.8703995559468297, 0.8678950437846996, 0.8653365345270201, 0.8627459354414885, 0.8600930754716377, 0.8574207182257376, 0.8547067151822743, 0.8520355498871814, 0.8492311524643134, 0.8462975492111517, 0.8434383378273606, 0.8405409023596662, 0.8376211689059087, 0.8346490378517767, 0.8316405661140865, 0.8286019225139117, 0.8255311426036145, 0.8224585668355242, 0.8193225719731111, 0.8161784335731269, 0.8129851028337869, 0.8097664208780642, 0.806510647742801, 0.8032443859887701, 0.7999243135269261, 0.7966136671448554, 0.7932783843782395, 0.7899414832441705, 0.7865570052221831, 0.7831544084843184, 0.779729213251468, 0.7762850563386812, 0.7727859028769459, 0.7693106543251093, 0.7657969738244138, 0.7622875917814402, 0.7587603319630998, 0.7551648662109602, 0.7516117192012887, 0.7481293019323577, 0.7445314310112128, 0.7409237707998675, 0.7372774588428871, 0.73365559206621, 0.7300043650623619, 0.7263662938330315, 0.7227190019378816, 0.7190634383603409, 0.715400516949663, 0.7117433728121151, 0.7080668021087404, 0.7043861205166699, 0.7006897766720098, 0.697004518149703, 0.6933165360563028, 0.689626600888302, 0.685857039900664, 0.6821753411551383, 0.6784894763682222, 0.6748889930050691, 0.6711875155825486, 0.667421898365057, 0.6637384110238757, 0.6600562799895796, 0.6563372333724665, 0.6526655342382208, 0.6490569133940315, 0.6453821924559758, 0.6417148445215061, 0.6380602263740265, 0.6344083656479123, 0.6307483487664317, 0.6271170551093984, 0.623494599199598, 0.6198937732420408, 0.6162890423232329, 0.6126905003231563, 0.6091089608620401, 0.6055390169783575, 0.6018953209061961, 0.5983606835364954, 0.5949051523134905, 0.5913786938783634, 0.5878663513888599, 0.584343961035003, 0.5808639717895024, 0.577395282798265, 0.5739436266938607, 0.570506596233456, 0.5671018285367259, 0.5636932989674827, 0.560260060069031, 0.5568909679039329, 0.5535370148992811, 0.5502110433658784, 0.5468875388190775, 0.5436599119202884, 0.5403617642562696, 0.5370861712754245, 0.5337519453281959, 0.5305307993981286, 0.5272509199726825, 0.524074344504465, 0.5209116816279269, 0.5178227696862339, 0.5146834508205764, 0.511576343174885, 0.5084756374949121, 0.5053960467501576, 0.5023376727858629, 0.4993006092147522, 0.4962653363636473, 0.49327362227508426, 0.4903023533919089, 0.48734930066929655, 0.4844198706260473, 0.481508885532153, 0.47862172494815164, 0.47575563602765747, 0.47288380483316517, 0.4700636761177241, 0.467300232110652, 0.4645156031523887, 0.4617535147885378, 0.45899182950272677, 0.45627736678420544, 0.4535545537721099, 0.4508860195132834, 0.4482370582659671, 0.4456814767666715, 0.44306317597002365, 0.44046439021029854, 0.43789510441441154, 0.4353491219694968, 0.43281876309209744, 0.43031935869474236, 0.4277806668976175, 0.4253327661764166, 0.4229030122830886, 0.4204868121047968, 0.4180948420378404, 0.41573866510329227, 0.41338200138425774, 0.41104529003008433, 0.4087726163272869, 0.4064701306682278, 0.40411641149741223, 0.4018673571754898, 0.39963561535495873, 0.39748265931505317, 0.39527836433624997, 0.39299481434018535, 0.39084524525003767, 0.388710435048439, 0.38661286740042744, 0.38450598737052377, 0.38244555826573984, 0.38036907424904726, 0.3783113033355788, 0.3762744171939576, 0.374252924775771, 0.37223228914627254, 0.37024868883991924, 0.36828153997099145, 0.3663821501637342, 0.3644409129031901, 0.3624621386885079, 0.36056507744769933, 0.3586825068062903, 0.35679964676490533, 0.3549476666852694, 0.3530968068858058, 0.35127310600000583, 0.34946202553993505, 0.34771015144134326, 0.34591845689329676, 0.34408069189892, 0.34232668699901053, 0.3405835605557626, 0.3389004076125519, 0.3371730414317275, 0.33540305636981205, 0.33370988005684377, 0.33202644393143976, 0.3303699593727875, 0.32870396349435227, 0.32707813020945736, 0.3254297338631216, 0.32379334891437267, 0.32219303374053754, 0.3205762490567795, 0.31892010412040334, 0.31733344887993786, 0.3157548796274812, 0.31419410660684716, 0.3126301758390672, 0.31105495039806563, 0.3095099045628918, 0.30797163670208355, 0.30645724117232703, 0.30493015903020537, 0.3033762692007246, 0.30186827726589527, 0.3003653621141666, 0.2988553015872181, 0.2973641524352404, 0.2959043552743809, 0.2944186347043189, 0.29293888434802484, 0.2913987044016084, 0.28993856715220084, 0.2885118539905597, 0.28705112321790766, 0.28559429026422467, 0.2841241278239606, 0.2826770229955931, 0.2812913979908961, 0.2798422001443281, 0.2783989714870632, 0.27699551243067405, 0.275558394267994, 0.2740787396589485, 0.2726600927987259, 0.2712438760916743, 0.2697956163957158, 0.2683881116796789, 0.26703454933438475, 0.2656204084311584, 0.264209543191537, 0.2627525771307738, 0.26135340249890854, 0.2599586551684204, 0.25855802857984783, 0.2571574097147489, 0.255732320924233, 0.25433488874704646, 0.252999851640516, 0.2515919053718306, 0.2501865537552848, 0.24870253610009024, 0.24731147149470525, 0.24602278566910385, 0.2446127606126252, 0.24320632663200484, 0.24172938338608277, 0.24033775168442148, 0.23892197562316356, 0.23752914264161876, 0.23613333137435952, 0.23480347721087558, 0.23339394065725283, 0.23192483833176036, 0.23052610364694992, 0.22912497657860376, 0.22769962094839644, 0.2262971291951235, 0.22492589433061783, 0.2235132803617341, 0.22213444947631766, 0.22071641160738276, 0.21929970856599537, 0.2178987397766539, 0.2164819703491461, 0.21504694990993306, 0.21363504813414733, 0.2122228039210375, 0.21084199711288876, 0.20942481977241412, 0.20796233748863827, 0.2065532752934254, 0.2051423265068647, 0.2037664231908695, 0.20234755953512013, 0.20089505132021476, 0.19948170695445294, 0.19806683476158743, 0.19659915472889639, 0.19518827704208894, 0.19384212700484119, 0.1924153621538303, 0.19098964222952433, 0.18956732776170276, 0.18814313892186488, 0.18663905230666505, 0.18522698731765685, 0.18381127512157286, 0.18241705706635644, 0.18099279016257666, 0.17951405042580723, 0.17809574482899573, 0.17667435241384827, 0.17531424021741773, 0.17388049381363957, 0.17243917326563482, 0.1710110664948203, 0.16958453636772916, 0.1681155161260434, 0.16669785443810775, 0.16533825067318364, 0.16391204061606798, 0.16248914176250956, 0.1610669575728599, 0.15965057944172345, 0.15818309847138856, 0.15677910745147378, 0.15537481244166088, 0.15398778167141894, 0.15258191138877353, 0.15123174339741668, 0.14982280253230662, 0.14841900803010885, 0.1469686150352641, 0.14558082479729995, 0.14420928940161692, 0.14282300088386377, 0.1414395903242639, 0.14008857538657082, 0.13870753223820054, 0.13726763212391505, 0.13590424355897934, 0.1345419235813909, 0.13321297748935088, 0.1318500669349913, 0.1304569296181588, 0.12910660687076275, 0.1277586127136711, 0.12649663587874266, 0.1251438288381049, 0.12375737014312675, 0.12242546080793248, 0.12109850384513869, 0.1197545025054059, 0.1184404244819118, 0.11717192189838854, 0.11586066028917619, 0.11455614637174477, 0.11322150906656327, 0.11193483321733885, 0.11065503940376945, 0.1093771747630151, 0.10810437851755055, 0.10684665900263327, 0.10558336481508236, 0.10430666504292622, 0.10305834245886462, 0.1018153055265398, 0.10060231155672639, 0.09936747895104626, 0.09809098719147923, 0.09687705928546426, 0.09566774128574164, 0.09450755491538258, 0.09330306580183875, 0.09204060043306646, 0.09086080208782725, 0.08968537548499686, 0.0885785341352897, 0.08740522619911097, 0.08622648695498068, 0.08507341539684012, 0.08392847715390174, 0.08275735520115732, 0.08163300270899068, 0.08051974717904692, 0.07940744385302079, 0.07830213470892071, 0.07726771517177969, 0.07616885026275479, 0.07508838001504956, 0.07401027988444912, 0.07294290175827939, 0.07178050861355557, 0.07074687176265444, 0.0697318085278045, 0.0687046663207069, 0.06768337649193648, 0.06677122731690856, 0.0657496630609258, 0.06462794709889916, 0.06364520751939859, 0.06266761439748578, 0.061756885266278275, 0.060783134368917816, 0.059853467534707744, 0.05889473417626929, 0.05794733399158996, 0.05692261140109263, 0.05600778964720052, 0.05511535728167659, 0.054209249923405846, 0.05331011658716545, 0.05242058554209018, 0.0515355975413137, 0.050756206790063575, 0.04987405286904063, 0.04900513107604395, 0.04811440171292058, 0.0472741763577946, 0.04639184841090564, 0.04557662862666189, 0.04476745981522688, 0.04397438490878438, 0.04317676923758164, 0.042347176750953154, 0.04156906522305704, 0.04079612991895508, 0.04007530067182044, 0.039307880301731046, 0.038590863811496734, 0.03783551458394658, 0.037090962968203245, 0.03634939323831437, 0.035626024259548125, 0.03487503081797275, 0.03417430910921076, 0.03348014398385702, 0.03279506263251509, 0.03211391597775288, 0.031456805723772074, 0.03078727021740973, 0.030125604011345473, 0.029505978638594648, 0.028855308640452364, 0.028187089770250993, 0.027558257420789625, 0.026936585527516512, 0.026356289773217353, 0.025744325289649633, 0.025084816842536793, 0.024497268408566263, 0.0239147078281975, 0.02329564369995192, 0.022728810549432373, 0.02224838384100637, 0.021677614443124923, 0.02111540771904822, 0.02054915560644191, 0.020004592278769336, 0.01946693499442167, 0.018936016551771975, 0.018411681554432926, 0.017942798914840626, 0.017425009173045864, 0.016876936576958854, 0.016381448083749566, 0.01589171763174623, 0.015437061954825793, 0.01495486110594034, 0.014572938186204866, 0.014092955855626511, 0.013624764085493905, 0.013115903811551638, 0.012674936277811917, 0.01227944689970569, 0.011845801535872082, 0.01142015119047943, 0.010994642729329335, 0.010584476337748762, 0.010239401186147877, 0.009834088180644587, 0.009474632528077708, 0.009082210743790961, 0.008699729686305323, 0.008343565820004019, 0.00797657173011287, 0.0076209137375987755, 0.007270759349093263, 0.006928480407884409, 0.0066303759461776995, 0.006297894274330968, 0.0059668401477039066, 0.005652298481067985, 0.005345116743245196, 0.005086637702463414, 0.004788015735488835, 0.00448851691081723, 0.004208502263430623, 0.00393598046205204, 0.0036952133057990806, 0.003433900322781869, 0.0032887140688814868, 0.003030069755432735, 0.0027852547916714437, 0.0024723577759410754, 0.002262466492057611, 0.0021131168134352644, 0.001909694142973697, 0.0017160189878541138, 0.0015783099018111927, 0.0013972851921271107, 0.0012204548883208055, 0.0010629362120501689, 0.0009156168981699833, 0.0008051829472417867, 0.0006741096261198108, 0.0006276569927526478, 0.0005091873110250274, 0.0004054168242730922, 0.00022491966639971839, 0.00015989196001207058, 0.0001614195500243929, 0.0001047646605649542, 5.981495557391496e-05, 3.378410896125556e-05, 1.0957733404733249e-05, 0.0, 8.661432943724324e-07, 1.3557461838699346e-05, 6.997447026938362e-05, 0.00010244820269700431, 0.00017081741631646462, 0.00022805939237051373, 0.00030018994150289027, 0.00038946415287143774, 0.0004905400651243393, 0.0006430028945032865, 0.0007686427110941248, 0.0009109367738035902, 0.0010941448057359777, 0.0012659814535128705, 0.0014455174985438732, 0.0016533521682530045, 0.0018777238563247938, 0.0021235113761817973, 0.0023803203132153543, 0.0026760756566977166, 0.0029639490855861675, 0.003270135398361451, 0.003685279503581906, 0.004016588662705557, 0.00435420622017914, 0.004733992750090692, 0.00513517080244261, 0.005557501169564378, 0.006000829291463412, 0.006416062161181518, 0.006907411368110188, 0.0074169612678047885, 0.007986864959151083, 0.008529019717578116, 0.009051514772026283, 0.00964308416903351, 0.010254639345152689, 0.010911231568557424, 0.01156127833027994, 0.012219571591885265, 0.012917682971943562, 0.013638539133258671, 0.014434046699575804, 0.015195205113476674, 0.015966147044540975, 0.016783358031038323, 0.01762660268354531, 0.018523066814686077, 0.01941567308727732, 0.020361068723776608, 0.021307199823638066, 0.022283143854362256, 0.02330353874042924, 0.02433710559602612, 0.02535225621768001, 0.02645317676003029, 0.02758191994328273, 0.028800207550466337, 0.029978206116742706, 0.03117655333605742, 0.03242124409355224, 0.03369777977115425, 0.03504060718350125, 0.03637693589014456, 0.03770096815952132, 0.039111655518398986, 0.0405539257401401, 0.04201593745069857, 0.04352415316941845, 0.04515270731595635, 0.04671448813524881, 0.04831429945645472, 0.04989552126519525, 0.051577827606688845, 0.05331894793161137, 0.05506715666179574, 0.05685181362155406, 0.058690247606461174, 0.0605461700347585, 0.06241801441282644, 0.06435275754352626, 0.06632441792090946, 0.06835780245566797, 0.0704010953140719, 0.07246641417653588, 0.07459032675504174, 0.07675265378447599, 0.07893895132033499, 0.08118074189753409, 0.08350254811009625, 0.08581614041017546, 0.08817112558792102, 0.09059689570904916, 0.0930309216819471, 0.09543938519327154, 0.09796800308866199, 0.10053547352033772, 0.10322310111305899, 0.10585931085155594, 0.10854745202283196, 0.11127156929412119, 0.11404008541453206, 0.11686496737795608, 0.1197199186135768, 0.12254570857276663, 0.12549840939134135, 0.1284908559503336, 0.13158471936908328, 0.13465008080451474, 0.13776216461571192, 0.14091555135209408, 0.14411295651269676, 0.14734439676321665, 0.15063055683774998, 0.15391803949064706, 0.15729538434296084, 0.16071327357231643, 0.16416708891697449, 0.16766749153302501, 0.17126034661655093, 0.17483641583294057, 0.17845671444581696, 0.18213319895515795, 0.18583953121569755, 0.18956297416994813, 0.19336049237052752, 0.19719986753289848, 0.20110059848008144, 0.2050208751088223, 0.20897394513656473, 0.2129803477756206, 0.21702819058728132, 0.22114666404346484, 0.22527300794254917, 0.2294956803127474, 0.23369955531629424, 0.23794793185913132, 0.2421762169795752, 0.24651909467556588, 0.2509078186836919, 0.25532657115210466, 0.25978384385566505, 0.2642842583853597, 0.26881710170419554, 0.27334865694477056, 0.2779619499898352, 0.28261025018169894, 0.287332713514512, 0.29204585713066644, 0.29677629622638746, 0.3015652145341016, 0.3063889209068381, 0.31126912077294583, 0.31615854004905325, 0.32109512028959936, 0.32605221303269305, 0.33104371858270065, 0.3360370903677072, 0.3410993982947477, 0.34622906107941886, 0.3513475073261918, 0.3564463144034892, 0.36163416792093817, 0.3668494709715429, 0.37207230465157587, 0.3773440019211281, 0.3826409809675457, 0.3879629645229108, 0.3933096207030587, 0.3987075248640985, 0.40409892522402463, 0.40956424353233983, 0.4149985291869079, 0.4204590088773636, 0.4259053345694627, 0.43141978940817316, 0.4369279864114776, 0.4424865357631254, 0.44806283426866955, 0.45369557438214747, 0.45930082085212914, 0.4648361281609127, 0.47048816295550505, 0.4761516666711973, 0.48189749834610807, 0.4875742406193002, 0.49326067057122824, 0.49896620668697156, 0.5046840590014642, 0.5103667190332797, 0.5161122572682587, 0.5219063314494867, 0.5276597865494446, 0.5334212806691092, 0.53918982903335, 0.5449644515168128, 0.5507025104501969, 0.5564916239717511, 0.562281555117194, 0.5681084318553282, 0.5738934143432068, 0.5795591830382468, 0.5853600524448263, 0.5911529885301319, 0.5969869480610117, 0.6027575357267912, 0.6085248899770376, 0.6142830393169681, 0.6200340872813962, 0.6257159220988402, 0.6314579549351856, 0.637181941442162, 0.6428978863397892, 0.6485994980649311, 0.654315659374174, 0.6599832435279123, 0.6656094185958097, 0.6712505678120905, 0.6768738551728423, 0.6824956808217965, 0.6880787731795899, 0.6936180854478305, 0.6991647364372208, 0.7046887441688217, 0.710130482136453, 0.7156141808652706, 0.7210767751163595, 0.7265022194310284, 0.7318987198474984, 0.7372583093737669, 0.7425959543806602, 0.7478826421072771, 0.7531593685252131, 0.7584022135581591, 0.7636424222756291, 0.7688115848559222, 0.7739099085934295, 0.7790145607786437, 0.7840810690087067, 0.789098926388764, 0.7940882402997588, 0.7990072444298525, 0.8039177626076788, 0.8087842776817574, 0.813618514515192, 0.8183938388017307, 0.8231265705500737, 0.8278107423590872, 0.8324484773545021, 0.8370267126367539, 0.8415706859652636, 0.8460699841058431, 0.8505134557057286, 0.8549061550373053, 0.8592129816128162, 0.8635060997570413, 0.8678225660044893, 0.8719951075798875, 0.8761159197177244, 0.8801298893950181, 0.8841505235778103, 0.8880639655281763, 0.8919738385859785, 0.8958215742413573, 0.8996265613431839, 0.9033468432698291, 0.9069709846555505, 0.9105714371033782, 0.9141071097074186, 0.9175753005531744, 0.9209809291971751, 0.9242619549834507, 0.9275431114749721, 0.9307544823450127, 0.9339574229553549, 0.9370216650469622, 0.9399632407356278, 0.9429014040226883, 0.9457689066823944, 0.9485901291538776, 0.951312791046093, 0.9539779232183624, 0.9565590402524937, 0.9590702041533691, 0.9615084409578047, 0.963878456762579, 0.9661156002673302, 0.9683497050733941, 0.9705078900119399, 0.9726024900180246, 0.974607488435229, 0.9765398302051435, 0.9783941798774424, 0.980173299307523, 0.9819015311934763, 0.9835265968973406, 0.9850626071887444, 0.9865404695902916, 0.9879424656203277, 0.9892292018729462, 0.9904838895924792, 0.9916894146791867, 0.992783420713911, 0.9938008406905396, 0.9947244218726006, 0.9955905605270015, 0.9963813550307874, 0.997091683490164, 0.9977245340398495, 0.9982628251556267, 0.9987431158876479, 0.9991795185777556, 0.9994993135976222, 0.9997433058943767, 0.9998893926144266, 0.9999844618436936, 1.0, 0.9999414469661474, 0.9998061419143848, 0.9995281829918704, 0.9992485477411617, 0.9989725950870219, 0.9985239694978929, 0.9980019769380885, 0.9974189252489469, 0.996748855297402, 0.99597453605368, 0.99516379087145, 0.9942790711278107, 0.9932962983345511, 0.992268024380735, 0.9911534666163545, 0.9899793418909874, 0.9887318087593719, 0.9873576904180592, 0.9859723527967225, 0.9845862620939518, 0.9830442060167632, 0.9814341879402144, 0.9797272144652358, 0.9779862600526461, 0.9761941667966677, 0.9743151805841886, 0.9723703063050558, 0.9703111068920621, 0.9682423984274662, 0.9660872207039042, 0.963888279252722, 0.9616233713521402, 0.959323015505223, 0.956925743039117, 0.9544649076625286, 0.9519464785290016, 0.9493683164634203, 0.9467091463664571, 0.9440166515309734, 0.9413047451921843, 0.9384910141003493, 0.9356227768865111, 0.9326712458067252, 0.9296996039219212, 0.9266516931324208, 0.923575350881181, 0.9204846364231773, 0.9172972747989573, 0.9140607155768353, 0.9107291401412757, 0.9074023272485926, 0.9040554073662306, 0.9006270249946273, 0.8971531079823024, 0.8936296448976117, 0.8900679560186, 0.8864533482333053, 0.8828076194783443, 0.8791201334212055, 0.8753306609104443, 0.8715705138231409, 0.8677805195311002, 0.8639361356649571, 0.8600533015312585, 0.8561847738739355, 0.8522223699231685, 0.8481693505743292, 0.8441515578342346, 0.84010023409769, 0.8360656837421329, 0.8319449346527361, 0.8277358992257849, 0.8235696511979956, 0.8193745532601743, 0.8151298758116715, 0.8108838030393768, 0.8066262005341043, 0.8023271873524259, 0.7980054848358746, 0.7936573581888607, 0.7892943678103933, 0.7849412381200647, 0.7805365634417224, 0.7761162244254193, 0.7716320521330069, 0.7671891245645768, 0.7627523979944757, 0.7582762343252869, 0.7537879367756388, 0.7493056650515346, 0.7447939328574225, 0.7402200923250569, 0.7356996222230021, 0.7311696038080794, 0.7266215125667933, 0.7220774227595633, 0.717585743365496, 0.7130226283637652, 0.7084588082943407, 0.7039022968738653, 0.6993381422768459, 0.6947095699251223, 0.6901579387353147, 0.6856056772078135, 0.6810442088170824, 0.6764955539242902, 0.6719713051982487, 0.6674257263770411, 0.6628860155999089, 0.6583359110095037, 0.6538127644146187, 0.6493241015989405, 0.644813574471364, 0.6403140037009212, 0.6358505903186129, 0.6313719145713669, 0.6268243240129747, 0.6223854898969619, 0.6179573878206168, 0.6135191588382863, 0.6091188324604152, 0.6048000105236294, 0.6004179636228191, 0.5960549474624924, 0.591691845840626, 0.5873708431999805, 0.5830373947336688, 0.5787599051598848, 0.5745013401029624, 0.5702993390017053, 0.5660765642475057, 0.5618601180918565, 0.5576869280309641, 0.5535371546953548, 0.5494015777791236, 0.5453016040611318, 0.5412114793924493, 0.5371630732539273, 0.5331395713858612, 0.5291465411540794, 0.5251741865251021, 0.5212362452629485, 0.517317599551519, 0.5134274323142459, 0.5095465421108376, 0.5057170058573389, 0.5018841508493037, 0.4981162353212694, 0.4943760614879726, 0.49070599137013876, 0.48701807221112375, 0.4832984340721944, 0.47968276129903775, 0.4760958891051356, 0.4725654646461366, 0.46903478275560334, 0.4655191203169574, 0.46205523202121085, 0.4586230793271273, 0.4552450780638458, 0.4518746454678014, 0.4485675525252519, 0.445261332414617, 0.44199081964067644, 0.43875827626388564, 0.43555832222971946, 0.4323937039632106, 0.4292642648733783, 0.4261698633140675, 0.4230393003277668, 0.4200235822409628, 0.41710472227783024, 0.41414248402525794, 0.4112155159034612, 0.4082403023220894, 0.4053938421259124, 0.40261908742753316, 0.399827948285973, 0.39707011413333015, 0.3943088399183893, 0.39162228455820514, 0.3890086061090759, 0.3863794553692469, 0.38378428439259826, 0.38113466639746574, 0.3786179966776295, 0.376249812908676, 0.3737752532118375, 0.37133671729247303, 0.36885757742069475, 0.36649876691840766, 0.36420417805252325, 0.3619009209405633, 0.3596295898843325, 0.35737273352294807, 0.355166529527032, 0.35304430126827274, 0.35089123055680266, 0.3487708825999714, 0.3465600778486767, 0.34451876722933683, 0.3425014681064383, 0.3405086140763268, 0.33854054078700274, 0.3366808181626793, 0.33475243093955753, 0.33288096472693623, 0.3310084543605405, 0.3291661610048795, 0.327314061280639, 0.32553476892155686, 0.32376158555009016, 0.3220358302459463, 0.3203339426155658, 0.31866305168058434, 0.3170072766760984, 0.315348085271356, 0.3137424527307285, 0.3121581411725792, 0.3105631393676743, 0.3090250047707311, 0.30748133445302034, 0.3059842459330654, 0.30450470522597595, 0.30310407046585325, 0.3016520805991402, 0.3002382975814554, 0.29882564837348574, 0.2974338350011135, 0.2960400886437219, 0.2946906241002546, 0.2933562463367916, 0.29204170486787595, 0.29074363891578925, 0.2894297461296899, 0.28816732640750004, 0.2869770734393515, 0.28573372535019453, 0.2845066113595026, 0.28322883726790665, 0.2820404136462438, 0.28089919099612515, 0.27972689944198453, 0.2785668686486808, 0.2773794151642167, 0.2762474509359291, 0.2751609044599817, 0.2740414652736884, 0.27291282311536647, 0.27181616642308304, 0.2707278195422137, 0.2696842192825281, 0.268606864236299, 0.2675143776238606, 0.26645822859343576, 0.26540882484746237, 0.2643094152231885, 0.26327947468524593, 0.262271572533974, 0.2612440946841622, 0.26022024861435755, 0.25922435947194195, 0.25820411135530236, 0.25712699517599014, 0.25612285518845296, 0.25511881357789157, 0.2541688621582086, 0.2531583801051688, 0.25208738842481365, 0.2510908868796505, 0.2500930523998132, 0.2491331530874952, 0.24812782060007987, 0.24715525386050438, 0.24614732753890864, 0.2451413458449392, 0.2440680718810659, 0.24307284304922414, 0.24207887593530972, 0.24107579642767332, 0.2400694135933253, 0.23905476856243885, 0.23804220414626898, 0.23706013525635658, 0.2360355298785677, 0.2350088681738059, 0.2339307527212654, 0.2329050457898996, 0.23190285258366466, 0.2308617107595337, 0.2298164396714082, 0.22883543875331872, 0.2277725815729321, 0.22670881001659463, 0.22564337683207547, 0.2245756120955224, 0.22342159350823257, 0.22235796817059336, 0.22129307825372996, 0.22021153849168118, 0.21912225771455088, 0.2180229107363413, 0.2169188150663608, 0.21581696494240568, 0.21469661037302293, 0.21356942383630748, 0.21247705585581292, 0.21133090403338103, 0.2101459147753164, 0.20899470004300977, 0.20783638491836973, 0.20665872970578886, 0.20548780661792665, 0.20436305927743492, 0.20316996170482948, 0.20197238405888507, 0.20067687255988984, 0.19948117362194132, 0.198294529602655, 0.1970758030176663, 0.1958486744613944, 0.19466489636645815, 0.19341529601846186, 0.19215852323852536, 0.19089959739278253, 0.1896354633690668, 0.18834150916411407, 0.18706976901928302, 0.18575935042872532, 0.18447816643960055, 0.18318870606201362, 0.1818962882523015, 0.18059087459032663, 0.1793104743113214, 0.17798763005088822, 0.1766602870506965, 0.17524266962568616, 0.1739171863975053, 0.1726388028227238, 0.17128839816336602, 0.16993329453533101, 0.16857364173559675, 0.16720958902647626, 0.16579227213973594, 0.16442606548409486, 0.16305315861619812, 0.16174516796863364, 0.16035146812419254, 0.15890264671646026, 0.15751320087541187, 0.15611926132224155, 0.15477755063074083, 0.1533685463186962, 0.15195922114421953, 0.15054942293974907, 0.14913904178287354, 0.14774025991815481, 0.1463269855949968, 0.14487694573863463, 0.14346823645223347, 0.14205735340535616, 0.14065439693803208, 0.13923881509715888, 0.13778082720931137, 0.13636922982762759, 0.13495496747382008, 0.1335606483020926, 0.1321398865713693, 0.1307364017519127, 0.12931399006018973, 0.12789320777428084, 0.12645457681291047, 0.12503992736840697, 0.12363848046930775, 0.12222450046317121, 0.12081278820604538, 0.11941825073675573, 0.11800982770524437, 0.11656100577493098, 0.11516568219015495, 0.11377180398956635, 0.11244112055230944, 0.11104380352337018, 0.10961842000907726, 0.10823783449452715, 0.10686141972800667, 0.10549923455980233, 0.10413068701865481, 0.10273330954880125, 0.10138022686274124, 0.10003103997034635, 0.09867150004386442, 0.09733329994746256, 0.09607051943718739, 0.09473252510323353, 0.09340381610739715, 0.09201562339519928, 0.0907137513159922, 0.08946354291536902, 0.08816649507558436, 0.08687814182412748, 0.08558629008835782, 0.08431706991647928, 0.08309528786473816, 0.08183775961656177, 0.080591046805631, 0.07927415121761913, 0.07805895329429641, 0.07686691333420041, 0.07566217306961155, 0.07446558359254864, 0.0732922248061154, 0.07211117591096976, 0.07092299024118442, 0.06976432313661991, 0.06861505686771474, 0.06748774398765127, 0.06635660332012694, 0.0652167725120743, 0.0641100751833617, 0.06301345408496493, 0.06200315929595084, 0.06091789688899136, 0.059786471286622705, 0.05873876266533251, 0.057701975463940056, 0.056700816244002104, 0.05568335720560824, 0.05470080550649474, 0.053706220403039594, 0.052725657203090026, 0.05172216184539425, 0.05077374013304605, 0.04983678623647967, 0.04891148552497185, 0.047998008373084114, 0.04709406034964976, 0.04620499561097091, 0.04534520126396092, 0.044478337093324535, 0.04362481443208803, 0.04276990342535799, 0.041944850817106576, 0.04115430797793602, 0.040351479250290305, 0.039562540698007485, 0.03879965065686259, 0.03803666947829124, 0.03720469068061281, 0.036480731875614354, 0.03576611363034969, 0.035034419801974075, 0.03434344628498588, 0.03371563893690443, 0.033036920188437846, 0.03235928486278295, 0.03170877497134751, 0.031070875285142383, 0.03046525518669175, 0.029850267880992806, 0.029227065872553262, 0.028642399485382813, 0.028070039458346834, 0.027549231172676436, 0.0269966110867077, 0.026465899864229384, 0.025941133222633056, 0.02543070054628016, 0.024939162638622784, 0.024455784975611464, 0.024008133505761888, 0.02354900473728256, 0.023104204636930057, 0.022629190001911628, 0.02221737437597175, 0.02184565022104279, 0.02145152113573048, 0.02106978866472744, 0.020665918751878294, 0.020312661272614444, 0.019956997661642505, 0.01962508083246949, 0.0193024943598675, 0.019031051229067248, 0.018722280541127987, 0.018447596873432327, 0.018159829461683798, 0.01788480908894811, 0.017629474684112186, 0.017377815849829722, 0.01710387316615554, 0.01688022969469217, 0.016665971666873843, 0.016532133781714597, 0.01632754813503701, 0.016168068433988, 0.0159853219237014, 0.015816421755637747, 0.015591989387743962, 0.01545726364505214, 0.015377061501867191, 0.01525238911843484, 0.015138321422993673, 0.015073698917922988, 0.014974810715441185, 0.014936743220686138, 0.014854691582559035, 0.014786103721607062, 0.014742385429293728, 0.014696735456947486, 0.014658089598273976, 0.014636200848477545, 0.014624689260278701, 0.01467945264118242, 0.014680228404133175, 0.014634507594282564, 0.014666607710536793, 0.0147063229172863, 0.014836886195731973, 0.014881046601574863, 0.014902977328979819, 0.014974928653038583, 0.015055715950532022, 0.015174496571913856, 0.015268526461906013, 0.01548269031603827, 0.015582106100667688, 0.015696867693240815, 0.015781707959012757, 0.01592942905827285, 0.01614091986349496, 0.016301151799304563, 0.01647356804506783, 0.016721198035367788, 0.01690796811174967, 0.017015615093456563, 0.017241249934823347, 0.01747396803903771, 0.01775797527811955, 0.01799957973184019, 0.01833194272065323, 0.01858287365222798, 0.01884784120804143, 0.019091764130492173, 0.019386948778276878, 0.019714335472530275