0.05826985259208404, 0.05765551508457229, 0.057112016529721754, 0.05649440124402993, 0.05588269902336847, 0.05525056300784705, 0.05465145304537521, 0.054029087110169266, 0.05343731876963647, 0.052845706345137904, 0.052302356870632415, 0.051704857994482885, 0.05110447675423989, 0.05051287730049412, 0.04992303933324539, 0.04926959632688693, 0.04869089230719016, 0.04813240553454135, 0.04754636567313252, 0.04695994376881039, 0.04630532304075291, 0.04572720168935412, 0.0451849883090038, 0.04459504302954433, 0.044004861147826875, 0.04353078471884188, 0.04292607127349389, 0.04231122540805896, 0.04172160461731771, 0.04113643217226172, 0.040572248216542, 0.03999252586721667, 0.039368879181245105, 0.03880327839310826, 0.03823842869307172, 0.03766592169713341, 0.037103916744977136, 0.036494307787852794, 0.035939643544154555, 0.035383135923156055, 0.03486780075975117, 0.03430377029376593, 0.03369072683653487, 0.03313711625912144, 0.03258268414911927, 0.03221197835014337, 0.03163391064859248, 0.030916428192558073, 0.03037756872417408, 0.029838788006600805, 0.029382538336053123, 0.028834442285254887, 0.02832021373174062, 0.027779197157038887, 0.027244519404645142, 0.02669864558546358, 0.02617724894197559, 0.025688162362246334, 0.025170962828118787, 0.024658989001893044, 0.02414906047017936, 0.023646911529741504, 0.023216934088096188, 0.02271441619865093, 0.022219619605019943, 0.02179422108315874, 0.02130518352884414, 0.020851239869266923, 0.02037731893421475, 0.019856186711453196, 0.019407482898354794, 0.018963535211404793, 0.01864036029507838, 0.018190962813942693, 0.017696005750857894, 0.017275033780156195, 0.01686029557192869, 0.016596066521435873, 0.016175071182768855, 0.015663276140415273, 0.015282355525396165, 0.014907396350098145, 0.0146205606953093, 0.014247254596790876, 0.013961190219655572, 0.01359922945811074, 0.013251394306884968, 0.01285727573396824, 0.012542585442769412, 0.012389309978287527, 0.012072202060924521, 0.011772170679599995, 0.011445589667046988, 0.01118185426119916, 0.010918619772436229, 0.010679698888689866, 0.010451509547987481, 0.01028785573379338, 0.01007435426134555, 0.009928561882411832, 0.009735761185227506, 0.00955939984415799, 0.009415929630243406, 0.00926879650162058, 0.009100970099538431, 0.008990401847174225, 0.008893306968932833, 0.008894800321699228, 0.008814384889359206, 0.00875843221863863, 0.008714469107537506, 0.008688877693928714, 0.008740873376701099, 0.008743805652606402, 0.00871694026433546, 0.008768191632674864, 0.008836895845757425, 0.009042155324654884, 0.009131200740373381, 0.009264762154229627, 0.009399985184166555, 0.009559768296239923, 0.009678391682436309, 0.009893940448498124, 0.010197035642895145, 0.010443441897241673, 0.010713887373279926, 0.01094871320387194, 0.01127430698880871, 0.011691125652996862, 0.012049131028980368, 0.012432591172139757, 0.012906612120460797, 0.013332698885391275, 0.01374549225742989, 0.014234952401427645, 0.014750566376591986, 0.015235854981904759, 0.015811486522333395, 0.016509855078517797, 0.017120900662738723, 0.017762563329397317, 0.018386579624508473, 0.019095296832211055, 0.019871451669128334, 0.020631192675396433, 0.021421881793644817, 0.022204017941719688, 0.02306211093740644, 0.02393533104192675, 0.02485436385500941, 0.025803019053606515, 0.026801779162893866, 0.02780911219824362, 0.02884906519592631, 0.029922054910002112, 0.0310284944582318, 0.03221127823791376, 0.03338046896999667, 0.03464335565210788, 0.03587953693501645, 0.037156094297123424, 0.03842454942154759, 0.03978704822630573, 0.041132671185135264, 0.04257614280552885, 0.04405412809436242, 0.045578703612981525, 0.04712648011255729, 0.04872001253608528, 0.05034176290325295, 0.05200228544324416, 0.053752977313420325, 0.05548582995666974, 0.05729551122608513, 0.059109716271684556, 0.060968647115689924, 0.06286074571865485, 0.06480994002134571, 0.06675457716430327, 0.06879708224748403, 0.07088058634664327, 0.07293193591447737, 0.07510818867526778, 0.07740484028401073, 0.07964824232374444, 0.08193644756605058, 0.08417616196343285, 0.08656631501673595, 0.0890645306401752, 0.09152719159723034, 0.09403552074922396, 0.09654440534690684, 0.09915040483399337, 0.10190774208441149, 0.10458808897511895, 0.10731920777327691, 0.11001286470074095, 0.11285539725718782, 0.11579364037535621, 0.11871962208191111, 0.12169402572396831, 0.12468280539082621, 0.1277581891837139, 0.13085162454688976, 0.13402358428294878, 0.13724079040242665, 0.1404838332976746, 0.14379523552297416, 0.14720567868458723, 0.15060115536564445, 0.15404566810142978, 0.1574966050673218, 0.16104418248683497, 0.16467768548261438, 0.16831300825430726, 0.171997211644327, 0.17572160743613843, 0.17950407399451696, 0.18327489341384087, 0.18716042133558647, 0.1910901853324986, 0.1951154999334837, 0.19912821605008474, 0.203194484580041, 0.20730198698551536, 0.21145714502616836, 0.2156483018665197, 0.21989922151911737, 0.22422166928456624, 0.22856120078237815, 0.23294770755025784, 0.2374090409917263, 0.24188451253678686, 0.24637317706873646, 0.2509466366418499, 0.25556405969722096, 0.26019395354215585, 0.2649022225194311, 0.26963183939929786, 0.27442484594051797, 0.27925763536588777, 0.2841160040276572, 0.2890299661846658, 0.2940647593654305, 0.29904563249522964, 0.30406956909064925, 0.309079056580544, 0.3141937160260695, 0.3193684087611632, 0.32455462092588183, 0.32977877899320696, 0.3349581583735752, 0.34026682333282576, 0.34561552901021114, 0.35098624677583595, 0.35638897086157934, 0.3618914693949549, 0.36734891639546285, 0.37274788753628274, 0.3782861871557798, 0.38385234900560894, 0.38942920579496254, 0.395052636850361, 0.40080134334925355, 0.4064642586980839, 0.4121582637889505, 0.41778300715299005, 0.423548099818348, 0.42938330264664204, 0.43518589008754066, 0.44104071119408444, 0.4468866662305268, 0.4527563621965205, 0.4585891902477128, 0.46451051445101615, 0.4705593562710853, 0.4765002128212125, 0.4824630488507901, 0.4883103156150539, 0.49432958065067145, 0.5003755993149467, 0.5064119152642678, 0.512458218258143, 0.5184798969719909, 0.5245485461716042, 0.5306402367899942, 0.5367183283388167, 0.5428023372868073, 0.5489339629471766, 0.5550220314367716, 0.5611838876606978, 0.5672737328535358, 0.5733707111987053, 0.5792889399101822, 0.5854181968248716, 0.5916014435715673, 0.5977060808911312, 0.6038055696016821, 0.6098990655376818, 0.6159856810246965, 0.6220588244645989, 0.6281295793070355, 0.6341902528765809, 0.6402596950500788, 0.6462947387578961, 0.6523376217024109, 0.6583449659879704, 0.6643389979140897, 0.6702701877047911, 0.6762395628696118, 0.6822228292346679, 0.6881467747277549, 0.694050621910089, 0.6998113072598626, 0.7056865474773095, 0.7115310607791089, 0.7173445766623221, 0.7231267101677851, 0.7289562794544444, 0.7346640662888871, 0.7403290315108008, 0.7459799179474685, 0.7515986220869894, 0.7571867485320563, 0.7627370474114914, 0.7682374813372391, 0.7737169197314612, 0.7791573779011619, 0.7845152545041597, 0.7898797697443819, 0.7951570708789085, 0.8004367128803845, 0.8056676237737972, 0.8108379470732204, 0.8159711717621801, 0.8210673932769548, 0.8260958617596252, 0.8310726264997743, 0.835957168799902, 0.8408329094286272, 0.8457030126454659, 0.8504584377686095, 0.8551587867493223, 0.859788750746985, 0.8643773051139227, 0.8687932797919471, 0.8732765831923347, 0.8776922321863925, 0.882125102042801, 0.8863943029887582, 0.890600015435756, 0.8947411694072901, 0.898816705897739, 0.9027377756761958, 0.9066900536528945, 0.9105800201389436, 0.9143832890382776, 0.9181128931901825, 0.9217824779347639, 0.9253613722891343, 0.9288685651686468, 0.9322973020257213, 0.9356501930044926, 0.9388896516978842, 0.9420932111977498, 0.9452448942005492, 0.9482840179100186, 0.9512435952224839, 0.9540294283974825, 0.9568395520326028, 0.9596392041583144, 0.9622658310134562, 0.9648098531023279, 0.9672875704080516, 0.9696621721845781, 0.9719106173508677, 0.9741224817252483, 0.9762467979790614, 0.9782039151281221, 0.9801621227486873, 0.9820216221867624, 0.9837947482675808, 0.9854750168302271, 0.9870597913111329, 0.9885552294831278, 0.9900571975342001, 0.9913549599747974, 0.9925657713987113, 0.9935840318317134, 0.9946318564683809, 0.9956837904322264, 0.996529286025664, 0.9972857832451382, 0.9978280385577425, 0.998420507132184, 0.9989918068621597, 0.9993799065752451, 0.9996757621918865, 0.9998650646511316, 0.9999778110279661, 1.0, 0.9999256665034121, 0.9997582340883254, 0.9995402571711426, 0.9991814846097777, 0.9986076478918612, 0.9980835458431575, 0.9974616644681, 0.9968278983646756, 0.9960024215243793, 0.995137500804353, 0.9941247963898509, 0.9930247129529152, 0.991766189838454, 0.9904996376478858, 0.9891355821521687, 0.9876866439841545, 0.9861467031487093, 0.9844682396745711, 0.9827542729082261, 0.9809598270982293, 0.9790618383450466, 0.9770746907043323, 0.9750219035427425, 0.9728561371851678, 0.9706503339428882, 0.9683087663629943, 0.9658856792114578, 0.9632879119023057, 0.9607145871926088, 0.9581547354777894, 0.9553987943117139, 0.9525651889418636, 0.9496061336002024, 0.9466244500375282, 0.9435948529316923, 0.9404520381238076, 0.9372338048818154, 0.9338304063457178, 0.9304774882765604, 0.9271811709912513, 0.923654079141903, 0.9200586297167784, 0.916332996927247, 0.9126102460410713, 0.9087833364010175, 0.9049257433469334, 0.9009984740680796, 0.8970199961398548, 0.8929556135656215, 0.8887815179064557, 0.884595325895161, 0.880344694645766, 0.8760255692870911, 0.871651559248581, 0.8673307833785227, 0.8628238636673387, 0.8582662762137702, 0.853661411708125, 0.849003892832786, 0.8441590092492924, 0.8394226545492836, 0.8346315522804189, 0.829878361898128, 0.8249722973917584, 0.8200195802327468, 0.8150273131084157, 0.8099932598747891, 0.8048251198078177, 0.7997228380462996, 0.7946450758171526, 0.7894492742327672, 0.7842177349042717, 0.77902823492014, 0.77371947121248, 0.7683548765826506, 0.7629953950708227, 0.7575658474402696, 0.7521576801002882, 0.746721796567994, 0.7412767138224666, 0.7357878082919294, 0.7302200337560087, 0.7246952054885634, 0.7191477026209923, 0.7135793552031382, 0.7079919427123144, 0.7024466778299968, 0.6968187727085181, 0.6911802180879238, 0.6855038302117713, 0.6798510041195789, 0.6741837717865894, 0.6685156184255174, 0.6628412748318409, 0.6572386800285142, 0.6515466686771159, 0.6457438174474177, 0.6400718465773084, 0.6343976494051584, 0.6287287267797895, 0.6230548050253752, 0.6174097868751905, 0.6117410795680837, 0.6060803956467326, 0.6004177269766968, 0.5947784728024497, 0.5891845185701783, 0.5835649636270691, 0.5779613501160117, 0.5723690663622267, 0.5668012230255914, 0.5612663576486029, 0.5557354836843185, 0.5502264753748212, 0.544635547032853, 0.5391865645084764, 0.5337537961145065, 0.5283451410989678, 0.5229590244356745, 0.5176821198817476, 0.5123353570494503, 0.5070547388633877, 0.5017687653383767, 0.4965184187067057, 0.4912362510050766, 0.48606738173210073, 0.4808980460184687, 0.47580170536269223, 0.47073931344920095, 0.4656980893190869, 0.4607094565153987, 0.45580039627545, 0.4508818614839382, 0.44600531680740846, 0.44118857167920017, 0.4363962851289113, 0.4316210068352554, 0.42692358581639134, 0.42227114651593195, 0.4176305430997597, 0.413074857901938, 0.4085391826469623, 0.40407874020658535, 0.39966433883969577, 0.3953084056041877, 0.3909878650790701, 0.3868105227436319, 0.3825784050604319, 0.3784027689873552, 0.37424955143166433, 0.37019099796592475, 0.3662095866800676, 0.36225745546292415, 0.35836171584784354, 0.35455081965532564, 0.3507646825567387, 0.3470227928141187, 0.34335520136642483, 0.33974513190802275, 0.33609922971090583, 0.33261636923108867, 0.32916065518178284, 0.32578717286179665, 0.3224665633010514, 0.31926487371310425, 0.3160443757247931, 0.312809162498309, 0.30971590972653346, 0.3066775951876992, 0.30382514199739263, 0.30088204293821685, 0.29784704870300305, 0.29505074414883853, 0.2923082975558027, 0.28970819961112854, 0.2870643184773352, 0.28443280841010654, 0.2819157287888507, 0.27945581129479424, 0.2770162929788922, 0.274675477329956, 0.2724237696930348, 0.2701891077648988, 0.26801181820474745, 0.26590585161884817, 0.26384085089640125, 0.2618559490658136, 0.25990254894967296, 0.2580070191311274, 0.25615457696849736, 0.2543747263502384, 0.2526614479932088, 0.25099016956690007, 0.2493737984713737, 0.24783440274181923, 0.2463232107951832, 0.24483810581105644, 0.24343854426634767, 0.24209028088059734, 0.24088344501543374, 0.23962478740431936, 0.23836997484620215, 0.23722614408325451, 0.23613180902531555, 0.23498145448895744, 0.23399721584378014, 0.23304030086632718, 0.23214096864464506, 0.2312825151885392, 0.2304961598766647, 0.2297156156378846, 0.22901158732362728, 0.2283113410065785, 0.22765456538921872, 0.22697529841653227, 0.22641124363420642, 0.22599216935266303, 0.22548890497276414, 0.2250283571633408, 0.2246177253822049, 0.22423769569276555, 0.22388012385455408, 0.22357992252501518, 0.2233158176454649, 0.22311513383020362, 0.22291666493193896, 0.22269629871446348, 0.2225733207673827, 0.22247961464296837, 0.22241171344828373, 0.22237498307667916, 0.2223795583980002, 0.22239465186255594, 0.22243631715811815, 0.22248390245488675, 0.2225787397488085, 0.22272770919693294, 0.2228638877444006, 0.2230234258113567, 0.22314021673891218, 0.22335183669648828, 0.22359730741746475, 0.22384009183126757, 0.2240998323824604, 0.22433057239124882, 0.22462801141036692, 0.2249916846244219, 0.2253068138091631, 0.22563663056211078, 0.22594625098220744, 0.22630705736772339, 0.22660432874637976, 0.2269940497003068, 0.2273884982042487, 0.22787540733570538, 0.22826790571947667, 0.2286270921423228, 0.22904228074453892, 0.22946222408557698, 0.2299429261099962, 0.23036326638944699, 0.23082354023072424, 0.23125032362022915, 0.23168270546443198, 0.23208253130954734, 0.23252683863842802, 0.2329822244418978, 0.2334237674752929, 0.23386405796826829, 0.23425973378732565, 0.23470029233965084, 0.23504404227934633, 0.23548326835632294, 0.23591032768066647, 0.23640194740761936, 0.23679566411804176, 0.23715648365214487, 0.23753797958556022, 0.23786972830707673, 0.23823563511490414, 0.23858837651314813, 0.23895614907666105, 0.23927854735220813, 0.23965682118489023, 0.2399459375173888, 0.2402257939205675, 0.2403933901676215, 0.24066458099943247, 0.2410425085591278, 0.24126214683061226, 0.24147080310217325, 0.2416362138319007, 0.2418236134526803, 0.2420008907546188, 0.24215539611675233, 0.24229326530516535, 0.24244508413660815, 0.2425440736842161, 0.24251895959968825, 0.2425979063807179, 0.24265299881913086, 0.2427864896240311, 0.24278179399106228, 0.2426860410825218, 0.24265515580783173, 0.24260145189617785, 0.24256746702345997, 0.24246289517950673, 0.2423408329187138, 0.24219492816092622, 0.24202823516162272, 0.24180081518196456, 0.24159673482251942, 0.24134055684177516, 0.2410926352974677, 0.24081958965023945, 0.240513254178435, 0.2401919924908076, 0.23990833182342716, 0.23953007543406923, 0.23913118446597606, 0.23866325514824915, 0.23822846077916662, 0.23772436581774908, 0.23724757895693582, 0.2367447373861145, 0.23625607323184566, 0.23569779077400949, 0.23514274802372578, 0.23453685343100553, 0.23391036833225465, 0.2332490467036539, 0.2325829489606148, 0.2318698122651491, 0.23116395879473692, 0.23043537269329614, 0.22971838820996593, 0.228941064549882, 0.2281807378604559, 0.22735915286421557, 0.2265199213285106, 0.225572207779858, 0.22470860352155023, 0.22394646841102384, 0.22302149736885235, 0.22208172165806608, 0.22106444752091592, 0.22010188635734065, 0.2191144790938958, 0.21811464101235128, 0.21709604983031167, 0.21603930775792943, 0.21498700374781035, 0.2138764689394328, 0.21279261292829577, 0.21168911518609398, 0.2106348255450869, 0.20948601574725853, 0.20827002801001074, 0.20710147675304275, 0.20591693286141913, 0.20468307706358962, 0.20347282263272903, 0.20224658969396347, 0.20100524114170612, 0.19974958512492444, 0.1986078367540958, 0.19730968546360297, 0.1959357241604626, 0.19463614244167152, 0.19332692094494255, 0.19201126541388558, 0.19068353576572658, 0.18930781984047296, 0.18796881343091584, 0.18662001095897526, 0.18538108538457093, 0.18399976185481512, 0.18257205410176258, 0.18119400176468803, 0.17981178492592756, 0.17845678149621716, 0.17706299590299043, 0.17564489821732582, 0.1742507323809894, 0.1728538191003642, 0.17142334949411017, 0.17002594224329737, 0.1686308041071711, 0.16722654099864637, 0.16582048535353708, 0.16434523164104164, 0.16294588739768315, 0.16152845390442933, 0.1601241299539801, 0.15871717469588917, 0.15740493657594032, 0.15598360923177587, 0.15450282621886893, 0.15310116999692946, 0.15170169799927094, 0.15029089864807355, 0.1488995000520087, 0.14749150948058803, 0.14610975074685412, 0.14473139979586, 0.1433685286974829, 0.14199773385470918, 0.1407293506923649, 0.13935910526579667, 0.1380013502864094, 0.13653963100215236, 0.13522062587450967, 0.13394363642778234, 0.13263116419150753, 0.1313274853550668, 0.13004997304039861, 0.1287628525343916, 0.12746107565112552, 0.12619904280309913, 0.12494680732113322, 0.12369061259634843, 0.12246095370286052, 0.12135473631400037, 0.12013150004381222, 0.11892564106378686, 0.11767149384998578, 0.11650714679011873, 0.11530705303620231, 0.1141738316645673, 0.1130507690091258, 0.11192997611123481, 0.11083007548597788, 0.10969903771660289, 0.10862773115050993, 0.1075663892858125, 0.10655543408847577, 0.10551122943244484, 0.10450959589446503, 0.10349052076571674, 0.10248768867231649, 0.10147554821094848, 0.1005082514774423, 0.09964057701751361, 0.09869200335009777, 0.09776315510060787, 0.09682514847290634, 0.0959377181375926, 0.09504144504948045, 0.09419038180946093, 0.09335424998540214, 0.09256429309869378, 0.09175433645340733, 0.09097261822960263, 0.0901948510509404, 0.08943425694508471, 0.08864810151082748, 0.0879265039967984, 0.08721902274018899, 0.08652581826369862, 0.08584702518415298, 0.08513177125946939, 0.08448855389163235, 0.08383732159629675, 0.0832206872790082, 0.08261558728544433, 0.08204515715935053, 0.08146161202469253, 0.08095438470146016, 0.08039105168374239, 0.07984534217037385, 0.07926294942571445, 0.07875784675483233, 0.07824896941896847, 0.07777248063920943, 0.077308279158891, 0.0769640979448225, 0.07651113128175686, 0.07604269186101682, 0.07563017659452456, 0.07526657981159707, 0.07487916883572748, 0.07450770593691808, 0.07408920052691441, 0.07375553176206322, 0.07338995447684088, 0.07308278367696713, 0.07278372828030347, 0.07257802962038679, 0.07228521249015936, 0.07197475690529612, 0.07171233322779592, 0.07146055577425883, 0.07125882053286853, 0.07102255137009796, 0.07079555112818739, 0.07058326708326404, 0.07038181355534014, 0.07020770650367196, 0.07002435984348217, 0.06979763207750882, 0.06964141965552138, 0.06949158379504201, 0.06930277277910372, 0.06917129323054085, 0.06900098817548173, 0.06888246213667053, 0.06876567151287404, 0.06868508507968062, 0.06856881422549581, 0.0684913393167673, 0.06838033509789851, 0.06827590756843685, 0.06815500606175678, 0.068065427082302, 0.06803380986315508, 0.06794552909560693, 0.0678640155707406, 0.06768098490009489, 0.06762469005021612, 0.0675729412331923, 0.06751401564936825, 0.06745485892697167, 0.06745225114174415, 0.06738581381429933, 0.06732256404919054, 0.0672620316963432, 0.06720376467141748, 0.06713883105560497, 0.06708488082395066, 0.06705978643015685, 0.06700300026603591, 0.06694770300779393, 0.06683104777568993, 0.06678503556741296, 0.06687146278321048, 0.06680129563100573, 0.06673533312331137, 0.06656201708089562, 0.06651524917246084, 0.06644368576038318, 0.06638957370505885, 0.0663295246827414, 0.06633453801445763, 0.06625419067054525, 0.06611851216290718, 0.06604144088921543, 0.06595888255126085, 0.06593882732544896, 0.06583672138472386, 0.06571310055509903, 0.06560953904753863, 0.06550205995576053, 0.06544132390318505, 0.06531862450085613, 0.065165656050768, 0.06504198721580291, 0.06491353545861733, 0.06470919581174443, 0.06457927245419363, 0.0644539525652019, 0.06430347671079648, 0.06414489825666571, 0.06407749849346941, 0.0638906033447096, 0.06372703652356236, 0.06353187986651232, 0.06333464778624726, 0.0629674710902328, 0.06278502821561625, 0.06267409017997498, 0.06245480797472562, 0.0622284016347567, 0.0619155311137235, 0.0616848055562311, 0.061530218760634206, 0.0612656799872423, 0.06099556307769784, 0.060719637061783224, 0.06043769853389671, 0.06012974311212254, 0.05983777610144931, 0.05953821890507727, 0.05923678305677356, 0.058921468639006686, 0.05866699620245082, 0.05832881827138674, 0.05798732761537111, 0.057554188082737934, 0.057215647548353135, 0.05688164343125108, 0.05652243597472157, 0.05615511423326422, 0.05575721842072743, 0.05537711807357595, 0.05495703831752128, 0.05456357911845335, 0.05416021492662962, 0.05377297778905623, 0.053348147687778485, 0.05298144920311294, 0.05253454442778621, 0.052084643349549375, 0.05154641360023307, 0.05110023283060841, 0.05066235603207154, 0.05019711874461301, 0.04972504714242133, 0.04925772548330498, 0.04877130031462869, 0.048310548187830524, 0.047809337381365336, 0.047304631222516935, 0.046864276575730744, 0.04634362927470399, 0.04573520624074918, 0.04522512976279827, 0.044709075938262705, 0.04423549300912741, 0.04370228033095715, 0.043152493604287814, 0.042616128319429084, 0.04207635886845326, 0.04156724510666464, 0.04101660369225845, 0.04037693206142936, 0.039834786427113196, 0.03928623073962625, 0.038712082400650764, 0.03815509504631683, 0.03761503000956683, 0.03704437130276272, 0.03647052357914026, 0.03592785047856131, 0.03534442962548464, 0.03476644861711719, 0.03418189918856907, 0.03359753418615003, 0.03295956251063883, 0.03238246042378486, 0.03183380491745672, 0.031247853374707677, 0.03066191822341134, 0.030036529087486184, 0.02945618645918424, 0.028902501697038837, 0.0283157439017738, 0.027729863879172773, 0.027145053844933584, 0.02656150111305372, 0.026098347579801187, 0.02550281487585438, 0.02491575586119776, 0.024214598124130002, 0.023657657652734823, 0.02312867267849326, 0.022567928199671343, 0.022009394935230023, 0.021396640980862854, 0.020850334818443762, 0.02036317645143705, 0.019809347913919997, 0.019259788383329826, 0.018708902013852242, 0.018168813125673186, 0.017627245449759726, 0.017096384838902544, 0.016569673373412315, 0.016135100810375544, 0.015606141433731903, 0.015066977356136118, 0.014559234294378087, 0.01405901528297226, 0.013523617923149076, 0.013043214226340534, 0.01259292556711079, 0.012118796650664145, 0.011651212639929562, 0.011156211249589059, 0.010706108094155255, 0.010280591993321207, 0.009837843330281709, 0.009401623831557224, 0.009006055463929219, 0.008578996888408531, 0.008214586558190577, 0.0077982465827404635, 0.0073141972180360846, 0.006930559489919113, 0.006553109709944508, 0.006227432618367272, 0.00585741332738685, 0.005533697173652866, 0.005177842137270385, 0.004833276019634971, 0.004488285877794721, 0.004166639837972926, 0.0039821268605747355, 0.0036635905057265665, 0.003361656641055839, 0.0030185835591337363, 0.0027538841117783286, 0.002579067981071524, 0.0023252655427197042, 0.0020860819098794552, 0.0018125966786038746, 0.0016065460146564212, 0.0014444320088685622, 0.0012539158034853364, 0.0010751604067274691, 0.0009815337096699323, 0.0008162287475133054, 0.000697324699636346, 0.0005578626635029733, 0.00043409133742853076, 0.00031960107882838195, 0.0002258125445090931, 0.0002757967735057642, 0.0001921263941218899, 0.00012857513680986432, 1.872083368952634e-05, 0.0, 3.1277681157462424e-05, 3.4012801263384614e-05, 5.157213023750461e-05, 0.0001600172597102561, 0.00019640877557388243, 0.00020561753406497565, 0.00028321554998564765, 0.0003749538583471912, 0.0005118136475297188, 0.0006274294100889063, 0.0008095644477182263, 0.0009495396232740582, 0.0011074450971277157, 0.0013507083478910226, 0.0015343361235176287, 0.0017213658723167192, 0.0019471137209338815, 0.002190800365987118, 0.0025454697721591043, 0.002812037209566093, 0.00311494427493086, 0.003423145473840093, 0.0037526115862536883, 0.004096925664428496, 0.004467517467790703, 0.004817540089406513, 0.0052309697579094525, 0.00566065930555044, 0.006109581331385266, 0.006571880556414061, 0.007099246157232765, 0.007589475211199567, 0.008099709675606867, 0.008697754124322745, 0.00923894756560342, 0.009746966647302107, 0.010341703109849084, 0.01095570998962163, 0.01165705462470527, 0.012301307424577891, 0.013000151246519551, 0.013686948993851328, 0.014398242068400176, 0.015068408105057466, 0.01583559020066911, 0.016636617569053047, 0.017441679834315823, 0.018267829906443902, 0.019180404360396648, 0.020041084388874208, 0.020944117740084135, 0.021853069845410477, 0.022787811638647744, 0.023733883329608105, 0.024721174825622225, 0.02574977468103779, 0.026783559742012585, 0.02784267781832972, 0.02884210579340886, 0.029962520703142745, 0.03124508991536586, 0.032389423395236254, 0.03356368925045539, 0.034688091119346794, 0.03593087303274923, 0.03723759510842989, 0.03852434309396525, 0.03983840343999054, 0.041123194457225926, 0.04249926684363254, 0.0439167461103681, 0.045340092663786996, 0.04678996307793559, 0.048312064139692044, 0.049810405496127544, 0.05137009497017952, 0.05292486616135753, 0.05451158096650288, 0.05610737856796582, 0.0577602973791263, 0.05944344981111606, 0.061156972135282484, 0.06290101936288767, 0.06469558933766985, 0.06649870800654449, 0.06829436630730848, 0.07016693256084669, 0.07206959224773586, 0.07406791066932031, 0.07602376700981163, 0.07803724455641828, 0.08006000999582273, 0.08211875887812112, 0.0841820989264817, 0.08631610773523046, 0.08840735091284768, 0.09061862716203663, 0.09285969744884548, 0.09521068803150602, 0.09750371288514498, 0.09978792894816524, 0.10215969769007506, 0.10456545172348015, 0.10707357877240585, 0.10953991828747812, 0.11195741778810585, 0.11451258106767949, 0.11710142027809299, 0.11977834235671218, 0.12242945610956783, 0.1250339262452805, 0.12777245834047346, 0.1305446052681309, 0.13339075063010686, 0.13622723133281617, 0.1391496777545666, 0.14205591017689043, 0.14500306030867244, 0.14795976141834155, 0.15099208717036838, 0.15404321993315023, 0.15715544846593055, 0.16030544771614766, 0.16349348977049766, 0.1667198187705009, 0.16994783218316772, 0.1732560201286026, 0.17660101066410047, 0.17996625450161743, 0.1833882761704399, 0.18684731429043464, 0.19034379239333743, 0.19387807278862887, 0.1974561265150319, 0.20106616311449155, 0.20475191044669222, 0.20843519223997214, 0.21215963802877033, 0.21587969076676636, 0.21969148458871618, 0.22354120497308355, 0.2274289981479945, 0.2313549696574557, 0.23540699060381523, 0.2393983878260996, 0.24331403718815742, 0.24740616432535223, 0.25153342110908977, 0.2557527917667398, 0.25994408611181086, 0.26419432002560755, 0.2684610199147516, 0.27276731972695445, 0.27705326956345117, 0.28144489747893103, 0.28588842525170816, 0.2903477734747865, 0.29484304826673, 0.29933442523298237, 0.3039060278072389, 0.3086013802006766, 0.3132278301380639, 0.3178925767099497, 0.32256936254537266, 0.32731166614380885, 0.3320405003902327, 0.3368577955197366, 0.341740142265764, 0.3466151955477617, 0.35152302690413867, 0.3564150449365557, 0.3613931863217594, 0.3664680261313052, 0.37149493245884724, 0.37655414868622766, 0.3816675907004227, 0.3867863511910192, 0.3918543777340065, 0.39704545253920737, 0.40226159533218553, 0.40750264704419686, 0.4127683903636781, 0.4180528892112455, 0.4233678676244241, 0.42870625851817956, 0.43403937225699246, 0.43942702474470446, 0.4448862491180744, 0.4503083678772778, 0.45575333892205194, 0.4611863731110418, 0.4666789395101605, 0.4720994007185508, 0.4776399457401644, 0.48319281244906537, 0.4887949325244229, 0.494367996138891, 0.4999724136155341, 0.5055715232921861, 0.511184840638708, 0.5168229263549908, 0.5224608911602185, 0.5280659904150443, 0.5337336490159295, 0.5394093251567506, 0.5451830573263229, 0.5508614646780194, 0.5564462319669784, 0.5621587306273925, 0.5678736094061966, 0.5736243212421471, 0.5793379931977627, 0.5850003465242849, 0.590724831754986, 0.5964468131449323, 0.6022336904697586, 0.6079402747897371, 0.6135726112231258, 0.6192859938714267, 0.6249920588336012, 0.6307892698076762, 0.636466103381028, 0.6420908638199662, 0.647764321227191, 0.6534279758074908, 0.6590212282513966, 0.6646694373233931, 0.6702614915016645, 0.6758810670010739, 0.6814805689358338, 0.6870878825895935, 0.69264225355915, 0.6982360501038973, 0.7037418894188754, 0.7092291707668518, 0.7146737879816936, 0.7201225085822273, 0.7255471522405055, 0.7309465440069539, 0.7363195122441392, 0.7416365654370808, 0.7469567676065534, 0.7522114762773159, 0.7574720370296122, 0.7626973047525689, 0.7678752502142465, 0.7730292126889219, 0.7781053431661628, 0.7831872124929293, 0.7882271325708491, 0.7931905955750919, 0.7981492790561635, 0.8031048110062257, 0.8079663981772215, 0.8127837443055673, 0.8176125409383938, 0.8223313516409071, 0.8269410202492432, 0.8315785991221163, 0.8361656226327496, 0.8407182207134188, 0.8451993664515217, 0.849648071386666, 0.8540211104492984, 0.8583408675446637, 0.8626004616220566, 0.8668107483272731, 0.8708958881275863, 0.8749993348291855, 0.879039627310693, 0.8829850997196004, 0.886901443810736, 0.8907455493733079, 0.8945290739234816, 0.898244868338114, 0.9018669826250466, 0.9054491109424191, 0.908986043553663, 0.912423185817237, 0.9157902359596781, 0.9190666669856657, 0.9222939218262347, 0.9254279993818851, 0.9285104819879564, 0.9315173221018251, 0.9344537231437212, 0.9373071441362634, 0.9400412754098539, 0.9427458680688601, 0.9453700781017288, 0.9479306309567345, 0.9503910750894321, 0.9527654892236638, 0.9550653977414807, 0.957283572225039, 0.9594308537948711, 0.9614826567453848, 0.9634660438349614, 0.9653503145897586, 0.9671516455604696, 0.9688920288471655, 0.9705226486677366, 0.9720725329812666, 0.9735349105935888, 0.9749124385721892, 0.9761846290086077, 0.9773930343922692, 0.9785136534282752, 0.9795461397727644, 0.9804901748931047, 0.981285988585607, 0.9820597966024492, 0.9827636839066566, 0.9833497373137956, 0.9838449893882387, 0.9842409716780299, 0.984555782522927, 0.9847850721097436, 0.9849169030459795, 0.9849580822588565, 0.9848831837034817, 0.9847464884585544, 0.9844782868057084, 0.9841632046498402, 0.983754646107222, 0.983267380850657, 0.9826718597802331, 0.9819938560406838, 0.9812156867423854, 0.9803477760357685, 0.9792969580201989, 0.9782622930793299, 0.977258189522712, 0.9760207211922424, 0.9746982598577112, 0.9732822345120922, 0.9717907043040356, 0.9701343673087873, 0.9684820411168592, 0.9667401676874783, 0.9649068229383321, 0.9629889022160093, 0.9610971931948499, 0.9589916255271066, 0.9568069971403428, 0.9544270757806467, 0.9520987917406419, 0.9496679130904829, 0.9471716853678948, 0.94459108557038, 0.9419952708058651, 0.9392408331433364, 0.9363327900506979, 0.9334342868071903, 0.9304554620506803, 0.9274683541358647, 0.9243235863478249, 0.9210749018586369, 0.9177891210574818, 0.9144300201127757, 0.9110863200407778, 0.9075722463948135, 0.903884950034337, 0.9002535560291878, 0.8965511480604966, 0.8928611864981935, 0.8890103126447938, 0.8850969469173992, 0.8811217038065272, 0.877085270032778, 0.8729459137818878, 0.8687947922654077, 0.8645627094222796, 0.8602930903577913, 0.8560345691323153, 0.8516380123148216, 0.8471885793223365, 0.8425936463458903, 0.8380528713396953, 0.8334425227087453, 0.8287944778837292, 0.8240937064503752, 0.8194213031435369, 0.814610367092601, 0.8096714040241608, 0.8047861128152339, 0.7998550682370573, 0.7949650206874592, 0.7899370173179745, 0.7848250793351693, 0.7797325617966098, 0.7746035423629306, 0.7694762927099136, 0.7642739616740714, 0.7589225734561016, 0.7536762262545244, 0.7483954169856823, 0.7431077950076995, 0.7377612211668984, 0.7323963203440348, 0.7269967272458775, 0.7215741511221624, 0.7162377763212538, 0.7107602659171023, 0.7051797704440944, 0.6996896426509067, 0.6941834130989294, 0.6886654353693773, 0.6831311902177548, 0.6775628555148666, 0.6720100631022837, 0.6664474556075813, 0.6608624806429751, 0.6552868287642257, 0.6497449520339394, 0.6441541633513495, 0.6385629471822447, 0.6329697085948295, 0.6273817138703945, 0.6218110236755651, 0.6162287987702, 0.6106530608854429, 0.605087802152004, 0.5995281718268279, 0.5939588750183428, 0.5884232387509927, 0.5828989931733104, 0.5773478273706398, 0.5718553873751983, 0.56642141019649, 0.5609511455362411, 0.5554997440654866, 0.5500853446252988, 0.5446729528065365, 0.5392356540692641, 0.5338768336548747, 0.528540559596128, 0.5231687555976815, 0.5178892609098166, 0.5126783747407448, 0.5074414909588801, 0.5022338631875799, 0.49703121034073416, 0.49188891120406636, 0.48674397135547526, 0.4816699746777153, 0.47662798084785646, 0.4716279592048353, 0.4666532295152833, 0.4617689653700372, 0.4568619041480717, 0.45199679813170013, 0.4472167599663731, 0.44243207897568615, 0.4376766362647547, 0.4329868617281498, 0.4283429931199605, 0.42377669277724667, 0.4192222296666718, 0.41463767161518245, 0.41019194388023883, 0.4057915840735715, 0.40140642430336815, 0.3971036481843198, 0.3929407599672742, 0.3887200880140914, 0.3845531664962444, 0.3803325453069375, 0.37628729558205987, 0.37239799317226246, 0.3684368769796171, 0.36453223600005413, 0.36070112236825796, 0.356907483058533, 0.3531233696383847, 0.34945115511612906, 0.3458339141676017, 0.3422437494139626, 0.3387412864384418, 0.3352537469402328, 0.33186601822678674, 0.3285317196033167, 0.3253054419410056, 0.32207343759724344, 0.31892543872708706, 0.3158073316743366, 0.312749334323317, 0.3096918166877901, 0.3067611135285978, 0.30385559029287396, 0.30104183607690554, 0.29828328468557325, 0.29563138937375183, 0.29297812602859064, 0.29033027793344224, 0.28780210462141814, 0.28532977666500126, 0.28295883725947946, 0.2805930768102573, 0.27829750602143727, 0.2760476999366507, 0.2738567121542647, 0.27162213199095564, 0.26956033447743394, 0.2676692512773398, 0.26569629312734394, 0.26378239927750746, 0.26186446888058756, 0.26007424478694435, 0.25837695954712087, 0.25668808377812075, 0.2550542561513415, 0.2534182172948209, 0.2518998127832149, 0.2504456054155664, 0.2490253247832972, 0.24765550290849503, 0.24633575659545318, 0.24506566660529214, 0.2438192888852674, 0.242650344392099, 0.24152817452205874, 0.24041845453412114, 0.2393930703182868, 0.2384453819147307, 0.2375029102499368, 0.23660556938478564, 0.2357442429680551, 0.23493635293995435, 0.234230659063027, 0.23350005661211654, 0.23281422880699892, 0.23215785485830592, 0.23155992517169446, 0.23091479773442702, 0.23040822967224162, 0.2299354495714086, 0.22958403607913233, 0.22916697850691967, 0.2287735719932071, 0.2284327848690588, 0.22812675328535556, 0.2277582004886036, 0.22753093452216752, 0.22731028898567507, 0.22713824495488388, 0.2269910879381211, 0.22692527454302291, 0.22682006519712158, 0.2268270522306771, 0.22676465484214364, 0.22673244943418028, 0.22661554461421635, 0.22665333350666814, 0.2267840320234583, 0.2268505741805142, 0.22693951844633092, 0.226947733746765, 0.22709090532057552, 0.22732665178224878, 0.22748607187007092, 0.2276626094632303, 0.2278042355783611, 0.22801833134646263, 0.22831440283725152, 0.22854129219875421, 0.22878211196290657, 0.2289336741309775, 0.22921161978049204, 0.22953671462958147, 0.22981833257860834, 0.23010636369623594, 0.2303717318090359, 0.23067390161689136, 0.23105791281149, 0.2313545760891655, 0.23158345103710146, 0.23189988210458998, 0.23221559051020332, 0.23250736638664907, 0.23282281493463242, 0.2331685292643964, 0.23347179917228936, 0.23377234316602125, 0.23408920712397593, 0.2343794566663392, 0.23470259073673194, 0.23497939408975552, 0.23525251959020946, 0.23539052132195948, 0.23566935409320947, 0.2360330406985823, 0.23627084822905586, 0.23649999289560333, 0.23673942097194306, 0.23694613006009718, 0.2370492913161134, 0.2372467245403315, 0.23742701724090176, 0.23759575173266725, 0.2377407515607762, 0.23784588360296358, 0.23795907495038168, 0.23805324888651586, 0.23821042280012, 0.23825577426348257, 0.2382210974012254, 0.23824403273875458, 0.23824671707146794, 0.23826005749731272, 0.23821754028832276, 0.2381585679928411, 0.23807658632471213, 0.237974439443539, 0.23789411036062896, 0.23774478283530176, 0.23755359286271635, 0.2373679617385135, 0.2371604013033215, 0.23685115854445915, 0.23660846128466345, 0.23633248418001, 0.23603556566490222, 0.23571125113568772, 0.23535412320916588, 0.2349764323531427, 0.23462829492475482, 0.23418943711441753, 0.23372699787388454, 0.23328879557409246, 0.23277214517250067, 0.2322308904437766, 0.2316704351230113, 0.2310868895180961, 0.23049113856080097, 0.22985871139580774, 0.22916303332198082, 0.22848806887343165, 0.22778663414831102, 0.22710979624920644, 0.22634924351986313, 0.2255087314698691, 0.22470843314924335, 0.22388114100650264, 0.2230356471628927, 0.2221541758830932, 0.22120174919147637, 0.2202749547473047, 0.2193204333031529, 0.21828780700684414, 0.21728605434766227, 0.21630923598743806, 0.2152438356702307, 0.2141543344197884, 0.21298159543835277, 0.21185243464476014, 0.2107138410739504, 0.2095304862270703, 0.2083232146939759, 0.20715206416809942, 0.2058910843135022, 0.2046252783378226, 0.2033245365458121, 0.20200565214799182, 0.2006119494724875, 0.1992639067424264, 0.19787477777539916, 0.1964872894502641, 0.1950785463796737, 0.19364641193252347, 0.19219757286752087, 0.1907859629612535, 0.18929176083493018, 0.1877825663065, 0.18631233000259667, 0.18476679387240733, 0.1831050118818776, 0.18154964116315728, 0.1799766506774769, 0.17848315720107713, 0.17686516756718668, 0.1752543082465097, 0.173614393402044, 0.17196554278164802, 0.17029354687286355, 0.16862854844064282, 0.16697089236235088, 0.16528471595407654, 0.1635904321433809, 0.1618684321141239, 0.16016114392000205, 0.15847092650189706, 0.15674408812872884, 0.1550113034472381, 0.15318510844191277, 0.15145258623082322, 0.14972164254075299, 0.1479693286416828, 0.1462101219173358, 0.14445345039283117, 0.14268213501041233, 0.14091273985432795, 0.13913396692367652, 0.13735323878975783, 0.13551173204315603, 0.13373656659287816, 0.13202034289426404, 0.13023165040924764, 0.12844519605869809, 0.1266869246856525, 0.12490308770153753, 0.12309879796767693, 0.12132851704979716, 0.11956238314030221, 0.11778674606064765, 0.11603222691741975, 0.11428824567584829, 0.11254336811998802, 0.11080488548038081, 0.10911581218148719, 0.1073863243840732, 0.1055822008772646, 0.10388428245463771, 0.1021922752703293, 0.10050707958364466, 0.09882953586180192, 0.09716042973672338, 0.09550049655881791, 0.09385042557492357, 0.09225051674309759, 0.0906170591323025, 0.08890405006431265, 0.08731046392806174, 0.08572600058976412, 0.08427344107302406, 0.08269470797124821, 0.08110916049557726, 0.07957077920370106, 0.07804925142426135, 0.07645119747515572, 0.07497547791368597, 0.07356266899095985, 0.07210525093760668, 0.07066432365306187, 0.06926287300773185, 0.06785302742023555, 0.06639673387052238, 0.06503261607391153, 0.06368374497583441, 0.062347926472946916, 0.061031762184075654, 0.05981456531338342, 0.058522171884498285, 0.05725216467712556, 0.056004289187953124, 0.0547783327326253, 0.05352030514944114, 0.052344497235594, 0.051187156117782275, 0.05000897258756604, 0.04889457761273053, 0.04791915206145345, 0.04682428766577386, 0.04575451711231142, 0.04461867414812978, 0.04360902440284664, 0.04269445484782646, 0.04171272587170352, 0.0407546047746488, 0.039703643046283835, 0.038806492437322246, 0.03798788842430256, 0.03711604185261909, 0.03626526238558226, 0.03548657129927127, 0.03467158363160123, 0.03378430183709113, 0.03302909193343825, 0.032317193494371385, 0.031594837721745275, 0.030892539469091904, 0.030244391201497398, 0.029578193056857383, 0.028857710298252546, 0.028245305023467792, 0.027650298203225142, 0.027118385098352026, 0.02655350835793125, 0.02604632322968966, 0.025518354883493004, 0.025012960074081263, 0.02451265595840206, 0.024053120658999873, 0.023577004956440557, 0.023162333406790282, 0.02276529522572702, 0.022357597268396468, 0.021999463123423255, 0.021736667834888333, 0.021400734478823544, 0.021085553839347664, 0.020782048615225958, 0.02050774089153161, 0.020178425228014784, 0.019950273941830056, 0.01973579657923983, 0.0195125340670401, 0.019328806729657463, 0.019282524258501885, 0.019108895857605935, 0.0189554407770173, 0.018812743428236085, 0.01869802252665395, 0.018569286490563143, 0.01849212331485358, 0.018429068565956334, 0.01831747790744226, 0.018289523231286523, 0.018291015642095468, 0.01827996959718684, 0.01827994403048614, 0.018304998843441788, 0.018324887670088875, 0.018356197813337995, 0.018398630841540115, 0.01845188013556982, 0.01858927307629659, 0.018653896712696922, 0.018715517001465513, 0.018809349736036776, 0.01891444713519262, 0.018945187195257094, 0.019081642878727743, 0.019273738485762068, 0.019413203533252658, 0.01956041246747969, 0.019681002133542545, 0.019846876970926335, 0.019943838456544488, 0.02012839293969778, 0.020313338581053143, 0.02056426739607657, 0.020743005017520307, 0.020904191876753145, 0.021095670578117415, 0.021290300161418155, 0.021533230414591036, 0.021727902808781153, 0.021958848165167747, 0.022159216362332763, 0.022365280741020375, 0.022516768146186486, 0.02273941997005416, 0.022931056047286073, 0.023157765713465374, 0.02338252709040974, 0.02363088896884315, 0.023848660016442983, 0.024153763254456364, 0.024359227965726322, 0.02456861846930555, 0.02478662314397655, 0.025000305965333328, 0.025113589065621916, 0.025342507304858923, 0.025565765323978196, 0.02589965680937443, 0.026097370358125777, 0.02626799405578589, 0.02647087355624829, 0.026671717367298328, 0.02685870392189463, 0.02705547440975922, 0.02715191927668351, 0.027352527698189185, 0.027543152538267158, 0.027800792375210038, 0.027963276735813572, 0.02811291684088426, 0.0282674760919502, 0.02841661989218151, 0.028531824128613582, 0.028673124097210484, 0.028806840236661867, 0.028933022127415272, 0.029051698202625417, 0.029247849027086905, 0.029340784470776624, 0.029289350314125943, 0.02939397312168225, 0.029486542157603116, 0.02960161205026757, 0.02966739606269029, 0.02972167076964403, 0.02977053806487784, 0.029810704824393748, 0.02995835700362962, 0.029966599638294716, 0.029845327345666004, 0.02986464363536086, 0.029873005504703617, 0.029907533805705214, 0.029890191689500883, 0.029842086616788714, 0.02981129718656566, 0.029770932902288928, 0.029774904254254834, 0.029708859928631502, 0.029608186099210287, 0.029532739501481317, 0.029448700371603503, 0.029423989573733076, 0.029314014954824594, 0.02907733743271947, 0.02897236744091581, 0.028854586405945026, 0.028792526360072825, 0.028642137836923636, 0.02847009173905052, 0.028306356269981695, 0.028134065195798714, 0.02802121449708458, 0.027823285281748402, 0.027583880573062308, 0.027380796551846366, 0.02717006626355763, 0.02696295960670838, 0.026735351798385636, 0.02644115123523596, 0.026206757372057014, 0.02596178329136215, 0.025783159214577793, 0.025508691885427374, 0.025215046089728185, 0.024932085981581628, 0.024642866231350664, 0.02433601991657508, 0.024035629089236298, 0.023733977180616303, 0.02341914919515665, 0.023097984213047488, 0.022688447247818388, 0.022365316095535596, 0.022091064657525035, 0.02174001215472884, 0.021383222160412847, 0.021066194428458536, 0.020692746418478587, 0.020262837168107926, 0.01989071936916036, 0.019512618951266703, 0.019222342489002866, 0.018821460263144484, 0.01836416512240513, 0.017970458291055823, 0.017572977991874614, 0.017180377067776864, 0.016774753011472587, 0.01632667605086807, 0.015920579951415922, 0.015509702403510016, 0.015063349259024432, 0.014648205379671422, 0.014290147407222226, 0.01385730942493638, 0.013423962826763705, 0.012922167493316549, 0.012496526781940406, 0.012106380898577587, 0.01166804610281323, 0.011228996503688029, 0.010746961964220994, 0.01031249558168255, 0.009852904213664939, 0.009416915224961782, 0.008978232409963314