0.04102850709439483, 0.040396953449071564, 0.03978408028514101, 0.03912947072075816, 0.038532425274901694, 0.03793661160142004, 0.037446408819310655, 0.036839249353742, 0.03618637964900582, 0.035598045602031024, 0.03501158486363266, 0.0344554726881155, 0.03386831661293114, 0.033231648243921594, 0.032656288282798304, 0.03208008447463711, 0.03152673391389723, 0.030946361478137285, 0.030414020775394443, 0.029829603809269165, 0.029248756789882376, 0.02879399857095278, 0.02820370658230019, 0.027486990546191917, 0.026931775546371762, 0.026376254948471442, 0.025838949726425264, 0.025281156837788938, 0.024750879814779424, 0.024192581659272232, 0.02363725777561294, 0.023178912590162196, 0.022617302249713336, 0.02202969163328772, 0.02148757442731055, 0.02095008772929756, 0.02052675894595658, 0.019983845167466166, 0.019503330058083756, 0.018973008619514405, 0.01845386592826446, 0.017842792064852085, 0.01735565878589818, 0.016954739170222444, 0.016462266755567945, 0.015977357801353672, 0.015486457872681336, 0.015016983789062584, 0.01465776663879891, 0.014186297909575296, 0.013726199974952167, 0.013260935928661264, 0.0128231627859017, 0.012427747607462559, 0.012002082731926733, 0.011586122777868045, 0.01119250412910598, 0.010793092423439985, 0.010413561631460861, 0.01003140217279769, 0.009658795065453283, 0.009371367574601514, 0.009007759744756752, 0.008647123467147366, 0.008311089563165636, 0.00798680723076184, 0.007747200062000206, 0.007436393223090237, 0.007106852757723792, 0.006830219106873206, 0.006565791793993517, 0.006360521928958235, 0.006114290190427738, 0.005961213688635931, 0.0057341940351641665, 0.005525784376473777, 0.005293397456740835, 0.0051253911436738, 0.005084259154886544, 0.004930918309604206, 0.004798382141957046, 0.004714623990302857, 0.004617859388150917, 0.004497170091574153, 0.004446490811851945, 0.004412816778245633, 0.00439619064483238, 0.004396722579123971, 0.0045113237783450735, 0.004534497963014781, 0.004580912606901538, 0.004623945419141698, 0.004718848173142866, 0.004891990387629061, 0.005021132558778866, 0.0052162745220439505, 0.0053881926609472015, 0.0055861990021977646, 0.005694845921468014, 0.005958489750853024, 0.006355958298325692, 0.0066434678390993596, 0.006957888291018302, 0.007189273466495587, 0.0075710951268877615, 0.008091181850988442, 0.008500320547845514, 0.008938582474978527, 0.009327466938596728, 0.009833782709922417, 0.010372690201633238, 0.010928272504744109, 0.011510539485896872, 0.012240408808512156, 0.012862750738562988, 0.013465497222274282, 0.014165031342970317, 0.014896150657564845, 0.015755861157157554, 0.01653873900969127, 0.017341202532220986, 0.01820173268300452, 0.019098362400807516, 0.019999642731393954, 0.02097229293217044, 0.0220001920910438, 0.02303923644361257, 0.024114556698246272, 0.02517671719803833, 0.02633163271580632, 0.027497329450396082, 0.028724576344487048, 0.029986246738496806, 0.031288432970530765, 0.032620828826699005, 0.0340479085204078, 0.03544803781562854, 0.036889890120037024, 0.03835793360474703, 0.03988571205611761, 0.04144703877346476, 0.043058950277055336, 0.0447125304232772, 0.046363754667429966, 0.04810755864199, 0.04991793503565289, 0.05174004433908815, 0.053605513793507815, 0.05551217811481014, 0.05746602862512768, 0.05945915850072954, 0.06150310697890349, 0.06359209170115512, 0.0656847049115233, 0.0678703103919158, 0.07021225209554015, 0.07247215769615996, 0.07478362700930906, 0.07703653149918435, 0.07946413654948786, 0.0819337695209751, 0.08445172767596201, 0.08701559045909261, 0.08973842009303826, 0.09238171514133553, 0.09494821927622685, 0.09771549595616276, 0.10052858136606257, 0.10347450487333242, 0.1063704581880803, 0.10921448796984444, 0.11222882880333789, 0.11528966590760072, 0.11849185462305206, 0.1216358815807137, 0.12475779862979149, 0.12801858061252677, 0.13132832638158382, 0.13462207012382055, 0.13803915537329914, 0.14159409118593974, 0.1450930557891103, 0.14864493532933398, 0.15226525053156492, 0.15592047643678245, 0.15962638548629715, 0.16338824655366332, 0.1672026912701396, 0.17097796340548407, 0.1749084231057928, 0.17894314204564538, 0.18296030996501486, 0.18702836847748375, 0.19114457637226107, 0.1953143488900696, 0.19952135854709477, 0.20379324651284503, 0.20811437519606482, 0.21245066264621124, 0.2168742646583864, 0.221336988730286, 0.22585560662653129, 0.23042087352229113, 0.23502498318478618, 0.2396845928964329, 0.24434851409564057, 0.24910563839886654, 0.25390637146158906, 0.2588476176761469, 0.26372373377805003, 0.26864127080994954, 0.2736160481341615, 0.2786379579377985, 0.2836042845382855, 0.28873113311494175, 0.2939285719730619, 0.2991299901509802, 0.3043725039290812, 0.309684547458906, 0.3150045860967008, 0.32043419208559804, 0.32582811494286135, 0.33126604370889, 0.3366891975559756, 0.3422186940147699, 0.34768338881424343, 0.35329947595455163, 0.35894570733620035, 0.3646980484763312, 0.37039528317940923, 0.3761191465193064, 0.3818855202824274, 0.3876843148548431, 0.39342063663585514, 0.39929385299402587, 0.40523629072070816, 0.41115335628795485, 0.41709742445802267, 0.42306000134699034, 0.4290570665577001, 0.4350289194437707, 0.44108047238361725, 0.44715220499294056, 0.4532541593764525, 0.45936359033832364, 0.46557333370345466, 0.47171028893561484, 0.47786950811624024, 0.4839736647767705, 0.49018252940535123, 0.496365779202798, 0.5026060143496048, 0.5088560056819251, 0.5151177870366099, 0.5213851360524121, 0.5277388480023313, 0.5340113017964534, 0.5402943752806478, 0.5465185233147736, 0.5528267704263921, 0.5591999722537204, 0.565503758839187, 0.5718113609535008, 0.5780768080319543, 0.5843931231216167, 0.5906879682360078, 0.5969991694029346, 0.6033039640840331, 0.6095595230798886, 0.6158537706516398, 0.6221936876978124, 0.6284561908020674, 0.634708467432485, 0.6409151650011099, 0.6471472003075864, 0.6534153093437826, 0.6596072069887154, 0.6657836132658662, 0.6719325006925276, 0.6780745665435458, 0.6841514758246184, 0.6902563353650064, 0.6963351801325883, 0.7024471128022902, 0.7084631862561792, 0.7144534156377736, 0.720416189722032, 0.7263499332240642, 0.7322557187221816, 0.7381264749513493, 0.7439089030904404, 0.7497182830563327, 0.7554882319111532, 0.7612465256141567, 0.7669309882444552, 0.772517064057889, 0.7781257697380214, 0.7836877875560183, 0.7891343117454305, 0.7946090246151919, 0.80006460540873, 0.805428362886712, 0.8108001154441791, 0.8160511072142964, 0.8212515295023923, 0.8263790175392383, 0.8314766288512061, 0.8364136447822327, 0.8414112571450467, 0.8463445851689685, 0.8513204733257157, 0.8561105111690138, 0.8607494158697336, 0.865430304859535, 0.8700435199888327, 0.8747217445528798, 0.8791807063515208, 0.8834387569113519, 0.8877886974202234, 0.8920648796864964, 0.8963477921893355, 0.9004644610904853, 0.9044028763174606, 0.9083896444590257, 0.9122966947163282, 0.916202076659779, 0.9199385422710664, 0.9236297237304529, 0.9272077245065163, 0.93070851216906, 0.9340313818140865, 0.9373863321706166, 0.9406128223000627, 0.9437994606140332, 0.9468963853150268, 0.9499819487716954, 0.9528891976919376, 0.9557498958784527, 0.958479748617371, 0.9611242756529444, 0.9636405032709594, 0.9661163254741671, 0.96845159833808, 0.9707513691975107, 0.9729563210344984, 0.9750244714401922, 0.9770446040498114, 0.9789905828701337, 0.9808124925422149, 0.982538231211167, 0.9841571762474258, 0.9856913891252369, 0.9870917090890449, 0.9884358657810257, 0.9896804504973249, 0.9908962248780607, 0.9919331980749879, 0.9928017375469287, 0.9936570217038755, 0.9944120270283413, 0.9951166219701884, 0.995665333846036, 0.9961379744448696, 0.9964897990967047, 0.9967453196813385, 0.9968440480640829, 0.9969135722404174, 0.9968694723999374, 0.9967398568403734, 0.9965095685778911, 0.9962835999140275, 0.9958399497071223, 0.9951954843918707, 0.9945777041155468, 0.9938594865001233, 0.9930466691397213, 0.9921287248878649, 0.9912143909534638, 0.9900873643058686, 0.9888687678871891, 0.9874668100952853, 0.9860759181898462, 0.9846217958396859, 0.9830329272556823, 0.9813502681847059, 0.9795507733851234, 0.9776850049464194, 0.9758015185212096, 0.9737398594667261, 0.9715904883770333, 0.9692542439665186, 0.9669426867231479, 0.9645909811165796, 0.9620891712257957, 0.9595003112031328, 0.9568120991109841, 0.9540531394226374, 0.9512506442762617, 0.9483166295876189, 0.9453015591182431, 0.9422034920889524, 0.9390287223946023, 0.9356938938682918, 0.9323722268898577, 0.9289687797307267, 0.9255557528046539, 0.9219845937191485, 0.9182880234347638, 0.914578173548136, 0.9107941833839469, 0.9070107053796137, 0.903073492738887, 0.8991280650886979, 0.8950529318918791, 0.8909170134772523, 0.8866423688478281, 0.8823964104466326, 0.878131550158175, 0.8737547200395286, 0.8693199451204893, 0.8648283402120408, 0.8602810749998941, 0.8556662962017699, 0.8510130693798367, 0.8463072428385718, 0.8415659563877613, 0.8367573247639332, 0.8317732761164294, 0.8268876319797798, 0.8219503036305286, 0.8169506948523219, 0.8119189803717182, 0.8069910191076516, 0.8018522030516443, 0.7966809948010883, 0.7913711372819644, 0.7861516088671306, 0.780878429607488, 0.7755925391824716, 0.7702742658137298, 0.7650511888626779, 0.7596584521746861, 0.7541235500214453, 0.7487087106494207, 0.7432696073653716, 0.7378998130957775, 0.7324067373985944, 0.7269005570654674, 0.7213824500021927, 0.7158536457265086, 0.7101951459459374, 0.7046640231579492, 0.6992213715978458, 0.693652708619294, 0.6880808841375747, 0.6824392772056742, 0.6768738313387276, 0.6713970769448765, 0.6658163931034121, 0.6602419244672122, 0.6545571547266799, 0.6490134705873944, 0.6436246165120568, 0.6380703352727402, 0.6325320944183978, 0.6269688955905213, 0.6214706133100717, 0.6158920205046456, 0.6104402187633374, 0.6050022025016722, 0.5996219909451432, 0.5942127204972694, 0.588875553050443, 0.5835064491993702, 0.5781657260068115, 0.5728231494721304, 0.5675466024798795, 0.562258328948166, 0.5570487359143078, 0.5518697796907313, 0.5467284330584318, 0.5416152569241729, 0.536577276938281, 0.5315326191914762, 0.5265291412671784, 0.5214947509611749, 0.5165862402415461, 0.5117155283312946, 0.5068898657669314, 0.502107769272418, 0.49740739740373624, 0.4927123911551954, 0.48813020088869447, 0.48352844162140496, 0.4789823502426908, 0.4744453646978203, 0.47001810433294555, 0.46559842400251555, 0.46128738193252755, 0.45703027759215864, 0.4528676391432687, 0.44871730417641115, 0.444650352580325, 0.4406175344602325, 0.43652717145766134, 0.432635575646778, 0.42880107310663046, 0.42507486411079437, 0.4213527077123821, 0.4176841747517543, 0.41409228045837615, 0.41056538302913387, 0.4070964015089588, 0.4037027230923845, 0.400302516232539, 0.3970521256124222, 0.3938655873193679, 0.39079895625818384, 0.38773649853812653, 0.3847492856103351, 0.3818265621372343, 0.3789748346524755, 0.3762440223706293, 0.37352869536616856, 0.37090346607939123, 0.3683347223977465, 0.3658407837472455, 0.36330103340059844, 0.36097091168588197, 0.35879417837535055, 0.3565880487712672, 0.35445514406130224, 0.3522932862301881, 0.35031909909296927, 0.3484431510821158, 0.3465993133638539, 0.3448251668431557, 0.34312606133089857, 0.34149093216969983, 0.33991288390398, 0.3384196102910173, 0.3369954967504131, 0.3356012275101849, 0.33432004804216664, 0.3332413342585631, 0.33207603037657946, 0.33098489281208093, 0.3299301177666488, 0.3289884077002466, 0.3280369536871177, 0.32724181275481534, 0.32650948957599585, 0.325926164185918, 0.3253081778204583, 0.3247259351751697, 0.3242451389891038, 0.32382769256437766, 0.32338659058003344, 0.3231045718673624, 0.32294944233982537, 0.3227710072919766, 0.3226525701196594, 0.32249393171029295, 0.32250550916198556, 0.32264998561099356, 0.3227549105419105, 0.3229159266282149, 0.3230588578292701, 0.3233384000006064, 0.3237663381286928, 0.32413097375378164, 0.3245492932826381, 0.32497546093103097, 0.32550263526748635, 0.3260429259329308, 0.3266676533090098, 0.32733563675293936, 0.3280879744521959, 0.3288349150189666, 0.32963815880594677, 0.33046867839708133, 0.33134070478500866, 0.3322529028518376, 0.3332039493148155, 0.33420560469958366, 0.3352287661278747, 0.3362875984579241, 0.33733364504133884, 0.33846561055733726, 0.33956634582209805, 0.340762765434398, 0.3419827569786899, 0.3432127029960978, 0.3444797708707036, 0.34580439435161064, 0.34710805697197006, 0.34843329149015245, 0.3497946675464888, 0.3511576823505537, 0.352463897466592, 0.35387323944456306, 0.35529472940558643, 0.3568191786988558, 0.3582512151534589, 0.35960931838202875, 0.3610808895203581, 0.3625592054478159, 0.36412970605607825, 0.3656080176629627, 0.3671030761746302, 0.3685965245253112, 0.37009601264843284, 0.3715110011659182, 0.3730289381245529, 0.37456930301945474, 0.37607571740619716, 0.37757827567631896, 0.3790288382439833, 0.380526398688331, 0.3820429715056585, 0.3835166809725416, 0.3849807731750512, 0.38642636485317405, 0.3878690886831277, 0.389259396769009, 0.39067969582355505, 0.3920826059923192, 0.39355110603680166, 0.3949065473634825, 0.3961817399117246, 0.39751421181929003, 0.39882525305583166, 0.40007742886939046, 0.40134773537599866, 0.4025658862467062, 0.4037869162409381, 0.4049793011933771, 0.40611646641899163, 0.40725352836864837, 0.4083773405846425, 0.40944862519429465, 0.4104886084617629, 0.41158295894402064, 0.4125475608665445, 0.41346026018647974, 0.4143697313293572, 0.4152468587432057, 0.41606446992339813, 0.4168771829656761, 0.41761130610457775, 0.41835511234914996, 0.4190584589811173, 0.4197707054300967, 0.4203858698266945, 0.42098586842986296, 0.42151988474283036, 0.4220150082970033, 0.42243112990115167, 0.4228508192525925, 0.4231877052339425, 0.4235247841943368, 0.4238152864350696, 0.4240486919836895, 0.4242471543934289, 0.4244844835599889, 0.4245771659455438, 0.424627178801375, 0.4245605433720854, 0.42453224193110994, 0.4244419996351518, 0.424317643012582, 0.424143726875228, 0.4240092606785482, 0.4237253008032761, 0.4233918245061923, 0.4230193062948777, 0.4226009992325752, 0.42204756084060574, 0.42154764975423753, 0.42112132620310494, 0.4205021723093143, 0.4198390271192068, 0.41902407664229335, 0.4182847652148872, 0.41753835287119767, 0.4166908518161777, 0.4157953294549165, 0.4148728270418494, 0.4138790153587336, 0.4127786684067736, 0.4116996954078611, 0.41057105687431916, 0.40945087675366154, 0.4082174185735112, 0.40692358281364904, 0.40560281807964277, 0.40423670883631124, 0.40273666341043984, 0.40129205060706746, 0.3998503929177411, 0.39830158745936545, 0.39670850332167795, 0.3951370583092176, 0.39344880821059647, 0.3917163800819718, 0.38995093005356735, 0.38806532739415645, 0.38623214430810715, 0.3843558000996328, 0.38249217625153603, 0.380525455566966, 0.3784247393926059, 0.3763961896416548, 0.3743258817908627, 0.3723170751393593, 0.37015415450778794, 0.36792487851234357, 0.3657018158713857, 0.3634451167126496, 0.36111884668286576, 0.35880152906889545, 0.35647410625669335, 0.3540875448989165, 0.35167065505222445, 0.349156228273486, 0.34668960023492207, 0.34417547554818734, 0.34164855005090194, 0.33909154647911033, 0.33653980097469366, 0.3339223158706717, 0.3313328037115002, 0.32866096620783986, 0.3259695318646003, 0.32317006198238013, 0.3204520974984898, 0.3178391747862857, 0.3150601573038384, 0.31226779752619976, 0.30938905306301256, 0.3065798542901654, 0.3037016630144685, 0.3008666659417917, 0.2980140020883046, 0.29515290518686904, 0.2922680246464249, 0.289450965038815, 0.2865305313704631, 0.28360370038069727, 0.2805898583741433, 0.2776618535626348, 0.2747243713726004, 0.27177864105391947, 0.2688258474982559, 0.26591419892727625, 0.262944724701164, 0.2599218612238147, 0.2569574710170079, 0.2539903973628417, 0.2511158874084819, 0.24813486658668368, 0.24513354702665915, 0.24216778672330316, 0.23920698951222072, 0.23630142557141592, 0.23334607414706218, 0.2303009655234115, 0.22737763490318816, 0.22445891120779604, 0.22162702942823567, 0.2187107652885657, 0.21575215031795483, 0.2128683368111558, 0.20999482907761186, 0.20710377926609744, 0.20425723586336567, 0.2015475572562833, 0.19870894435026856, 0.19589083878599245, 0.1930304602756132, 0.1902612997588435, 0.18747267022721656, 0.18474310407639621, 0.18203000040096068, 0.17924281896908453, 0.17657708269236277, 0.1740143530975553, 0.17136717053510303, 0.1687421091358651, 0.16617638704832668, 0.16359275830389444, 0.1609357265593363, 0.15841682706505725, 0.1559188408433883, 0.15351083816281447, 0.15104926329974258, 0.14857359446400598, 0.14617309061091674, 0.1437985800614231, 0.14147684400893412, 0.13915287367452014, 0.13686598174778103, 0.13459978876629022, 0.13236386106714731, 0.130098278751127, 0.12793113395236513, 0.12583858555358274, 0.12372124482883888, 0.1216353915720165, 0.11963350450298678, 0.1176045627757332, 0.11563149181822752, 0.11366955184227547, 0.11174326127289938, 0.10981043782605802, 0.1079597457009819, 0.10613362195066685, 0.10434887610988229, 0.10259635557906234, 0.1008291753137934, 0.09914757569191324, 0.09749866109289702, 0.09587737843806811, 0.09428726264010191, 0.09276789616466413, 0.09123619080143437, 0.08977800786293492, 0.08830985034227408, 0.08687799681586662, 0.08535390900239759, 0.08400963599272672, 0.08274560719376872, 0.08145132315063108, 0.08018921577279656, 0.07891491040735903, 0.07772296264790468, 0.0766026458789773, 0.0754653292944668, 0.07436073779851159, 0.07332794014048032, 0.07228336640791987, 0.07119999548275956, 0.0702329807280813, 0.06929524479253618, 0.06843395731049998, 0.06754908964972714, 0.06670152492192932, 0.06587971610931642, 0.065089423909127, 0.06436417670763438, 0.06363124137484726, 0.06285454064228052, 0.06219459542290107, 0.06156105981988018, 0.060906834472608175, 0.060331915655518153, 0.0599217147080541, 0.05937621237941429, 0.05886250903749624, 0.05834553817237437, 0.05789657583516378, 0.057432655072511885, 0.05704212992299114, 0.056674943279525665, 0.056265496078868375, 0.05595252548049553, 0.055645372560402556, 0.05537205222610046, 0.0551172325967759, 0.05493074594769304, 0.05470702321275786, 0.05447081391077462, 0.054293920545692535, 0.05413565827326827, 0.054136991515234024, 0.0539974155122692, 0.0538731301968845, 0.053784897773516804, 0.053718983671075, 0.05362452742056625, 0.05360606576307324, 0.053580290712918754, 0.053596678105914106, 0.05362684664464075, 0.053730577919604526, 0.05377962331322742, 0.053849942940203094, 0.05392953638053922, 0.05402375583064326, 0.054066405222792144, 0.05419569728436938, 0.054391110620557716, 0.054530145236359455, 0.054680610450861755, 0.05473459950307545, 0.05491939306058251, 0.05511803075722014, 0.055308511739206624, 0.05550335807609414, 0.05568949011283105, 0.05589464248056914, 0.05612938447328502, 0.056338057954565444, 0.05655146887022273, 0.05676140047399752, 0.05698414254614583, 0.057212629289278095, 0.05744094712012733, 0.057671816454175996, 0.05798588405039531, 0.05821037586557327, 0.05845640683002869, 0.05868953629573374, 0.0588436431582446, 0.05909558482131126, 0.05934543888729903, 0.05959035776536304, 0.059835652095768965, 0.060046590655338995, 0.060289637770706374, 0.060527422332902106, 0.06084620218469773, 0.06106243502774549, 0.06118654271488518, 0.06141229675011397, 0.06163071189498711, 0.06198561862717266, 0.062171206442796514, 0.06228165800145241, 0.062476972209421215, 0.06266635998864026, 0.06279189315068814, 0.06297550491257412, 0.0632507786584169, 0.0634009952270727, 0.06354681977799267, 0.06366917351434563, 0.06380627108424632, 0.06382862846411026, 0.06396376894178084, 0.06408452463551775, 0.06428029209708443, 0.06436245684426199, 0.06444957368508931, 0.06451342217492168, 0.06456907629034282, 0.06461084836445928, 0.06464944336161943, 0.06465215611571248, 0.06467429009632637, 0.06468465897734346, 0.06467800404513337, 0.06466541462816325, 0.06470342785191636, 0.06465861826991084, 0.06460520197330395, 0.06444855286869988, 0.06438838962274894, 0.06428425733424713, 0.06419773968264886, 0.06409520180939866, 0.06410532744920665, 0.06395618102421856, 0.06375526126817462, 0.06359644518877423, 0.06342660938251853, 0.06328223138591059, 0.0630853691828475, 0.06281647802332718, 0.06260864155984819, 0.06238735439970457, 0.06210842519263888, 0.06186661406876338, 0.06161481442128167, 0.061342479274587254, 0.06105631051601562, 0.06088223868832515, 0.06055377786441372, 0.06022231403414447, 0.05988160581351542, 0.05953416383231226, 0.0590958080128804, 0.058744029608244416, 0.05840045460333166, 0.05802099910285268, 0.0576307748570035, 0.0571724497485811, 0.05676853700421832, 0.05646887288153639, 0.05602392962309482, 0.055573461788685476, 0.055030808267770764, 0.054579143261717096, 0.05411358214351633, 0.053640205325866025, 0.05315641090290188, 0.052628691897192624, 0.052129783006829036, 0.051659139505928355, 0.05113404516064811, 0.05060150829636735, 0.0500957846232127, 0.04954485670675362, 0.048923811996431345, 0.048371630159227845, 0.04781102551280908, 0.04733146469560223, 0.04674444101176166, 0.0461242015200812, 0.04553721520705946, 0.04494618965705294, 0.044390463931048514, 0.0437867780673131, 0.04312676011737606, 0.04252702459716129, 0.04192254978752981, 0.04134511090871104, 0.040728377108837345, 0.040052307124583394, 0.03943933399260259, 0.03882157132275664, 0.03819963825419417, 0.03757411387602037, 0.03692985279335103, 0.036300723587976445, 0.035668653137918845, 0.035065594547430225, 0.03442536556897529, 0.03374112049984254, 0.03310759156805588, 0.03247242988117337, 0.03181529095148074, 0.03118118282679795, 0.03068443568322624, 0.030030996902440134, 0.02938531116745737, 0.028778163014449812, 0.028142338398941084, 0.02746746908114369, 0.02685305135818148, 0.02624294964280727, 0.025566558257873215, 0.024974019556031898, 0.02434268592377865, 0.023756605748804137, 0.02317000185490466, 0.022643885490668047, 0.022051173893934826, 0.021497695965044483, 0.020911346784639587, 0.02033249623138968, 0.019672146687140048, 0.019119268436443206, 0.01862883412070379, 0.01807366956439953, 0.01752552816432176, 0.01698450440173391, 0.016450698106402192, 0.01595820408559751, 0.015434851602055981, 0.014920947314273344, 0.014437248378492683, 0.013939151034646732, 0.013359785100982926, 0.012893513407082903, 0.012431927799226063, 0.012020064017669533, 0.011563934268578746, 0.011140113241979738, 0.010698636552681318, 0.01026740795648373, 0.00985154405717524, 0.00943983573169895, 0.008902435805720718, 0.00852836519159298, 0.00815676662136952, 0.007827895498543602, 0.0074592677078997765, 0.007069305833649325, 0.0067195572042887345, 0.006376346351796456, 0.006016661417947, 0.005690989586266984, 0.005387573776470883, 0.0050735675051863435, 0.004767958726348967, 0.0045337398661326, 0.004237667445921093, 0.003956716126155094, 0.0036849367469751282, 0.003425061315782031, 0.003176735650395866, 0.002939632655992376, 0.0026480833669510285, 0.00244080471616802, 0.0022402362987240273, 0.0021852373280200656, 0.0019813668117529713, 0.0017351670872411044, 0.0015679919102369452, 0.0014109557904938461, 0.0012088435746223872, 0.001078131190676838, 0.0010451405931016327, 0.0009154774827615631, 0.0007975266201763629, 0.0006253176399102204, 0.0005373042491000847, 0.000473999544347856, 0.0003965678254448151, 0.00032671421777060524, 0.00024602937471116166, 0.00019332453411053608, 0.00019913914710302923, 0.00015231055594238654, 0.0001539131446974362, 0.00012012418641661941, 9.693402752839443e-05, 0.0, 6.631569779138546e-06, 0.00011407963235945862, 0.00011680574893077558, 0.00012935523765195283, 0.00017459135622898515, 0.00020187256413916731, 0.00018096104680000237, 0.00023349491297503278, 0.00029084110559127, 0.0004679602127717326, 0.0005201312441190877, 0.0005780850590286403, 0.0006519274873658176, 0.0007345726992332997, 0.0008226467760479835, 0.0009210351404301685, 0.001054808230739247, 0.0011622968040162893, 0.001277059600820349, 0.0013566284514171063, 0.0014894011648001486, 0.0016986206780178637, 0.0018285079392927899, 0.0019655457823331197, 0.002205802650966073, 0.0023429673059593282, 0.0025379824697232246, 0.0026895308204333336, 0.0028521813642164223, 0.003037679136689101, 0.0032170657173887065, 0.0034021790802057235, 0.0035976022297769697, 0.0037994000489251665, 0.003996410839528343, 0.004210274150023872, 0.004443801067422906, 0.004663287731580617, 0.004887001806435209, 0.0052531624245992685, 0.005466799113621577, 0.005605261731465332, 0.005850718619633037, 0.006100004977033407, 0.0064286700444182296, 0.006675257861895201, 0.0069789452741614855, 0.0072333589846919726, 0.007496624720907734, 0.0077442900251028035, 0.008025612241031866, 0.008387930568993044, 0.00866964937087121, 0.008960152103729855, 0.009227234923291599, 0.009536921674024002, 0.00981492674369119, 0.010138869203784314, 0.010465303301735724, 0.010914693320575458, 0.011231484740426944, 0.011626099096078752, 0.011953228003765222, 0.012292636754774112, 0.012543907165430765, 0.012917421093638557, 0.013399524560477152, 0.01376800912990286, 0.014146762058513264, 0.014566543545996615, 0.01496013757763461, 0.01538517378669629, 0.015796623731042354, 0.016218789270011514, 0.01663286841362774, 0.01707739327034166, 0.01766116568408156, 0.01810614012220062, 0.01856692651463116, 0.018979787152759855, 0.019477351406162868, 0.020010909185423757, 0.020524859128698197, 0.02105018306909362, 0.021537110791873686, 0.022091263867350903, 0.022724540174974567, 0.023287330119139735, 0.023863626841944558, 0.02447167546985213, 0.02507256876695947, 0.02570109763188416, 0.026329443800653888, 0.02697311489878666, 0.027624268526179836, 0.02829965110071873, 0.029024101720180016, 0.029725580488474998, 0.030444559438343666, 0.03115231319102158, 0.03191009893192625, 0.03272327844353481, 0.033508887400761474, 0.03431375461302733, 0.03510665054542989, 0.035954489795495474, 0.03685178409406677, 0.03773234534922789, 0.038633811091341404, 0.03963228999576288, 0.040566861396697934, 0.04145694252306073, 0.042452412076279616, 0.043469645828047326, 0.04451700222917359, 0.045578324140387545, 0.0467000217919836, 0.04780472789385263, 0.048936213428477454, 0.05009990683509823, 0.051284932486662445, 0.05242716275023808, 0.053676992144996855, 0.05495125043555998, 0.056279611330168317, 0.057601785918616935, 0.058991836723255926, 0.06036692904963601, 0.06177400217834107, 0.06325251596938211, 0.06471934685729401, 0.06620026336184633, 0.06773976299319684, 0.06931319158625494, 0.07082149846218974, 0.07247629503297416, 0.07413429964350372, 0.07585229158030911, 0.07760045039774896, 0.0794532219381189, 0.08125607080264914, 0.08318029817619076, 0.08504837837305626, 0.08695964908131801, 0.08882493616949456, 0.0908330854400454, 0.09290500148905602, 0.0949857535320786, 0.09710690174325248, 0.09919825438457158, 0.10141033395748474, 0.1036679061425449, 0.10595526290624827, 0.10828257945921096, 0.11060879098431968, 0.11302357214775348, 0.11553564076823626, 0.11802363728560386, 0.12055646031139586, 0.12313183189923453, 0.12575563677888066, 0.12836757389791528, 0.13109028417632418, 0.13385605347397866, 0.13675976819987964, 0.1396019610489601, 0.1423742944702674, 0.14533233373239535, 0.14833369732276347, 0.15139753933188188, 0.15448570269896372, 0.1576335851759964, 0.16081384607796503, 0.1640423540714008, 0.16737688930106498, 0.17069536258798654, 0.17403723792005718, 0.1774633881323335, 0.18093954898938708, 0.18446834333759524, 0.1880442163036441, 0.1916545728987251, 0.19533274749780002, 0.199060159950089, 0.2027610786248492, 0.2065968126039196, 0.21054311186060642, 0.21446161911887499, 0.21843017867153616, 0.2224016581700956, 0.22647605148902034, 0.23063682275434785, 0.23480083617060377, 0.23901467172961913, 0.2432467806264686, 0.24756369394519104, 0.2519150320114113, 0.25632862888478253, 0.2607890127457977, 0.2653354531059088, 0.26988454737749645, 0.2744695478967803, 0.2791178381135479, 0.28381615221925566, 0.2885586093318294, 0.29334796093753146, 0.2981053865449984, 0.30299728566102563, 0.30799585098917337, 0.3129622846857836, 0.31797399113984437, 0.3230226185426455, 0.32812432361313315, 0.333209155101383, 0.33840450007848366, 0.34363872888298064, 0.3488934854090125, 0.3542075531595706, 0.3596479749727841, 0.3650255801421327, 0.3704452796138427, 0.37581193904469895, 0.3813247269323047, 0.38691319426863396, 0.3924881801727932, 0.3980988705211098, 0.40363736552435847, 0.4093308929344347, 0.41506238412257146, 0.42080967874891345, 0.42658509191216487, 0.43237790754644284, 0.4382100082878138, 0.44407903708974095, 0.4499623079498638, 0.45587165660144113, 0.46179593009692715, 0.4677566131353286, 0.4737928209650515, 0.4797925798325614, 0.48581689796006233, 0.49187493176431807, 0.49794314590746447, 0.5040326182916293, 0.5101419797781347, 0.5162698758712043, 0.5223522131246262, 0.528521098363245, 0.5347376077479091, 0.5409230935809505, 0.5471199785653988, 0.5533348962994653, 0.5595499466139656, 0.5656921209593191, 0.5719324735281723, 0.5781738487665004, 0.5845044906985831, 0.5907346258421133, 0.5968822860121319, 0.6031293530748917, 0.609372223394172, 0.6155995874741682, 0.6218327691914887, 0.6281447098527903, 0.634350989592439, 0.6405526427078866, 0.6467217758118271, 0.6529122802329562, 0.6590052803250195, 0.665182822741016, 0.6713414447713059, 0.6775222497202785, 0.6836354644322656, 0.6897244412753799, 0.6957990060741592, 0.7018516619577754, 0.7079229561018624, 0.7139226235038654, 0.719836060794271, 0.7257950314147245, 0.7317236829023759, 0.7375790673864648, 0.7434489923709482, 0.7492984899655425, 0.7550933237591844, 0.7608511014734701, 0.7665262439499447, 0.7722121021499863, 0.7779385816045474, 0.7835268953387923, 0.7890750488398046, 0.7945160055241753, 0.7999871237237488, 0.8053598158216305, 0.8107386639145071, 0.8160638261069552, 0.8213999410391526, 0.826607206166985, 0.8318117267145757, 0.8369064074468949, 0.8419485532065354, 0.8468683559991724, 0.8518086116756571, 0.856648008464453, 0.8614688481183038, 0.8662236399936307, 0.8709691001451839, 0.8755820578667678, 0.8801374880988574, 0.884617322644123, 0.8890294785487535, 0.893335957876618, 0.897613243045152, 0.9018350281775471, 0.9059614020004998, 0.9100130135245326, 0.9139128954443592, 0.9178211627667259, 0.9216444318220697, 0.925387791432403, 0.9290476242753921, 0.9326756727200378, 0.9361601463111079, 0.9394838176559248, 0.9428124072201324, 0.9460521079749357, 0.9492129906493461, 0.9522723788816025, 0.955289226641447, 0.9581628602048295, 0.9609483231230053, 0.9636498427348166, 0.9662553372958315, 0.9686968580131382, 0.9711291565943494, 0.9734647756780799, 0.9758394269022664, 0.977963714505182, 0.9799405941410001, 0.981890967431757, 0.9837455171503975, 0.9854250864480908, 0.9870958038783233, 0.9886512152604062, 0.9901191746180378, 0.9914842423777801, 0.992798809312794, 0.9939517402839102, 0.9949500018617424, 0.9959099440943999, 0.9967662629438429, 0.9975321360934059, 0.9981798491755681, 0.9988086024158622, 0.9992404366051347, 0.9995742617650951, 0.9997936958615506, 0.9999315020201671, 1.0, 0.9999321796574355, 0.9997649196304653, 0.9994272098570994, 0.9990688444596024, 0.9986348633261577, 0.9980645173212025, 0.9973922328577406, 0.9965972832698208, 0.9957243762592616, 0.9947098216192021, 0.9936374875313987, 0.9924614783268019, 0.9911643063833196, 0.9897856836420734, 0.9883465759750731, 0.9867589345955343, 0.9850731140201876, 0.9832974835402196, 0.9814159144276643, 0.979511470363236, 0.9774290156476563, 0.9752557028825307, 0.9729549507345082, 0.9706047294065343, 0.9681410656615838, 0.9656090578040898, 0.9629846391870296, 0.9602582361830191, 0.9574529978775634, 0.9545182703118126, 0.951538493940277, 0.9484683444325358, 0.9453144360500269, 0.9420670098952112, 0.9387937284698873, 0.9353679983570666, 0.9318622133769504, 0.9282536333384543, 0.9245931484842014, 0.9208224621344757, 0.9170094418016143, 0.9131181583724965, 0.9092363478906137, 0.9051819800146277, 0.9010559184674407, 0.8968644714884965, 0.892613226468036, 0.8882864406909887, 0.8838943989936168, 0.8794564163705707, 0.8749346553841629, 0.8702290168223756, 0.8656018730543094, 0.8609090297921854, 0.8562441824076491, 0.8514148546082547, 0.846539174597425, 0.8416017428384519, 0.8366131632920243, 0.8314963052586614, 0.8264193228214359, 0.8212960868770164, 0.8161175493700699, 0.8108919244657345, 0.8056394657705356, 0.8003231771095463, 0.7949561421086614, 0.7895623296854533, 0.7841311000926362, 0.7786381183614343, 0.773140784328069, 0.7676857947078801, 0.762113906195976, 0.7565167472800276, 0.7508851815456437, 0.7452428202241197, 0.7395159600229583, 0.7338395792435044, 0.7281410367148372, 0.7224015088626394, 0.7166675261499403, 0.7109137504989655, 0.7051478868085813, 0.6993689346109122, 0.6936573974578905, 0.6878484954963698, 0.6820343482207343, 0.67622182103805, 0.6704091704285686, 0.6646344095033038, 0.6588211392733327, 0.6529853538226312, 0.6471894096964266, 0.641400550215097, 0.635641229759583, 0.6298685222642921, 0.6239727674383196, 0.6182444874764847, 0.6125243342477743, 0.6069272888988447, 0.6012167103404573, 0.5954520564254692, 0.5897958895544647, 0.584159888775667, 0.5785564861727052, 0.572965353916364, 0.5674007140943211, 0.5618642828865981, 0.5563577363475164, 0.5508748684445207, 0.5454339604708794, 0.5400299179817587, 0.5346587776488376, 0.5293251881303344, 0.5239888124768624, 0.5187400726279636, 0.5136538165690291, 0.5084704649246384, 0.50333700498551, 0.49816253313971226, 0.4931423149609084, 0.48812963190327285, 0.4832093827645094, 0.47833663393866993, 0.473557544354088, 0.46877921720105137, 0.4640740579646463, 0.4594042524468709, 0.4547925221262484, 0.4501691743615549, 0.4456852202434019, 0.44136264534276143, 0.4369804917206506, 0.43266379272000727, 0.4282979381533135, 0.4241280284843048, 0.42014662408567466, 0.4160827237742438, 0.41208916895573694, 0.40805635549975516, 0.40421805118108, 0.4004316049896533, 0.3967260117783976, 0.39308691870255413, 0.3895232988582802, 0.3860195104785852, 0.38261977257052215, 0.37925261590720194, 0.3759589784512871, 0.37275756823841655, 0.369609845241934, 0.36644629316128247, 0.36346168715607574, 0.3605479773737124, 0.35768775508831335, 0.35492072897677235, 0.35228608433512587, 0.34965669212994366, 0.347104313971513, 0.3445976412951095, 0.34220343150394694, 0.33990550828814603, 0.3376596268474711, 0.3354906983917639, 0.3334039036800424, 0.33138804245643, 0.329420425772143, 0.32756202808413437, 0.3257786281566079, 0.3240989839896626, 0.3224618798884269, 0.32090122010417627, 0.31941661771413876, 0.3180076686544899, 0.31661904322299755, 0.31536705875098464, 0.3142595342503049, 0.313140754701509, 0.31209718325144215, 0.3110836002982812, 0.310193761509953, 0.30941356531346254, 0.3086592151476087, 0.3079766483519849, 0.30729708390311966, 0.3067642777533107, 0.3062813453643482, 0.3058813819659835, 0.3055454964458507, 0.30529693766171256, 0.30508530269802414, 0.3049981179552225, 0.30490680905866413, 0.304881754605284, 0.30479619267661584, 0.304915763804978, 0.3051012966098131, 0.30533036174138184, 0.30561502532686197, 0.30594695475246103, 0.30634225728554043, 0.3068459155373022, 0.3073405152444019, 0.30789025967013806, 0.3083997855984409, 0.3090680081419479, 0.309876496545154, 0.3106245985109166, 0.311423030261937, 0.3122651207038311, 0.31316056014186056, 0.3140285355583362, 0.3150233568051119, 0.31605708383595493, 0.3171237134496097, 0.3182335201783361, 0.3194421619005439, 0.32061527488123925, 0.32182608287570696, 0.3231018070636957, 0.3243797647361776, 0.32564016580272814, 0.3269924821160452, 0.32837318932569015, 0.32981766603441753, 0.33124682943850847, 0.33256935983182734, 0.33406724348710515, 0.33558124428615865, 0.33715535982680717, 0.33869450719979877, 0.34020613459814536, 0.34178364526751737, 0.343373322951735, 0.34502924729759055, 0.3466337595030093, 0.34832926565783395, 0.3499475057949807, 0.35157978195355283, 0.35316649041985765, 0.3548279534671848, 0.35639487386264473, 0.3580771457644308, 0.35975590084011555, 0.3615403897545875, 0.36319644289625225, 0.364861034929937, 0.3665158014822105, 0.36807948404855845, 0.36973946545098213, 0.37138901500994365, 0.37311096041944225, 0.3747264997042024, 0.37625259888788476, 0.3778599866634469, 0.3794512391977878, 0.3810830104996926, 0.3826320829782451, 0.38408188502419277, 0.3856089227490855, 0.3871128814121562, 0.388569567929467, 0.3900283126989318, 0.39143962100385477, 0.3928473766965717, 0.3942261958460604, 0.3955807825789704, 0.3968994326995563, 0.39820861221663156, 0.3994631216450657, 0.40068694581895453, 0.40188175548240784, 0.40304104840825156, 0.4041617494847838, 0.40525402693129936, 0.40631075745433687, 0.40741734175099964, 0.40838943136501477, 0.40926545155246274, 0.4101773030352058, 0.4110493441314844, 0.41189381432594047, 0.4126821073352683, 0.4133922982883173, 0.41410136833903766, 0.4147652126337795, 0.4154147233735849, 0.41598269977420954, 0.41648485061659785, 0.41696493162514736, 0.4173975233221783, 0.41773769970989233, 0.4180795187937982, 0.41836735941374603, 0.41860671430879853, 0.4187943991646246, 0.41898784506682046, 0.41906462506436043, 0.41902727390453326, 0.4190141948802711, 0.4189475458835788, 0.4188822671020301, 0.41870161554827795, 0.418386855667312, 0.41811545541860057, 0.4177880715546626, 0.4174311703898097, 0.41698943446521414, 0.41650972129457076, 0.4159586851749223, 0.4153548972418947, 0.4147087171590638, 0.41399783204213614, 0.413224103941119, 0.4124096674049448, 0.4115420863347073, 0.4107286136948819, 0.4097413709128787, 0.40862617775273424, 0.40755465768628174, 0.40643035814729683, 0.4052063875184041, 0.4039830273242013, 0.40275714841713556, 0.40141819375071547, 0.40002862535908124, 0.3985311079139751, 0.39704818669240194, 0.3956219195603089, 0.3940195559155896, 0.39237170216880707, 0.3905971462824147, 0.388868182179209, 0.38712297323258626, 0.385289997056672, 0.38341019910514346, 0.38145006066351095, 0.3794823632139225, 0.377415149830232, 0.37536045111838306, 0.3732572519992075, 0.3711355524741991, 0.36893537598082443, 0.3666604909814429, 0.36437847381342986, 0.36205306862518116, 0.3597559640539825, 0.3573380995278699, 0.35482384693487745, 0.3523415150122643, 0.3498204666151875, 0.3472224878490257, 0.34463196412768293, 0.34198518389160315, 0.3393223388963109, 0.3366230073970495, 0.33399571532774963, 0.331213775152918, 0.3284077913975293, 0.32557251751777166, 0.32271142782474443, 0.31978311269540954, 0.3168770164116019, 0.3140043463079773, 0.31103815453620887, 0.3080504921940427, 0.3049503039889015, 0.30193270924975835, 0.2988796118292044, 0.29581462213124887, 0.2927266998947091, 0.28960937377780904, 0.28648065022348357, 0.28330900654983804, 0.28014579238052445, 0.27696444843439605, 0.2738108436845131, 0.27059182208879307, 0.26744492684318605, 0.26419314804780925, 0.2609363388607666, 0.2576538220007898, 0.2543904026756398, 0.25107729950461477, 0.24780967227408515, 0.24453564036510028, 0.24124582241379172, 0.23796352346882177, 0.23471664941410192, 0.23142292868032974, 0.2281298466503777, 0.2248146416917475, 0.22152814313990793, 0.21826947704552485, 0.21498405538354595, 0.21170379752342178, 0.20836411488836384, 0.20510479704045853, 0.2018728799321721, 0.19861966262008046, 0.19537425279063456, 0.1921403017370852, 0.18891325950948937, 0.18576518381299206, 0.1825524570255185, 0.17935639038786155, 0.17619564048613603, 0.17303169127946602, 0.16980557871628402, 0.16668999630326065, 0.16358947947857425, 0.16056786218309696, 0.15749274613275818, 0.15438965921302225, 0.15136469537288996, 0.1483595887687888, 0.14536478356366558, 0.14240339026061663, 0.13942989053724217, 0.13651745749904814, 0.13362675050443792, 0.13077716316463545, 0.12793079782068176, 0.12512855821899005, 0.12233227550310477, 0.11956430677282481, 0.11685655895115285, 0.11414282952827287, 0.11138228405065523, 0.1087419536250369, 0.10612932887323465, 0.10361066971343348, 0.10104780418887835, 0.09845342798198561, 0.09596671706378367, 0.09351056099942279, 0.09108829709198288, 0.08869502866847395, 0.08630830910107519, 0.08398427279755918, 0.08169248990293349, 0.07949898457947913, 0.07726535159118127, 0.07504850513285849, 0.07289287510367862, 0.0707736900021815, 0.06861526835664675, 0.0665789784519768, 0.06470600439449525, 0.06271906735080991, 0.06077339496088079, 0.05888417259061914, 0.05701759517796767, 0.05517090208215808, 0.05338809540199874, 0.05167800710034131, 0.04996815175476222, 0.04829853933990686, 0.0465772150895659, 0.044998381196536985, 0.04351098752222876, 0.04199313410724812, 0.04051320133939178, 0.039018733422417115, 0.037620769545968546, 0.036314835469328746, 0.034978876755746874, 0.03368112666679267, 0.032340227893521874, 0.03112824451629839, 0.02988105859676576, 0.02874359841198995, 0.02763576500699419, 0.026568783645921027, 0.025521046716163596, 0.024497587216484304, 0.023515397650587706, 0.022565423093888735, 0.02166878128585301, 0.020781109710140508, 0.020039615228144105, 0.019205026410913685, 0.018410061972556322, 0.017548958521188304, 0.01684301343468695, 0.01619105150926409, 0.015542910279698405, 0.01492624720689874, 0.014304054662087834, 0.01375375304719851, 0.013338822900007676, 0.012831157019533754, 0.012357327167819844, 0.011803798144033038, 0.01140860757624662, 0.011152867365052466, 0.010791922502080805, 0.01046173785160786, 0.010046204181136909, 0.009788955152841877, 0.009620978771156107, 0.009397747047786635, 0.009199611501157, 0.009007619985804502, 0.008860052754748344, 0.00872417753264774, 0.008621759402483704, 0.00853994480169821, 0.008486165910526257, 0.00844331145438017, 0.00837314395278398, 0.008375212414439278, 0.008393324750725118, 0.0085083707696476, 0.00854777661353569, 0.008675110862262188, 0.008744858834472811, 0.008836498419715283, 0.008893701643073152, 0.009031910316483451, 0.009221576267561206, 0.009384166026544868, 0.009562295061728454, 0.009723641346603284, 0.009934032317902335, 0.010100614356492352, 0.010339599717051758, 0.010585519479343119, 0.010919339468218811, 0.01116856632916763, 0.011300753468448268, 0.01158746499837266, 0.011876367835508774, 0.012170321263620639, 0.012463919133507815, 0.012854453016136929, 0.013141744304560887, 0.01343701944068788, 0.01378383034764815, 0.014086806202232023, 0.014248664054173035, 0.014585187426166336, 0.014919081611798954, 0.015347307344628962, 0.015664284328805907, 0.01601062487036235, 0.016329949316926523, 0.01665243536325132, 0.01692225883641142, 0.017255320674823865, 0.017656482753430666, 0.01797531754058503, 0.01829499032097458, 0.01849172009157308, 0.018825995050736948, 0.019282457395204452, 0.01958338752931312, 0.019883588096569087, 0.0200984786294648, 0.020405137579738965, 0.020763987269506238, 0.02104711277596305, 0.021325565543292128, 0.021596159905747717, 0.02186392442862821, 0.021997154200867144, 0.022267843975237938, 0.022524074386703594, 0.022850158144115503, 0.02306871891544459, 0.02331575348390725, 0.023513116696392028, 0.023703800266284686, 0.023855848868227586, 0.02403544936802585, 0.02415533165870266, 0.024320938999425334, 0.0244733354634517, 0.02472255478913029, 0.024835257693268283, 0.02481855859480044, 0.024932997968572592, 0.02503255940070366, 0.025081006996172963, 0.02515649447793626, 0.025255221083064484, 0.025294307518193677, 0.02532057932012154, 0.025375936576309054, 0.025371468457409414, 0.025398514102009457, 0.02536780024926563, 0.025328516726238474, 0.02517810499368058, 0.025132885221956003, 0.025176405894932672, 0.0250867008388725, 0.024987833470465196, 0.02479302329991883, 0.024685318938617994, 0.02459631051048686, 0.024454105867109787, 0.024299254508133788, 0.02410827613970288, 0.02393127000314136, 0.02382937534978045, 0.023613822445975652, 0.02338999113920117, 0.023071123413484662, 0.022840299783051892, 0.022660526421092644, 0.02239323983970431, 0.022116147123910683, 0.02186571222448722, 0.0215640001000156, 0.021288233738088233, 0.020965822738400378, 0.02063672237960565, 0.020201126596041355, 0.019869954588639233, 0.01957773037877008, 0.019213856032856462