0.06349568190416227, 0.0629334985454428, 0.06240631700608416, 0.06182357157576067, 0.061314433506953314, 0.06080590656519467, 0.0604227842403829, 0.059899348121077826, 0.05934603592670953, 0.05884091323108098, 0.058339065077181645, 0.05778153443363017, 0.0572922468605165, 0.05682298013677957, 0.056328714116542604, 0.05583478099401666, 0.055381060456427836, 0.05488280894810238, 0.05426761515494008, 0.053789533105010556, 0.05330691270087255, 0.052932166909238236, 0.0524286365844506, 0.05191566904697383, 0.05142118942572074, 0.0509292001907553, 0.050359837149542834, 0.049882541593555645, 0.04953583069784164, 0.04903770635390634, 0.0485458346874143, 0.04794001127898677, 0.04747403227718578, 0.047000698768958106, 0.04653189025269126, 0.046061836579319636, 0.04568406255593856, 0.045201211871942454, 0.044715712649755004, 0.04424412469962588, 0.04377667631806661, 0.04326795384886124, 0.042813836242923814, 0.04229694040546643, 0.04185312740693649, 0.04140716945873493, 0.04106607380319549, 0.04060439476987682, 0.040060688173918425, 0.039621078625869124, 0.039181518701683196, 0.038761030045496664, 0.03832042009308952, 0.03795111550294184, 0.037506311379604224, 0.03706784353181832, 0.03655552831826262, 0.03613851740151721, 0.03577799109371134, 0.035355610030355096, 0.034937682084692945, 0.034547950784927624, 0.034135401561587744, 0.0336298567085991, 0.03324012512532519, 0.032849661718674955, 0.03253877246221304, 0.03213842103727704, 0.03170614082605936, 0.0313208147319829, 0.030938235830557662, 0.030502714806560905, 0.03013304783962325, 0.02985635903986284, 0.02947538949430342, 0.02910062552216716, 0.028686564226308758, 0.02832900303518751, 0.028030083953877308, 0.027671281727356604, 0.027318742377875644, 0.02694557175175854, 0.026608013678074083, 0.02631161616586619, 0.02597727683006128, 0.025566632447261057, 0.02525461353745147, 0.02494356273049284, 0.02470571345561799, 0.024388899417867715, 0.024086335416678352, 0.023780832095848258, 0.02348161926120502, 0.02310607528373977, 0.02282920358646249, 0.02260922343455549, 0.02232798161617702, 0.022051953503928048, 0.02174124648029716, 0.02148061681090056, 0.021217595705699255, 0.02096380470561759, 0.02071324259161833, 0.020529992318877522, 0.020278680442709245, 0.01995789679674606, 0.019731230383090877, 0.019507268385493562, 0.019387393092298647, 0.019157188100503684, 0.018848681605962498, 0.01864782814220696, 0.018450430848195587, 0.018363086501062453, 0.018159987250927333, 0.01781558400153925, 0.01765135876407059, 0.01748758808018058, 0.01744990253629621, 0.017273310476578024, 0.01702369485528311, 0.016875734860078838, 0.016731541643887866, 0.016665793127085424, 0.016520474881258518, 0.01635189690836621, 0.016227454128455644, 0.01610905811269693, 0.015932851697978163, 0.015834410243590585, 0.015756853149561042, 0.015661085067702304, 0.015569514477284625, 0.015562080126051678, 0.015469412934217048, 0.015332798099268762, 0.015264754210047403, 0.015201968148882344, 0.015197621096751263, 0.01513870281783812, 0.01516250579565079, 0.015110371560925331, 0.015069937374077401, 0.014965867129994882, 0.014955599657192061, 0.01500358567568655, 0.01499678314707361, 0.014998049045162025, 0.014948490641705907, 0.014972078747287608, 0.015087063394230348, 0.015107149043835697, 0.015136242042560687, 0.015253543255591378, 0.015289047020738323, 0.015304754930655702, 0.015367508931624415, 0.01543874806649387, 0.01545421441693068, 0.015549146441153686, 0.015708907469986665, 0.015803747409324782, 0.015906176493202376, 0.01602654340349098, 0.01614200729739906, 0.016315444755845433, 0.016439235118223098, 0.01657289619133464, 0.01669459927016152, 0.016849073180605766, 0.017103786158249725, 0.017260760929593378, 0.01742986506913268, 0.017604931944825, 0.017796534324773128, 0.01801902590020681, 0.018226710642305268, 0.01844432866920647, 0.018759082567412693, 0.0189840517685707, 0.019166795957560975, 0.01942501350271493, 0.019691863182373603, 0.020102629563443705, 0.02036888236408017, 0.020586977409842524, 0.02089135942226878, 0.021205579491343676, 0.021521314781875845, 0.02185524544278355, 0.022242915733811774, 0.022588162020632935, 0.022944369209810887, 0.023345715662921457, 0.023718434457047178, 0.02414833581829864, 0.024538894173996403, 0.02494317621452646, 0.025405712869299837, 0.025829888654810087, 0.026274009571289163, 0.02672605763905163, 0.027191726636618434, 0.02768112177213948, 0.028171212898073117, 0.028756628588572447, 0.029261831319764692, 0.029783994111817032, 0.030277085426409844, 0.030836476356552813, 0.03149586591208624, 0.0320686535221934, 0.03265851354175681, 0.0333019553683604, 0.033919287811111566, 0.03450356060000949, 0.03516150186635063, 0.03583287113719102, 0.03655221337868688, 0.03724610174910403, 0.037987373442790205, 0.03870805411299591, 0.039445768767743965, 0.04024275188753207, 0.041008370680562165, 0.041728990193455905, 0.04253983283340879, 0.04336515021674432, 0.04427964091496318, 0.045125355391643626, 0.04596933786026287, 0.04685651320791639, 0.04776152927194874, 0.04870036484483027, 0.04963918332702452, 0.05058631920896702, 0.05156438856948673, 0.052560871294176116, 0.05357328321661599, 0.054607470488738555, 0.05568973786317112, 0.05675816696697042, 0.05784758881885248, 0.058886275265381885, 0.060026884498207665, 0.06128299077105849, 0.06244618744807244, 0.06363341678240736, 0.06480728878766065, 0.06604680149069928, 0.06727598818125277, 0.06856294001449607, 0.06987021753968621, 0.07124619523777642, 0.07258964998404645, 0.07390181917177477, 0.07530145242902306, 0.07672263887853009, 0.07820846385453444, 0.0796690272074616, 0.08121092064655566, 0.08271558138459956, 0.08424914664322705, 0.0856996909069214, 0.08730434730773938, 0.08905851302585402, 0.09069169468683243, 0.09235547347280029, 0.0940202520481205, 0.09574791184940408, 0.09744253496549513, 0.09923418653329948, 0.10105068378861301, 0.10296972092698851, 0.10482798132116793, 0.10669057405342869, 0.1086139018585065, 0.1105664678416541, 0.1126175606725023, 0.11462043694845568, 0.1166012060397368, 0.11867820766754902, 0.1207851715627921, 0.12297550006383595, 0.12513641340017037, 0.1273017894999476, 0.12953362414848, 0.13179988506266566, 0.13409508577918414, 0.1364225472625626, 0.13881167219043458, 0.14120047219723242, 0.1434908196464351, 0.1459652516047919, 0.14846661362933597, 0.15108104462199531, 0.15362867845477052, 0.1561392157711914, 0.15876536078949133, 0.1614223688593158, 0.16414548439623622, 0.16686185998468828, 0.16970859151421308, 0.1724824449669545, 0.17529676967566063, 0.17814300892471172, 0.18103761320618883, 0.18387504117794315, 0.18685844271436783, 0.18987441348416526, 0.19295008439489147, 0.19602943495236855, 0.19914965145623267, 0.20229960881167253, 0.20548575164518063, 0.2086311024825325, 0.21189964122737887, 0.21527205416863526, 0.21859642934413823, 0.2219582178335669, 0.22539190418591593, 0.22882394980256335, 0.2323243775085794, 0.2358306687935076, 0.23937707597765534, 0.24283284107980263, 0.24647441484236454, 0.2502005186540075, 0.2538987798649073, 0.25763262159969524, 0.2614658804983477, 0.2652629438741526, 0.26898230138732393, 0.27287208535857327, 0.2767935111074221, 0.28073908664145797, 0.28472616257957306, 0.28887320027844704, 0.2929092359162129, 0.2969853689528859, 0.301092771789671, 0.30524761113818993, 0.30930684136258507, 0.3135524273175849, 0.3178266463063145, 0.32210610430033476, 0.32644208658986096, 0.3309049693097808, 0.3352860756611852, 0.3397020219847594, 0.3441256729691813, 0.348612998435783, 0.35310545568870677, 0.3576592465812196, 0.36224260801718594, 0.3668500856733193, 0.3714927993894958, 0.3761482923746524, 0.38085025432497305, 0.3855795674155303, 0.3903785865259237, 0.39515666733841764, 0.3999266229457389, 0.4047669253623467, 0.40963292696858905, 0.4145402295824426, 0.4194545436359512, 0.42434647410292253, 0.42931717712440426, 0.4343094952855768, 0.43946673601871244, 0.4444834454493817, 0.44945726018583665, 0.4545392463130571, 0.4596431167088866, 0.4647760824172464, 0.46992043408220513, 0.4750263810379941, 0.4802174486626906, 0.4854236938402266, 0.49061290378251854, 0.49585252556145887, 0.5011841570488861, 0.5064380446047076, 0.5117081974566537, 0.5169298430331232, 0.5222376511140819, 0.5276110526671983, 0.5329309409868928, 0.5382628426205879, 0.5434915026473326, 0.5488589784488211, 0.55422917359979, 0.5596020654080984, 0.5649775237647778, 0.5704430269479607, 0.5758117575849308, 0.5811710903916594, 0.5865537610772684, 0.5919397603198555, 0.5972350629154128, 0.6026364710858375, 0.6080648736115766, 0.6134521995127856, 0.6188358197747825, 0.624276178815263, 0.6296425638155906, 0.6348736088392937, 0.6402505989278142, 0.6456151229418315, 0.6510733224025923, 0.6563988583481863, 0.6616160798528053, 0.6669384293066538, 0.6722451849201094, 0.6775146317096165, 0.6827914512889681, 0.688031294951425, 0.6932732309654781, 0.6984946888113679, 0.7037244145198592, 0.7088996717930978, 0.7140145263164033, 0.7191528126201254, 0.724266420714901, 0.729338735649666, 0.7344029388402425, 0.7394925474087438, 0.7444938323383847, 0.7494688989565477, 0.7544776459908988, 0.7593888688788241, 0.7641248135841316, 0.7690002795685356, 0.7738376464645861, 0.7787003486138608, 0.7834523102468668, 0.7881711045200915, 0.7928499835984082, 0.7974909977719964, 0.8021302465371172, 0.8066875078340932, 0.8110887507200312, 0.8155812631175426, 0.820025421762328, 0.8245192142850563, 0.8288531085293175, 0.8329834368078127, 0.8372479510553845, 0.8414567786256698, 0.845620579602314, 0.8497166578258849, 0.8537999133194724, 0.8577795459833636, 0.8617053955568069, 0.8655978716472895, 0.8694108970267624, 0.8731581106261922, 0.8768610683746829, 0.8805061665148903, 0.8840100867749188, 0.8875471077564018, 0.8910295189049459, 0.8944344768792002, 0.8977742459217171, 0.9011520242519445, 0.904346904852053, 0.9073453851232375, 0.910434298908529, 0.9134520387848151, 0.916451605981415, 0.9193197491139112, 0.922150942474043, 0.9248766129558915, 0.9275337326115135, 0.9300336082571332, 0.9325617994413964, 0.9350508991836137, 0.9374216344325694, 0.9397178079919473, 0.9418963578110876, 0.9440471738489241, 0.9461805677046505, 0.9481663733908988, 0.9500766655748655, 0.9518283218948117, 0.9535958473311764, 0.9553130478117898, 0.9569121478438272, 0.9584308593717785, 0.9599486158474437, 0.961295570530169, 0.9624886388511502, 0.9636907811363463, 0.9648339230217208, 0.9658670520655172, 0.9668183048772059, 0.9676208963337193, 0.9684158011692207, 0.9692118644771749, 0.969822859099618, 0.9703527373903328, 0.9707770766203617, 0.9711462982174833, 0.9713945215116891, 0.9716007289554587, 0.9717208071508465, 0.9718453339737099, 0.971782360777319, 0.9714821377026833, 0.9712775733961944, 0.9709827892736835, 0.9706332345491387, 0.9701562576443363, 0.9696545942779355, 0.9689986695671953, 0.9682611648666319, 0.9674765201938732, 0.9665712066992705, 0.9655488653850961, 0.964488379142777, 0.9633455878246165, 0.9621127331861522, 0.9608070176599677, 0.9593555056976227, 0.9578942087829001, 0.9563480920038048, 0.9547207434575579, 0.9530073999353761, 0.9511854792423312, 0.9493122975828305, 0.9473572034588864, 0.945363694498755, 0.9432422788954077, 0.9410441428168445, 0.938769815041676, 0.9364198436781642, 0.9340612408758632, 0.9315533069032229, 0.928866257876466, 0.9262319050616239, 0.9235215726634174, 0.9207762695763513, 0.917912332005113, 0.9149965902536378, 0.9119902217230866, 0.9089159864532649, 0.9057160446525421, 0.9025154007365839, 0.8992535906596627, 0.8959148729499112, 0.8925098651683093, 0.8890077783316092, 0.885477526179724, 0.8819781613071432, 0.878307569160355, 0.8745802040496057, 0.8707195015020713, 0.8668899382931163, 0.8630249362970775, 0.859074959843032, 0.855069603502666, 0.8509833883203667, 0.8468739380271867, 0.8427720696774642, 0.8385491397194916, 0.8342787623729764, 0.8299006309405321, 0.825545602828029, 0.821190147620908, 0.8167339893339501, 0.8122351316375513, 0.8075962647447368, 0.8030275545622507, 0.7985413715623702, 0.7938683460494881, 0.7891611717009505, 0.7843089638216368, 0.7795498971956664, 0.7748325724431486, 0.7699892690321696, 0.7651160420522626, 0.7602431989925806, 0.7553096765791117, 0.7502687894421517, 0.7452966593616502, 0.7402968310304887, 0.7353427499031338, 0.7302834708531426, 0.7251709139966899, 0.7200795516028246, 0.7149695695056879, 0.7098582740622791, 0.7047131152514593, 0.6994852074318109, 0.694322719598487, 0.6891451774646419, 0.6839384442455368, 0.6787381800320513, 0.6736069567074436, 0.6683770036489315, 0.6631443247229001, 0.6579232278808722, 0.6526865037840841, 0.6474296795513784, 0.642198958080695, 0.6369702194533496, 0.6317818961847856, 0.626556094960276, 0.6212423693043008, 0.6160451089235848, 0.610852138442012, 0.6056067593114153, 0.6004350098104301, 0.5953491189646871, 0.5901815934844574, 0.5850286634074644, 0.5797772433461104, 0.5746715338414725, 0.5696307126247125, 0.5645438228860281, 0.5594756702519299, 0.554502074917033, 0.5494661435907514, 0.544380105620919, 0.5394085146115866, 0.5344609161647398, 0.529535991769901, 0.5246406799515638, 0.519773076293349, 0.5149343957372078, 0.5101258087585044, 0.5054148885122687, 0.5006614371478209, 0.49590787517471463, 0.4912338120676048, 0.48659576897110984, 0.481861709400288, 0.4773150502780852, 0.47284996787466427, 0.4683609641194866, 0.4639094902980941, 0.45947813749546157, 0.4551075897151679, 0.4508167690524898, 0.44652204653656413, 0.4422716352131985, 0.4380635560207615, 0.4339041147535917, 0.4298067458529192, 0.42573816976009843, 0.42171784962813785, 0.41776218587056546, 0.4138377163734813, 0.4099929739081559, 0.40616609469113774, 0.4023919613668998, 0.3986520492902751, 0.3949860303542442, 0.3913507792229502, 0.38779181696675596, 0.38428430748430037, 0.38079949054693035, 0.3773999817362676, 0.3739851865864094, 0.37069702426356727, 0.3674574955651284, 0.3643420737133631, 0.3611934552606813, 0.358018085414727, 0.35499129819199565, 0.35201578064666034, 0.34914545126595825, 0.34626794255827165, 0.34347060507985283, 0.34070263465398937, 0.33799235266483835, 0.3353688129431412, 0.33276966760670657, 0.33024791181217444, 0.3277635658302541, 0.32533823703897724, 0.32288104014522295, 0.3205836421424315, 0.31831746496346425, 0.31612801687348974, 0.31399038047155187, 0.3119580430737235, 0.30991822404384145, 0.3078648553924092, 0.3059445544694631, 0.304075269076533, 0.30231833485163145, 0.30054389135873383, 0.29876846330040246, 0.2971102217674629, 0.2955345427867743, 0.2939735368560787, 0.29246478759700095, 0.2909892461886037, 0.2895860086297361, 0.2883123226791079, 0.2869982885812204, 0.28573780563862766, 0.28438363318835413, 0.28324559014115214, 0.2822269142908056, 0.2811639474473866, 0.28014795825587196, 0.27917037293882874, 0.27824752756875215, 0.27743580154184616, 0.27659331838850343, 0.27579804117908796, 0.2750461458021278, 0.27434216362567265, 0.2736047974539637, 0.27299692035043394, 0.2724263935373659, 0.27187957962743453, 0.27138433247133287, 0.27096169110023327, 0.2705321390686174, 0.2701392269041501, 0.26980873108446973, 0.26948332546917864, 0.2690846518069276, 0.268843381485519, 0.26862962903812165, 0.26851767895837825, 0.2683490604669798, 0.26821146332487883, 0.2681038990707789, 0.2680253836646195, 0.2679430441091897, 0.26792372295250794, 0.26790215463176476, 0.26793414173096913, 0.26798751302300494, 0.2680750034451449, 0.2681677518860613, 0.268201092551147, 0.2683437773670525, 0.26850070054594183, 0.2687487409854874, 0.26892371104995194, 0.26905524889631877, 0.26927226434067647, 0.2695014015532219, 0.2697341189728264, 0.2699867505426112, 0.27031032896677093, 0.27057422550091104, 0.27085004216229575, 0.2711551688043633, 0.27144885907438726, 0.2717492981701818, 0.27206085700885974, 0.27237915608918234, 0.2727295991087815, 0.2730545327916102, 0.2733178388803308, 0.2736595204191887, 0.27399977404981407, 0.274393769205709, 0.2747221617420202, 0.27504496146875296, 0.2753723336849169, 0.27569690027837324, 0.2760149964412303, 0.2763313008920554, 0.2765433927038602, 0.27685948933269733, 0.2771624364613349, 0.277500022620526, 0.2777703930592408, 0.27810434424861563, 0.2783429952494294, 0.2785737072945512, 0.278720821513232, 0.27894141351531077, 0.27922877152067827, 0.27940725938708627, 0.27957385531023404, 0.27967161836172366, 0.27981817544000437, 0.2799624821388584, 0.280070150566363, 0.2801595613394637, 0.2801530367398324, 0.2802138883291709, 0.2802982453434317, 0.28030445292168205, 0.28028909842414396, 0.2802278399468814, 0.28017112184280385, 0.280151370299183, 0.2800383816822513, 0.27990420894803514, 0.27977203212994994, 0.2795902982589094, 0.2793361552963862, 0.27911619413719047, 0.27886997617929926, 0.2786052195099872, 0.2783047210508926, 0.2779564068605625, 0.2776051930192451, 0.2772256567680952, 0.27671405430066004, 0.27629070028178926, 0.2758887338441232, 0.27539020613201254, 0.2748617505029107, 0.274327378784712, 0.2737362947408271, 0.27308493972601744, 0.2724409720574568, 0.27176652754845004, 0.271064384128118, 0.2703289920770239, 0.2695688972519869, 0.2687728516806082, 0.26794719137875705, 0.2671238145103913, 0.26623491300985863, 0.26524646049484146, 0.26431081848583055, 0.26334293812747683, 0.2623884282868335, 0.2613516055561374, 0.2602676600510508, 0.2591761296235445, 0.2580550158599686, 0.25699751702061086, 0.2558060117178806, 0.2544817257060677, 0.2532558237832037, 0.25199899798643144, 0.25077024178183904, 0.2494457215283936, 0.2480286200198732, 0.24666022216016148, 0.2452619956412796, 0.24393555336094477, 0.24246672817019504, 0.2410074150235113, 0.2394895346324514, 0.2379506272617769, 0.23628137175737277, 0.23471323217154397, 0.23316503178552556, 0.2315358492624964, 0.2298830340300745, 0.22813253361597144, 0.2264429798514588, 0.22477727760221067, 0.22302907593427737, 0.22125906409396312, 0.21944649763672971, 0.2176371126000086, 0.2157611129624336, 0.2139152811517789, 0.2120468772711137, 0.21026325147031966, 0.20833932492541732, 0.20638845987271218, 0.2044389476577108, 0.20247517337914733, 0.20043893352879016, 0.1984548711627399, 0.19644089939620382, 0.19442612732827505, 0.1923956644950028, 0.19039028412343642, 0.1883260848985684, 0.18619523882688957, 0.18411692043434655, 0.18202563398784444, 0.1799781605169187, 0.17785674213006192, 0.17568840015625195, 0.17355830978987158, 0.1714197526986172, 0.1693027325632101, 0.1671458309090893, 0.16489930271518272, 0.16274447706052336, 0.16058127307168513, 0.15851187566695468, 0.15632264300001056, 0.15403837917240026, 0.15186271960435918, 0.14968274405876464, 0.14750214740214526, 0.1453162575229685, 0.14321950842406034, 0.1410206062964834, 0.13886709731228225, 0.1366742657260382, 0.1344893715733989, 0.13231492056361455, 0.13014519633661525, 0.12797538230321467, 0.1258224959532916, 0.12367723691333125, 0.12141228367107047, 0.11929920489335546, 0.11719278619928783, 0.11508311441346916, 0.11297776621055013, 0.1110054712286853, 0.10889603471655057, 0.10674285662235292, 0.10467018952549338, 0.10260887448063442, 0.10049829916123529, 0.0984689601356509, 0.09654741156960761, 0.0945255363074856, 0.09252054647169239, 0.09043151763317313, 0.08847331985060741, 0.086521352008837, 0.08458790648108949, 0.08266761248803783, 0.08084906576483858, 0.0789465870990809, 0.07704870736178461, 0.07518933390963008, 0.07334964224974412, 0.07151122039991678, 0.06971383258563403, 0.06790379726673425, 0.06614930164388363, 0.06441298523623808, 0.0626715259813559, 0.060976340266775585, 0.05932357158257163, 0.057663019285671045, 0.05602357296829978, 0.05438432577203778, 0.05279081796002745, 0.05122086582301623, 0.04966926672777006, 0.04813956861033496, 0.046727793941136665, 0.045230795640030484, 0.04378591705714549, 0.04234177331406189, 0.040926198681077164, 0.03950937452648321, 0.03815296293028303, 0.03681664058524112, 0.035511572045153775, 0.034231358184871635, 0.032965318948309494, 0.031736024129695735, 0.030554795245390468, 0.029370834816357702, 0.02821249065101742, 0.02702912799454787, 0.025928005468401596, 0.02479348635507458, 0.02374456155537758, 0.022715494371908812, 0.02178934887152102, 0.020791507124731115, 0.019835841882469188, 0.01888819792952103, 0.017967197574144677, 0.017083116881893033, 0.016213017510553894, 0.015363843346678062, 0.01454651649097755, 0.013754394877492178, 0.013024395176350172, 0.012277116926637417, 0.011556293719564889, 0.010861367643164827, 0.010191824941319925, 0.00941430259517862, 0.008810936408550322, 0.008354395857627171, 0.007768435093329845, 0.007207628114919889, 0.0066235564636486135, 0.006117406541820571, 0.005562994595172852, 0.0051071649364015405, 0.004668081477594722, 0.004373730864404547, 0.003953163695807947, 0.003584063413869497, 0.0032090597015132995, 0.0028587879000089036, 0.002425984236563428, 0.0021358322553042663, 0.0019309040738761329, 0.0016643625189117785, 0.0014179752779004023, 0.0012071365417449108, 0.000997409878090412, 0.0008549879838989688, 0.0006775300894153839, 0.0005210301746757332, 0.00032076825645809817, 0.00021152187123460185, 0.00015693312831289516, 7.200745325537354e-05, 3.657263898818239e-06, 6.560379314700669e-05, 1.4298449098112703e-05, 1.3619073982073326e-05, 0.0, 6.750921474997169e-06, 4.046963304457205e-05, 8.29650924108713e-05, 0.00011863484530446548, 0.0001972791246986285, 0.000289655507469033, 0.0005146959991441616, 0.0006174761240488976, 0.0007601417048898649, 0.0008960189916204876, 0.0010489528793470515, 0.0012521703985360101, 0.001431029289859737, 0.0016067472469323736, 0.0018176920131040104, 0.0020408118622066425, 0.002285962905942414, 0.0025298580067366133, 0.002747262406068675, 0.00301668734170895, 0.003293595460600422, 0.0036814679159523443, 0.003959743342853898, 0.004309333921607518, 0.004604952919633795, 0.004914907720958268, 0.005216731316398488, 0.0055545808215233545, 0.005859866874290592, 0.00622238271503129, 0.0065912942118025114, 0.0070063375774111775, 0.007382633153756716, 0.007881522669622278, 0.008259600098228534, 0.008651677617108692, 0.008987448276815071, 0.00941280351172243, 0.009837144422511287, 0.010277197587286893, 0.010723349106869142, 0.011239301938673129, 0.011689360774407274, 0.012130315936888991, 0.01260119811531313, 0.013079556219642909, 0.013698048795935891, 0.014173914703062679, 0.014565821921910664, 0.015081703302848706, 0.015604259572330654, 0.01614139250496634, 0.01667611095442499, 0.017321490897678888, 0.01785708001635973, 0.01840544440005768, 0.018896669198470124, 0.01947701071126138, 0.02005621090969901, 0.02065131618387594, 0.021253014042842404, 0.02201034123719971, 0.022607024914244125, 0.023126273393667143, 0.023764928092850208, 0.024412178904743953, 0.02510265847340218, 0.02576301256956592, 0.026418299413150412, 0.02710232401261766, 0.027796182819205716, 0.02854519259234739, 0.02925344315825992, 0.029953296907037845, 0.030689822339841348, 0.03143779927113945, 0.0322558533919953, 0.03301983909166028, 0.03381240882051629, 0.03460508063128637, 0.03541342775249184, 0.036208040926266484, 0.037050993424015764, 0.037907690913634016, 0.03877841107292882, 0.03966346020515089, 0.040603036367126484, 0.04151272051693172, 0.04248255536798427, 0.04342218778974205, 0.044289010663190506, 0.04528066308911061, 0.04628706288104937, 0.04740729352543849, 0.04843297099146574, 0.049425273674607896, 0.05050277584895728, 0.05159944667322765, 0.05267591080854005, 0.053817440513041874, 0.05513154710018192, 0.05629127253614887, 0.05747970543942308, 0.058595377510697454, 0.059852698593120805, 0.061121368005978484, 0.06242466647105313, 0.06375068555546123, 0.06510547860612582, 0.06647845892643275, 0.06788723968583671, 0.06930984920242296, 0.07075948125589201, 0.07231639319793773, 0.07381156255803369, 0.07522551735443447, 0.07680115456910049, 0.07840328441464962, 0.0800620867884534, 0.0817162865147272, 0.0834704013581358, 0.08517805534023046, 0.08692151829941697, 0.08862635971953914, 0.09045086795576852, 0.09232839902264589, 0.09421448121309305, 0.09613496518747562, 0.0980797246132662, 0.10007186220507601, 0.10218700043469134, 0.10423920371396331, 0.10633273648544303, 0.10833985051275487, 0.11053171445400715, 0.11282652450252588, 0.11507837698441596, 0.11736994664200076, 0.11974940331853956, 0.12211535182735289, 0.12439181124389818, 0.12686130782683322, 0.12936668817100927, 0.13194892081442258, 0.13452423664041277, 0.13720448043508118, 0.13985452651627436, 0.14255028170060371, 0.1452464940348647, 0.14803920215279076, 0.15097064551782077, 0.15383774629152336, 0.15675400480640014, 0.1596631700905698, 0.16268355985565225, 0.16582063139669795, 0.16892199840755842, 0.1720727206505457, 0.17520862834521111, 0.17846503859937823, 0.18175562468473522, 0.18510328858225433, 0.1884957317177436, 0.19196252558886912, 0.19544180624121224, 0.19898170616180616, 0.2025539729702116, 0.20617432610579042, 0.20979482106533695, 0.21351708952056542, 0.21726320552408673, 0.22107867804442463, 0.22493861252859318, 0.22886198817926307, 0.2328095550252603, 0.23683811570659255, 0.24087424579988076, 0.24495881580486153, 0.24904368824810413, 0.25323029667861446, 0.25749632570059705, 0.2617683960149938, 0.2660874069016188, 0.2704211814304286, 0.2748372445211287, 0.2793135228756302, 0.28381604772519403, 0.2883635734801278, 0.29286014785232073, 0.2975089300609306, 0.30221240039342084, 0.30693707582602386, 0.3117021225672322, 0.3165421637318849, 0.3213837182995784, 0.3262781885059845, 0.3312025330934101, 0.33616885880567826, 0.34125631980335025, 0.3462947754269751, 0.35131677678084355, 0.3564510449454505, 0.3616240924858003, 0.36682463782785457, 0.3720746263907508, 0.3773554993743562, 0.38267796277732685, 0.3880351115375408, 0.3934635565532439, 0.39888355258565217, 0.40422948463321295, 0.40973209492549173, 0.41526156476002296, 0.42088160964427646, 0.42645642170334447, 0.43209040502786816, 0.43772053400284994, 0.44338050960671277, 0.44910907916054094, 0.45482036739005777, 0.4604195697932402, 0.4662048221263868, 0.4720082002243829, 0.477856109155726, 0.48369175795125824, 0.4895727841219218, 0.4954420029119376, 0.5013301226080813, 0.5072202140580746, 0.5131451866519045, 0.5190904819919031, 0.5250438936788492, 0.5310107740661518, 0.5368758352377039, 0.5428810686779468, 0.548962042053438, 0.5549660192218705, 0.5609775850807285, 0.5670515827276158, 0.5730683246618508, 0.5789758349668814, 0.5850212678975546, 0.5910648489907965, 0.5972043975655578, 0.6032301964401595, 0.6091754516772753, 0.6152138034010258, 0.6212462927704402, 0.6272375319407618, 0.6332600974931455, 0.6392721865639474, 0.6452730868261051, 0.6512620108142675, 0.6572673391605592, 0.6632259901680403, 0.6691821995306498, 0.6751121111890768, 0.6810270348572006, 0.686893719902061, 0.6927786300134462, 0.6986267516458342, 0.7044709029697325, 0.7102911080190547, 0.7160943265889468, 0.7218625546432611, 0.7276200870025816, 0.7333318428048489, 0.73901549325428, 0.7445979519482466, 0.7502304898489668, 0.7558030130553317, 0.7613656551537666, 0.7668893353349349, 0.7724132617100941, 0.7778519296300724, 0.7832968696325187, 0.7886508331362062, 0.793966069249181, 0.7991480060435922, 0.8043929386801887, 0.8095893936635955, 0.8147366856158984, 0.8198340716426167, 0.8248276034422362, 0.8298294752401141, 0.8347334293667328, 0.8396294112528744, 0.8444665741325018, 0.8492924697607316, 0.8540049789572259, 0.8585990643061441, 0.8632037651995561, 0.8677484836037318, 0.8722270747865252, 0.8766421153781636, 0.8810301632182004, 0.8853113946443746, 0.8895317238541686, 0.8936844197789984, 0.8977715541940121, 0.9017096547999924, 0.9056728532633451, 0.9096477168824405, 0.9134530276042928, 0.9171889296361521, 0.9208356520500148, 0.9244316295227896, 0.9278846731720827, 0.9313408251907876, 0.9347174900702588, 0.9380914401269287, 0.9412984306230764, 0.944402640508804, 0.9474595441771698, 0.9504367216304594, 0.9533307872062846, 0.9561466853340554, 0.9588354057754771, 0.9614923833324588, 0.9640635666870087, 0.9666231365816869, 0.9690125905272411, 0.9712292909603233, 0.9734645029646422, 0.9756105436815647, 0.9776248546015411, 0.9795977944657048, 0.9815268236587229, 0.9833104435686073, 0.9850053987505485, 0.9866194000385645, 0.9881352366376881, 0.9894983038481178, 0.9908439383195323, 0.9920964293041102, 0.9933171599064811, 0.9943763584366893, 0.9953225734225892, 0.9962063306986169, 0.9969990451076536, 0.9977165958457394, 0.9983250207889056, 0.9988936386016589, 0.9993149232223961, 0.9996484796231999, 0.9997795421286956, 0.9999507299583841, 1.0, 0.9999845416684017, 0.9998735544830116, 0.9996944206604228, 0.999391371065147, 0.9989805851111581, 0.9984964124988518, 0.9979204268908488, 0.997314311110337, 0.9965486163825739, 0.9956881815569468, 0.9947499856526504, 0.9937246804605061, 0.9925965179514757, 0.9913996493777809, 0.9901287896994254, 0.9887561337988844, 0.9872978724310061, 0.9857437673262319, 0.9841168544394083, 0.9823784498647674, 0.9805856545614208, 0.9787076471700905, 0.9766655392959188, 0.9746297175101198, 0.9725572286355965, 0.9703421723872641, 0.9680456669185334, 0.9656978761401733, 0.9632375531564815, 0.9606177947364423, 0.9580144758897374, 0.9553308705201663, 0.9526906312387783, 0.9498351280069152, 0.9468783380798202, 0.9438883517332988, 0.9408278130137848, 0.9375778199601945, 0.9343934327444656, 0.931219047681053, 0.9278755958761856, 0.924465349766853, 0.9209626727971607, 0.9174250416699369, 0.9137661948391644, 0.9101060285883019, 0.9063797467101682, 0.9026873350351512, 0.89882127582765, 0.8949020540195691, 0.8909247203259447, 0.8868931787619239, 0.8827231752623863, 0.8785964066039283, 0.8744876115087504, 0.8702401714717644, 0.8659436712906385, 0.861519324223398, 0.8571376633516915, 0.852705423821054, 0.8482243044520651, 0.843695955922709, 0.8391432479560105, 0.8345225374835894, 0.8298312680415663, 0.8251329406845905, 0.8203943111427388, 0.8156993285082188, 0.8108743206671487, 0.805887986000591, 0.8010180591294447, 0.7961114025825258, 0.7911806145855474, 0.786204974370147, 0.7812945447948215, 0.7762475301689014, 0.7711786882783659, 0.7661021067035119, 0.7609903828824325, 0.7558388759482162, 0.7506936442629482, 0.7455304451513128, 0.7402786403357507, 0.7350919656195521, 0.7299053292890848, 0.7246809282100309, 0.7194424640062862, 0.7142631955657502, 0.7089920014817785, 0.7037045542631231, 0.6984243023475862, 0.6931395646405057, 0.6877769430168837, 0.6824957270455949, 0.6771956945106172, 0.6719067902029815, 0.6666149285242534, 0.6613138185216548, 0.6560220340950055, 0.6507131030173638, 0.6454281572096591, 0.6401467091099373, 0.6349554162333002, 0.6296749705637069, 0.624340982268385, 0.6190954789861493, 0.6138606578341231, 0.6087361890035187, 0.6035142565801958, 0.5982565898005721, 0.593082297608153, 0.5879258685780601, 0.5827617211000307, 0.5776473607876522, 0.5725576568338806, 0.5674824951670049, 0.5624293155449694, 0.5574018534239429, 0.5523955084177448, 0.5474596309982196, 0.5424991245027526, 0.5375683778048814, 0.5325510242611153, 0.5276963310971071, 0.5229224401958055, 0.518112244091843, 0.5133332161222433, 0.508572994489972, 0.5038607313067924, 0.4991975214854508, 0.4945503957709143, 0.48993910999721646, 0.48530592374587056, 0.48077587957910317, 0.47627254607930897, 0.4718140133701074, 0.4673919086415665, 0.4630232250716886, 0.4586750239773101, 0.45433782808503476, 0.45007451151471456, 0.44585116435364947, 0.441764321948832, 0.4376113167313114, 0.43350336320296634, 0.42944601227092477, 0.4254227737969171, 0.4214619054145484, 0.41754772153549596, 0.4135581260671599, 0.40975325827445114, 0.4060897095350068, 0.4023538785014655, 0.39866623369871756, 0.39504017712700573, 0.3914475628696468, 0.3878218241963035, 0.38433815700879315, 0.38089913501784206, 0.3775213772840936, 0.37417156762999676, 0.37087971452585294, 0.36762353538792847, 0.3644158786843648, 0.36129941592790804, 0.3581838394282591, 0.3549839791184969, 0.35198778288013305, 0.34903469443428214, 0.34618136315517284, 0.3433098177471069, 0.34047336827391445, 0.33770031602301404, 0.33497494970812647, 0.33230000018582545, 0.3296698411699812, 0.32705038804979375, 0.3245206812496899, 0.3220366027634437, 0.3196939815975161, 0.3172894444236846, 0.31484845270900763, 0.312556703435336, 0.3103097186486793, 0.3081845567251361, 0.3060172532256616, 0.30382707645301793, 0.3017658362699262, 0.2997479266337866, 0.2978263648262504, 0.29588793833386273, 0.2939952846981621, 0.2921477182995053, 0.2903445726216276, 0.28857988226153636, 0.286864314772008, 0.2852388006458788, 0.2836010419736085, 0.2820070455349905, 0.28040536549444434, 0.27890248195677725, 0.27740592969871813, 0.2759831153627977, 0.2745958945687356, 0.27321484298748183, 0.271901890994005, 0.270717864767611, 0.26945922262156985, 0.26823895913524554, 0.26693915196798124, 0.26580752868428686, 0.2647686806451987, 0.263687037700268, 0.26263800972948204, 0.26165021842455394, 0.26066087431868534, 0.25956837366386915, 0.25866007210295733, 0.25777482706409677, 0.25701920576781795, 0.25616728547295564, 0.2553368442992955, 0.25454392006230653, 0.2537781871267598, 0.25300959604804807, 0.2522995089948627, 0.2516763435637909, 0.25100390996659444, 0.2503570657298056, 0.24963902710744076, 0.249052192738086, 0.24854087280931053, 0.24798052751405716, 0.24744003685880916, 0.24692392830233786, 0.2464201215941302, 0.2458570608856326, 0.24539784141130608, 0.2449505322530904, 0.24460002963825173, 0.2441652682311549, 0.2436694750809008, 0.24327553838557556, 0.24289134541346183, 0.24254847847456065, 0.2421787654553529, 0.2417690331671154, 0.24142598022722764, 0.24108921229166097, 0.2407611181682019, 0.24043573109214522, 0.24009989151602962, 0.2397870957407556, 0.23947804463746958, 0.23923884465597, 0.23892783325239333, 0.2386098905494577, 0.23831230869702055, 0.23801845111393896, 0.2376983085656741, 0.23741329951617754, 0.23711218051393368, 0.23682839459699523, 0.23654261081779376, 0.23628105675558211, 0.23598684792740046, 0.2357229223401315, 0.2354208505255329, 0.23511775375607025, 0.23481279810449743, 0.23450519793137736, 0.23422610581288023, 0.23390700485344557, 0.23358495178421065, 0.23321654439605327, 0.23289139574233172, 0.23257972983928557, 0.23223598144817134, 0.23188495070085316, 0.2314331108852797, 0.23107779126904018, 0.23069525251141682, 0.23031407874054496, 0.22991881285602994, 0.22949646923655673, 0.22907554104669328, 0.2286325154442975, 0.22818457584785543, 0.2277224620682316, 0.22723572291064922, 0.22674709011072583, 0.22635038036737093, 0.22581965452443084, 0.2252807082862965, 0.22472209470079346, 0.22416567684967545, 0.22359023423290478, 0.22301219451799903, 0.22242164982496093, 0.22173583950117537, 0.22112962518953302, 0.22054513690776584, 0.21989798876363645, 0.21923565860230998, 0.21859797857066543, 0.21790013963895405, 0.21722645913507582, 0.21649746103652548, 0.2157568352442186, 0.2148817543290336, 0.21413169323682138, 0.2133377276604709, 0.21255133767064938, 0.21174478765424176, 0.21101975771107478, 0.2101620992060748, 0.20922002868379028, 0.2083458109624231, 0.20745430771909748, 0.20655383549997666, 0.20562775325066196, 0.20470438210436426, 0.20374436315376393, 0.20276988841910426, 0.2018155422714154, 0.20080790046987132, 0.19981179972668514, 0.19877616952127913, 0.19772913702223227, 0.19669165639052555, 0.195618271825781, 0.1944781298393997, 0.19338961203613309, 0.19228648606329835, 0.1911451146716585, 0.19001664712368052, 0.18881195631394881, 0.18766151051919533, 0.1864934828120504, 0.18535930368692127, 0.18415244880463777, 0.1828590021116786, 0.18163752315863402, 0.18040031912453383, 0.17915892397802613, 0.17789155620043737, 0.17672848374999423, 0.17542164566871774, 0.1741098949395887, 0.17268384745532406, 0.17137488279223267, 0.17005653832645284, 0.16872384724708592, 0.16738059065806815, 0.16602734369160546, 0.1646646469817609, 0.16326377513088094, 0.16188737785795518, 0.16061562492022008, 0.15920617247136457, 0.15779479334361698, 0.15636520646630575, 0.15495106357516888, 0.15352800401867275, 0.15210733551989428, 0.15068281890445043, 0.14931039488495979, 0.14787153830399374, 0.14637396479739379, 0.1449417682834819, 0.1435056407907428, 0.14201014580229332, 0.1405743461235661, 0.13922298668002023, 0.13776474890465573, 0.13630727360116252, 0.13474425534598453, 0.13330180610266065, 0.131920741689303, 0.13046075367595192, 0.12900132216654636, 0.1275188320412957, 0.12606445673980027, 0.12466603602876446, 0.12320539634623758, 0.12174902760848093, 0.12031555399544369, 0.11886547237516759, 0.11727204035294626, 0.11585171612424507, 0.11442850982392992, 0.11309403631216067, 0.11165728038986797, 0.11025803005253847, 0.10882868134999257, 0.10740716981458757, 0.10594296639165625, 0.10454345445117125, 0.10310377145660307, 0.10172046302626597, 0.10034054234717979, 0.09903920932828937, 0.09765893624039548, 0.0962139633390561, 0.09486253508391929, 0.09351667328809715, 0.09228598972202232, 0.09093935921351642, 0.0895078441010704, 0.08820016842632297, 0.08689972642591633, 0.08562831421690047, 0.08434120931125401, 0.08307995153716516, 0.08181087360705257, 0.0805530629720362, 0.07934116068133414, 0.07810179220223214, 0.07688123177992051, 0.0756680028879278, 0.0744682557119343, 0.07328981876254992, 0.07211562790486169, 0.07097629596485713, 0.06982649615853972, 0.06869129021287572, 0.06744288137311764, 0.06635236542127451, 0.06526608416941158, 0.06419061091314623, 0.06312362765129967, 0.06207652316539021, 0.061027365406982705, 0.059965404188956184, 0.05894194614306034, 0.05792909437498794, 0.056908778150041875, 0.05592102386915649, 0.0549681544167789, 0.05399980308952537, 0.05304468446798376, 0.05218004677276371, 0.05124213594223585, 0.05026108117048638, 0.049366334482795926, 0.048485127604735896, 0.047590942149078254, 0.04674033527612559, 0.045981635928100874, 0.045145522681683044, 0.044326470005813204, 0.04343628129371876, 0.04266101426567634, 0.04194970552555054, 0.041189666142387685, 0.04044404419392466, 0.03969404889591716, 0.03897906381902367, 0.03831146999224822, 0.03761778487929502, 0.036938842357427656, 0.036186622859528186, 0.03554733775064909, 0.03497015590112786, 0.03434250114471426, 0.03372761656699441, 0.033167918789636874, 0.03257287034470127, 0.03193417039281064, 0.031375689232175, 0.030827855995271214, 0.030349219564186868, 0.029815496419084913, 0.02927725274566878, 0.028773582033357552, 0.028282053647241557, 0.027855576019686204, 0.02738088321646084, 0.02683290380727085, 0.026397496154035367, 0.02597036049368239, 0.02561546003466614, 0.025197295896183265, 0.024719642483607217, 0.024334649446705756, 0.0239570485327649, 0.023592353637620498, 0.02322941527384807, 0.02293841844504633, 0.02258375925178386, 0.02224087393085905, 0.02185873235713237, 0.021544221827758583, 0.021277036977054065, 0.020972387847733198, 0.020677381516694845, 0.020426192584964798, 0.020144997667400983, 0.019887611645595406, 0.019625185692858964, 0.019372895106155957, 0.019087615985996634, 0.01885922840305134, 0.018708709328417943, 0.018483358097520424, 0.018267923488525857, 0.018088293153462116, 0.01788733112855233, 0.017722486743918138, 0.017536529514361805, 0.01736025124561623, 0.017142372518606924, 0.016989579311720647, 0.01693722071872735, 0.016781704050677772, 0.01663605241152527, 0.016451545473185874, 0.01632913558844927, 0.01632585196514583, 0.01619846598636713, 0.016081941090623154, 0.01599911985920682, 0.015898196920673353, 0.015745510924757754, 0.015670144833299097, 0.015599029151065544, 0.015601083692752303, 0.015529222047840487, 0.0154358107719592, 0.015382373486022578, 0.01533378621133091, 0.015342969568956324, 0.01529670182626911, 0.015321476169023952, 0.015281110040365264, 0.015250571856798793, 0.015260853497473099, 0.015243364661518169, 0.015229849643575093, 0.015230803277756595, 0.015239255674332711, 0.015209494608237917, 0.015237159485983172, 0.015324278912504543, 0.01535225287479696, 0.015387185945952469, 0.015471272912514659, 0.015513829211510384, 0.015572917403765431, 0.01563109772619916, 0.0156974045856063, 0.0157953800532613, 0.015873862258114362, 0.016064563614315745, 0.016146718124325214, 0.016226679301918647, 0.016337319770264216, 0.01645891210073471, 0.016545682537410986, 0.016693233463091577, 0.016916867464353506, 0.01706973209533037, 0.01723367023640997, 0.01747207193685629, 0.017649001581116236, 0.017852967671392505, 0.018055066158238334, 0.018270497977991698, 0.01846686770002561, 0.018711610229302, 0.019033176053754406, 0.019290348829957414, 0.019561826631684126, 0.019823325054202142, 0.020125449059639, 0.02045037795588807, 0.02077561592994439, 0.02111389501990107, 0.02148393780695793, 0.021846350170084988, 0.022284470443355922, 0.022668409849314897, 0.0230706042669374, 0.023498728531282664, 0.023935629988877872, 0.024377340284610895, 0.024852024327598702, 0.02534395312862208, 0.025869235576863825, 0.026394173193116786, 0.02693787705797431, 0.02750050950707627, 0.028082281100160734, 0.02867281369799987, 0.029295003406872373, 0.02992065396231415, 0.030584110086055195, 0.03126696286073294, 0.03197245801136024, 0.03269552493523448, 0.0334425379844184, 0.03420839040043108, 0.034996765012672806, 0.03593308998408587, 0.03675225384891809, 0.03750148980898204, 0.038395059244804, 0.0393131538181131, 0.04026429166161078, 0.041232060217452536, 0.042239716004289184, 0.043259472453237253, 0.04430751958578162, 0.04549585490579798, 0.046587500865519146, 0.04765639251686847, 0.048826380552925056, 0.05002795819916937, 0.05120021436172647, 0.05247339134917261, 0.05382598970511924, 0.05515144257044717, 0.056510244061468276, 0.05786286758293303, 0.05929444625852846, 0.06084591890306543, 0.06233149675138139, 0.0638555826703596, 0.06541015855978491, 0.0670121980654355, 0.0685965351157939, 0.07028204218420325, 0.07200294322989186, 0.0738768857769908, 0.07565587974396655, 0.0773725565982026, 0.07925266511018826, 0.08117026641720503, 0.08307026368489225, 0.08507202235127331, 0.08716068911420319, 0.08922995464190078, 0.0913405213822602, 0.0935965455673671, 0.09577810062240151, 0.09794975637137016, 0.10023546127942476, 0.10256577093388107, 0.10497016814495018, 0.10738674343504821, 0.10991146336795021, 0.11241437914313232, 0.11496784926023684, 0.11752895795657302, 0.12018782423968348, 0.12290456205330903, 0.1256567441775835, 0.1284571377933338, 0.13123942170528183, 0.13414502754104302, 0.13704504284057537, 0.1400475520772933, 0.14309348660296864, 0.1463087604898027, 0.1494286496053574, 0.15247144875728216, 0.15571380040178992, 0.1590014616281094, 0.162332622632329, 0.16571368692926608, 0.16928037877411287, 0.17273942194265418, 0.17625477794823452, 0.17982845146478013, 0.18345421133039114, 0.18714531731779055, 0.19087868559748986, 0.19466646408471658, 0.1983593558499004, 0.20227343617002844, 0.20632003802545135, 0.21031352686278798, 0.2143583708555005, 0.2183774340037357, 0.22253453929673672, 0.22678629698888558, 0.231031502703583, 0.23532716362054856, 0.2396413535680687, 0.24404182958069884, 0.24857317796849818, 0.2530603425033307, 0.2576008403536266, 0.2622471980391606, 0.266885790021837, 0.2715523330009161, 0.2763023759657644, 0.28110359749811215, 0.2858623635918532, 0.2907758970248094, 0.295853238112578, 0.30084028130409024, 0.3058785992282719, 0.31089022606093764, 0.3160382207075841, 0.32124393778450033, 0.32647899161725863, 0.33175892736124196, 0.33703027369483, 0.3424057207391036, 0.34786988385032525, 0.35332107341934094, 0.3588158247742231, 0.3643456717688083, 0.36992705857793096, 0.37554737065331134, 0.38121177842148674, 0.3869166327433865, 0.39264282035361825, 0.3984293672004909, 0.4042324506947177, 0.41009684893167503, 0.41599694229775974, 0.4220254083877961, 0.427984041697219, 0.4339186054433095, 0.43996348636510874, 0.4460420506156921, 0.4521137834113409, 0.4582627825550724, 0.4645023310969404, 0.4707020386064265, 0.4769337257988203, 0.48311930162711464, 0.4894216528889518, 0.49573002743736133, 0.5020836078216528