0.12841386763625343, 0.12728297223798005, 0.12615998964299174, 0.12505737066691672, 0.12383481270133276, 0.12278178045021602, 0.12184881694490775, 0.12079016512443444, 0.1197413681015865, 0.11848386890949106, 0.11747804087251909, 0.1165680235932433, 0.11553802326148988, 0.11450936707903436, 0.11357061688590145, 0.11253336414897178, 0.11129421689956233, 0.11029532627970595, 0.10928994809897795, 0.10843441507753043, 0.107400157003957, 0.10634058083009747, 0.10532133840666452, 0.10430552704666746, 0.10322233874779822, 0.10222260129951598, 0.10129348468698794, 0.10028494935834217, 0.09928145294626105, 0.09830958360427967, 0.09731284221841333, 0.09632713578014393, 0.09534288617339158, 0.09436521380852989, 0.09334083482202932, 0.09238271272374181, 0.09132602555907543, 0.09038784880338449, 0.08944805044580142, 0.08849006712527833, 0.08755261172970963, 0.08653146536541557, 0.08560657274081483, 0.08467922753037539, 0.08393248335898902, 0.08298132415608542, 0.08205492202855838, 0.08112449175978052, 0.0802052829028239, 0.07928791152890802, 0.07839075672398473, 0.07749407333853127, 0.07661641951115424, 0.0757470724118997, 0.0746688089030742, 0.07384313190598142, 0.07320816557848611, 0.07235106731178804, 0.0715038310670865, 0.07050226391453504, 0.06969469661936065, 0.0689180879967847, 0.06810763230615136, 0.06730100603703616, 0.06649440940459772, 0.0656978143232073, 0.06504823222248438, 0.06424465248838543, 0.06345512123942779, 0.062457326049075765, 0.061721603190888256, 0.06119803687177354, 0.06043567448032406, 0.05968708921969961, 0.058778753113076364, 0.05807742258692225, 0.0574047849099385, 0.0567052108579269, 0.0560109274256593, 0.055419887572441255, 0.054725264104081496, 0.05413130313610299, 0.05344914141903409, 0.05278317137999046, 0.05188424696548066, 0.051279018658942827, 0.05095241682218125, 0.05031224929860096, 0.04968974960465986, 0.04888877861241896, 0.048322802980198136, 0.0477869795138863, 0.04722557404952169, 0.04667073244033571, 0.04622034690862348, 0.04566754686603854, 0.04497731248684226, 0.04446948380760037, 0.0439655316751171, 0.0434751869886103, 0.042980381137464496, 0.04256759198840903, 0.0420771993562308, 0.04159873695610695, 0.04128264135693812, 0.04080843589490975, 0.040336379790907075, 0.039902816033843005, 0.03948561602853263, 0.03892441011513817, 0.03855758547222988, 0.03839081332770361, 0.03801030192195234, 0.03764721978940243, 0.03727399858723219, 0.036946308661687834, 0.03645476694767934, 0.03617578687927557, 0.03589945368522145, 0.03581740301234686, 0.03552554929403064, 0.035245637215353225, 0.03498634615243076, 0.034741790872260356, 0.03452030673415863, 0.034302598635985566, 0.0341785006777243, 0.03397803498409976, 0.03379516061742609, 0.03366881720808226, 0.03351341065574055, 0.03327793139332209, 0.0331687212109456, 0.03306973309426102, 0.03295006554944148, 0.03287577848606564, 0.03286790828554842, 0.03280434991180232, 0.03275354372851997, 0.032945704031706824, 0.0328908177366824, 0.032688427871906775, 0.032704005714570716, 0.03273153486217259, 0.032899413659353775, 0.032934386148844357, 0.032997216101287107, 0.033068017652788585, 0.03315636849095722, 0.03319054010965999, 0.03332054389875501, 0.033453081363574354, 0.033607047502449014, 0.03377203137505695, 0.03414311568548418, 0.03430593492873905, 0.034575331845925844, 0.03477088851518055, 0.03499091508720117, 0.035034308763265874, 0.03532350101036544, 0.03585624645667835, 0.036133743237127036, 0.03643413237308181, 0.03676925673040684, 0.03710961140681253, 0.037359096740070964, 0.03775222892661086, 0.03815718513022293, 0.038711489744016406, 0.03912329719384552, 0.03946219093806996, 0.03992511698494793, 0.040401303694143666, 0.04089530224787715, 0.0413978290795253, 0.041989588094574586, 0.04251054911527566, 0.043049910214042524, 0.04367809191814046, 0.04424397774266953, 0.04476019491056416, 0.04537665452349258, 0.046008834484369515, 0.04659026405900147, 0.047262265803322386, 0.048039323212149265, 0.04872418637441753, 0.0494274115921603, 0.05002025939348882, 0.05077571931046876, 0.051577128623414556, 0.052350018652996426, 0.053137102847833094, 0.05390336574942019, 0.05472455460823616, 0.05576732026329627, 0.05658947255654991, 0.05743776569179836, 0.058133767069940286, 0.05905323747816602, 0.060180612141889904, 0.06110198986623452, 0.062039577225654216, 0.06301113598509527, 0.06400524844887712, 0.0649990213418356, 0.06603892186522352, 0.06716023667631182, 0.06823079574848928, 0.06932372124367842, 0.07048264064508067, 0.07161277538056507, 0.07264199060758059, 0.07383331797782519, 0.07503943091836626, 0.07621649691928398, 0.07745916409641604, 0.07876418652381154, 0.08002867627725539, 0.0813109341019484, 0.08262889602897404, 0.08394508360414801, 0.08529393891923988, 0.08664724246824808, 0.08802076286050302, 0.08939673045306681, 0.0908127990195149, 0.09227901176117827, 0.09372956783648607, 0.09520128062979309, 0.09667188411798051, 0.09818839366981885, 0.09983973654170775, 0.10138110630981252, 0.10294884975078841, 0.10450672531064431, 0.10612941146974053, 0.10766365000489785, 0.10934474673610396, 0.11104155508467253, 0.11271053206137872, 0.11444656901659502, 0.11616244587379108, 0.11793443378759487, 0.11972142164066915, 0.12163515992629391, 0.1234410019700162, 0.12519094362688243, 0.12705433418517517, 0.12893666700307255, 0.13081624843140433, 0.13274057862568373, 0.13468823315109893, 0.1366502600562724, 0.13863230028402712, 0.1407011146563724, 0.1427156485994301, 0.14483444751684998, 0.14688757822118803, 0.14896901754280875, 0.15102909405480752, 0.15317060522922152, 0.1553927811027721, 0.1575728975484953, 0.15977883984334212, 0.16205868356243214, 0.16430822524559136, 0.16649598836494323, 0.16880956289968083, 0.17114344954398658, 0.17335153954243832, 0.17574480716709442, 0.17827892631460704, 0.18068195075444143, 0.18310691994929584, 0.18540313910180725, 0.18789085313311593, 0.19052921292145758, 0.19302732731558161, 0.19554861166431556, 0.19799536285022995, 0.2005746153065376, 0.2031443164190183, 0.2057615739312555, 0.20839544792533674, 0.21123707002194828, 0.21388187692490493, 0.21640053002935697, 0.21912158551255598, 0.2218606212520687, 0.22459578417451823, 0.2273744172301873, 0.23016164936987799, 0.23297663611990876, 0.23580914653718293, 0.23865057799444397, 0.2415199664050875, 0.24452215864573862, 0.24741237151935294, 0.2503269235463839, 0.2530921591529113, 0.2560746846878972, 0.2590827253299066, 0.26208872320864585, 0.26510897848323495, 0.2682368936608025, 0.27127491255543823, 0.27431996779899387, 0.2773997065019635, 0.2804978260469984, 0.28351640816932433, 0.28666226929640093, 0.28990832466131333, 0.2930665203548459, 0.29624191062257604, 0.2995048598724317, 0.30270413099177085, 0.3059053379435825, 0.30914511665085975, 0.31240154587815994, 0.3154922343717973, 0.3188027331676795, 0.3222682117235275, 0.32556920381265114, 0.3288845313132415, 0.33207620223787837, 0.33543563612288696, 0.33882197262850383, 0.3421886334675036, 0.34556222138487197, 0.3488985548049998, 0.3522918870696577, 0.3557961313466476, 0.359185459694372, 0.3625857806058192, 0.36594315501439734, 0.36936988072364063, 0.37293969850739744, 0.3763602822859141, 0.37979372737420797, 0.3829993448517226, 0.3864845118642345, 0.39006696651719847, 0.39353079349111036, 0.39699709407445954, 0.4003724690951087, 0.40385436142674475, 0.4073854923224535, 0.4108531134214483, 0.4143202787673966, 0.41773347713116044, 0.4212053682011829, 0.4246283520397875, 0.4280966015036107, 0.431557606510522, 0.4350646918416625, 0.4385048568950704, 0.44208711887775953, 0.44550002280825485, 0.4489158621854855, 0.4521689197839112, 0.4556060929744191, 0.4590851406946246, 0.46249287570521136, 0.46589195858065774, 0.46915321047523106, 0.47254912885540157, 0.4759536521769499, 0.4793105748198532, 0.4826515185311518, 0.4860073500115228, 0.4893118978486964, 0.4927433076423431, 0.49599950354582417, 0.4992474998421284, 0.5023304368177377, 0.5055763641009795, 0.5087560429239468, 0.51196345982075, 0.5151459380729306, 0.5184053870554396, 0.5215250451069634, 0.5244879013970893, 0.5275849321924216, 0.5306526892027562, 0.5337222811987804, 0.5367277490964397, 0.5397499570218821, 0.5426942468108923, 0.5456125109580647, 0.54864562269007, 0.5514912284463361, 0.5543028081175657, 0.5571066131894828, 0.5598850663606867, 0.5625302242230102, 0.5652666804722105, 0.5679894442883665, 0.5706509538780856, 0.573276923534788, 0.5758799640819288, 0.5784311366087155, 0.5809144730570245, 0.5833951420872844, 0.5857338124438926, 0.5881466653386112, 0.5905126873111892, 0.5928188764550164, 0.5950936683902941, 0.5973701484473616, 0.5995447709542668, 0.6016751522787073, 0.6037253583613749, 0.6057702357205389, 0.6078692251659645, 0.6098053705271415, 0.6116988411530753, 0.6135750252067274, 0.6153762674751777, 0.6171506521229964, 0.6188592657852184, 0.6205219125267201, 0.622132939276066, 0.6237006282348295, 0.6250901999511284, 0.6265739015451507, 0.627998904001473, 0.6295116004563117, 0.630801221614148, 0.6319122266126316, 0.6331166297098756, 0.6342614009058827, 0.6353598520381578, 0.6363836909715653, 0.6373086876958788, 0.6382194085988094, 0.6390684604089095, 0.6400685601077416, 0.6407675200053837, 0.6414079200716862, 0.6420068174754477, 0.6425521287763217, 0.6429937504309711, 0.643434081693172, 0.6437257857014816, 0.6440566862564815, 0.6443214680357215, 0.6444096055423506, 0.6445568106785802, 0.6446322634740711, 0.644636980846895, 0.6445718424447557, 0.6445350721391747, 0.6443200611770306, 0.644157809927492, 0.6438030629064214, 0.6433917451245046, 0.642798614532638, 0.6422863981253942, 0.6417960804332568, 0.6411394339677503, 0.6404214134361215, 0.6394819762148721, 0.6386597975756608, 0.6378987799340613, 0.6369172510083748, 0.6358732390989984, 0.6347797377813419, 0.6336082458070151, 0.6322635385315941, 0.6309808953137127, 0.6296291598848549, 0.6283065676124978, 0.6268065732354504, 0.625262820508011, 0.623637462754194, 0.6219513537355356, 0.6202087359201445, 0.6184000721576908, 0.6165084001312626, 0.6145808001147584, 0.6125911151091871, 0.6105529103721873, 0.6084382296871653, 0.6062188235738144, 0.6039891579431321, 0.6016971406240322, 0.5992548583161261, 0.5968514105390861, 0.594356110730023, 0.5918268680093721, 0.5892335406800725, 0.5865775539475393, 0.5838602345941653, 0.5810783919220358, 0.578242609471169, 0.5753487435462756, 0.5725352063162987, 0.5695109720057213, 0.5664039818201051, 0.563289430171478, 0.5601253364314694, 0.5569828991415025, 0.5537117540129892, 0.5504050068727308, 0.5470437148503662, 0.5436383716759283, 0.5400428286599269, 0.5365681296139168, 0.5330150583144243, 0.5294416594164684, 0.5258179537228862, 0.5221411223474177, 0.5184221197698871, 0.5147679293036949, 0.5109444710893616, 0.5070841041213764, 0.5032360023585716, 0.4992970442335338, 0.49514821564352246, 0.4911665800775921, 0.4871429063686854, 0.4831632189843952, 0.4790502786161704, 0.47504263991181206, 0.47084918080406674, 0.46663325389361837, 0.46236370175244607, 0.4581064789155632, 0.4536212666186601, 0.4493419451667637, 0.44502812390667384, 0.44084604533500943, 0.4364493267954551, 0.43196742409427036, 0.42754228471573535, 0.42309602212191294, 0.41857233439360264, 0.41409496972062604, 0.4097255644968104, 0.4051926341437357, 0.40064976337865627, 0.3960930798094398, 0.39153263610371825, 0.38687528576935204, 0.38231023881282916, 0.37773355744487097, 0.3730848180209998, 0.36849746295295727, 0.3638774998468684, 0.3592739962291563, 0.35466262039945273, 0.35021367552111976, 0.34557102012311247, 0.34076271206623676, 0.33615647737807813, 0.3315483979984386, 0.32698465459540915, 0.3223728185909811, 0.31791760168135885, 0.3132999517000953, 0.3086992242170242, 0.3039559182939259, 0.2994092988301641, 0.29502162036189283, 0.2904741934577972, 0.285946698006553, 0.28138181910654786, 0.27690240043655073, 0.2723831977110855, 0.26794767681544435, 0.2635287341041993, 0.2592474621129932, 0.25485092158101574, 0.25046864999517254, 0.24612927549027866, 0.24181752349012187, 0.2373302170214512, 0.23310137442817502, 0.228917280847725, 0.2247237845894976, 0.22055451756374908, 0.21641573292413066, 0.21229971208249052, 0.2084348014888235, 0.20435141845342025, 0.20031288670325537, 0.19613264163904406, 0.19220601127744685, 0.1884633713883882, 0.18458581668351734, 0.18075279690096047, 0.17684915893352837, 0.17311995843579261, 0.16952220193845655, 0.16585922804810685, 0.1622421720617455, 0.15862261002932834, 0.15510451894827548, 0.15170153535584202, 0.14826372818658123, 0.14487569868420544, 0.14155534858216257, 0.13826522079584258, 0.13493793018367475, 0.13176204656126228, 0.1286329863276816, 0.1254985332075274, 0.1224726257821994, 0.1194976590114718, 0.11656542029542093, 0.11369997451783057, 0.11086461132796772, 0.10808117491552979, 0.10530159808152277, 0.10263011929154311, 0.10020459934375485, 0.09761142419626685, 0.09508191957476103, 0.09243802430119792, 0.09005583373780837, 0.08769856679324993, 0.08542362543330319, 0.0832003529102929, 0.0811891398117289, 0.07905162641037275, 0.07683976609996743, 0.0748449113786188, 0.07290403015728696, 0.07102209925458233, 0.06919016202020126, 0.06759991855126142, 0.06585597883514238, 0.06417860726434314, 0.06263735983197856, 0.06108030950694237, 0.05951046150488502, 0.05809585159942101, 0.05674080271847629, 0.055395995717073314, 0.05416452354074395, 0.05282877168406211, 0.05172782110776122, 0.050672976934253745, 0.049727436529533105, 0.04876030068555909, 0.048049536344347527, 0.04716196291786819, 0.04633867690383639, 0.04553819431074755, 0.04484382831648105, 0.04417163330138385, 0.04359605342299468, 0.043074310285153454, 0.04245081084007816, 0.04205475554721634, 0.04189718583082057, 0.04156431107848614, 0.04128721902869019, 0.040874263813216564, 0.04072945882926121, 0.0407283950289916, 0.04065494891702662, 0.04063002558445031, 0.040622063816824136, 0.040696437335274, 0.04085132152495516, 0.04101098533698227, 0.04121692591657342, 0.041397510763467996, 0.04170271634422063, 0.0421099770651224, 0.04248719914130115, 0.04290744792916073, 0.04332556757610391, 0.043834908950141596, 0.04454171134586549, 0.04510631864163802, 0.045716782523688056, 0.04622059130676261, 0.04693628934965168, 0.04770181393655549, 0.04847913449761863, 0.04928879609725973, 0.050201071669305306, 0.05106458161479599, 0.051975763134480685, 0.052905075740353996, 0.05386700286438019, 0.054811510268941405, 0.05584097456543382, 0.05683453327659035, 0.05792329989750906, 0.059033135907148454, 0.06017259640830676, 0.06132246049410533, 0.0625237722998124, 0.06371000864440605, 0.06491721996731858, 0.06626411154296896, 0.06749540459956606, 0.06859214185554173, 0.06989158449622512, 0.07120335503674227, 0.07256694414732147, 0.07389711974645354, 0.07537344154193364, 0.07671241453442619, 0.0780703355022534, 0.07941867512832974, 0.08081214134746051, 0.08223532313168719, 0.08364916166201397, 0.08507330950187224, 0.08628930026199247, 0.08775744657152014, 0.08935713573032973, 0.09079689470218227, 0.09223954656821512, 0.09363995114401807, 0.0950914862087457, 0.09656751989280536, 0.09801106829025619, 0.09945307007119956, 0.10099468079886993, 0.10241848024023968, 0.10372903750472048, 0.10516973282265803, 0.10660289373357662, 0.10812112192075439, 0.10952611890277321, 0.11099830503458293, 0.11238569495709456, 0.11377093797400406, 0.1151523589300712, 0.11652841886005277, 0.11782681808959128, 0.11919698738208066, 0.12055390261744667, 0.12202550806075015, 0.12333808206285042, 0.12441267765539345, 0.12573765078457036, 0.12703918464279643, 0.12835331723374752, 0.1296051638336577, 0.13088131934359143, 0.13208757861801157, 0.13327628901040783, 0.13461093212183514, 0.13574250956894204, 0.13674040031651816, 0.13786666060028238, 0.13897304549362965, 0.14014333777488555, 0.14119817213283145, 0.14232091855009701, 0.14333157849757247, 0.1443287959984238, 0.14522248568104448, 0.1461997557904669, 0.14718568577235525, 0.1481140339617661, 0.1490212187071064, 0.14981816666950892, 0.1506928912407323, 0.15162887399751757, 0.15243812351727612, 0.15322580729707266, 0.15406687999356078, 0.1548008867210445, 0.15543246860698318, 0.1561398168516632, 0.15682270578704785, 0.1575166814994134, 0.15814649743704917, 0.1587719224260998, 0.15935513778542837, 0.15991701354782792, 0.16060799697906278, 0.1611076587487825, 0.16165165474753732, 0.16211628818944507, 0.16256863844967198, 0.1628213200273429, 0.16326891224062487, 0.16377908430182975, 0.16416420071505633, 0.16452979940180187, 0.16507526636496647, 0.16537675826220866, 0.1656967707854244, 0.16597738847957805, 0.16624890586655594, 0.16632855276476088, 0.1666016832296214, 0.16684837293083166, 0.1670789970603441, 0.16728925581125725, 0.1674889695825273, 0.16766023725324827, 0.1678942045346197, 0.1680221308750558, 0.16813914588303444, 0.16837390627089813, 0.16845346051224058, 0.1683661375332941, 0.1684598482073822, 0.16854026848966253, 0.16886092878903833, 0.1688858313182584, 0.16888356341493924, 0.16891899730625903, 0.16888816996310252, 0.1689320222763654, 0.16897175920262925, 0.16894139687067034, 0.16898278093540808, 0.16908879967545362, 0.16910989374935279, 0.16913103841639615, 0.16919266404888456, 0.16921059073884498, 0.16913515404886198, 0.16917397874930046, 0.16921224502903257, 0.1694638961382161, 0.1694779840376656, 0.16946289495092953, 0.16951230607936857, 0.16957347666413966, 0.16967758769309813, 0.1697589642176472, 0.1697483133815469, 0.16987192527993286, 0.1700043545770496, 0.1702531664677012, 0.17039347410223524, 0.17062751777692203, 0.17079545256969556, 0.17098673461786187, 0.17110818726496868, 0.17135764653921484, 0.17164736743042444, 0.1719312291931669, 0.1722364157076235, 0.17262133410920857, 0.17296435024185808, 0.17317050521439706, 0.17358877303903525, 0.17402578038645727, 0.1745055287787801, 0.17498265200175617, 0.1754539673263911, 0.17598678029620204, 0.17654571111171907, 0.1771632536397303, 0.17777485629929432, 0.17848939095590788, 0.17915711545419252, 0.17986280894091325, 0.18069099727924348, 0.18146307536821835, 0.18217268308808837, 0.18304569705814047, 0.18395626704900073, 0.18491409454228833, 0.18590115991425668, 0.18699962962430192, 0.18805948524623825, 0.18916525726607591, 0.1902816286623417, 0.19148415135026053, 0.1927488723229301, 0.19403867787919973, 0.19537509809907416, 0.19672312361432445, 0.19815857093400144, 0.19951594214915983, 0.20105977659785332, 0.20264410777434433, 0.20437695953822102, 0.20603377795029842, 0.2076176578843754, 0.20939280322673606, 0.21121292967611718, 0.2133009481163878, 0.21518707966320244, 0.21701922689498174, 0.2190415714430196, 0.2211172552186319, 0.22330869124869354, 0.22548435543605946, 0.22759832184547837, 0.22990477614350277, 0.2322621277862204, 0.2346092133230555, 0.23707869379546226, 0.23965107171925507, 0.24221440470232575, 0.24483253472623484, 0.2476122119845445, 0.2503277016580156, 0.253025305493074, 0.25587400064188115, 0.258778945021071, 0.26160738304332937, 0.26464205594436613, 0.26784992345348374, 0.270968323950216, 0.27414490873782243, 0.27746809432371256, 0.2807492634520455, 0.28389805020149145, 0.287328028823054, 0.2908078138704343, 0.2945020943857955, 0.29806293312499815, 0.301569495136488, 0.30526579466609394, 0.3090147475609686, 0.31295823327429567, 0.3167948269180191, 0.32062570030465604, 0.3245909408612154, 0.32861082366956135, 0.33259178363235503, 0.3367311283565631, 0.3410467852669164, 0.3452657660143111, 0.34954012096645404, 0.3536428978848312, 0.35805359376083246, 0.36255725360711794, 0.36704175166275865, 0.3715706821368909, 0.37617960397317085, 0.38079315520156737, 0.3855151744781554, 0.390213293909673, 0.39496033351783477, 0.3996311722258097, 0.40448853776159643, 0.4093625454528437, 0.4143002706312448, 0.4192753758098193, 0.4243719693655128, 0.4294108727643065, 0.4345046301819969, 0.43962391705521897, 0.44478338524455197, 0.4498489497405826, 0.4551020672187351, 0.46046858185068074, 0.4657694150699329, 0.47110389865640223, 0.4764710294990642, 0.4818697838106077, 0.48729911886395766, 0.49275797456240095, 0.498245274858709, 0.5036668923738423, 0.509219558429203, 0.5147832732826821, 0.5203764958667552, 0.5259882609673682, 0.5316402097016641, 0.5372846333440725, 0.542893873414232, 0.5485800336599592, 0.5542792518473292, 0.5600396530225417, 0.5657569092817741, 0.5715587546220623, 0.5772932110770215, 0.5830428422679514, 0.5886817537268295, 0.5944719396423314, 0.6002339588383004, 0.6060330679016359, 0.6118318245581333, 0.617682801538841, 0.6234722635552709, 0.6292888905110215, 0.6350748833534522, 0.6408603876567611, 0.6464976881439409, 0.6522961710516836, 0.6581301953482416, 0.66389583797697, 0.6696503025551623, 0.675428095178699, 0.6811528563473038, 0.6867724187549004, 0.6924832457718632, 0.6981739399856007, 0.7040476656005931, 0.7096703450167563, 0.7150961000845002, 0.7207180890047058, 0.7263138947478307, 0.7319846627884051, 0.7375128951941032, 0.7429163134056778, 0.7484098420022205, 0.7538712833491927, 0.7593175304024861, 0.7647100177963513, 0.7700200388714434, 0.7753501086379172, 0.7806414653610457, 0.7859465181314671, 0.79115140308124, 0.7964067288437772, 0.8015227411366875, 0.8065453038131764, 0.8115948659952897, 0.8166014028470772, 0.821342041181369, 0.8262864921240978, 0.8314151692719214, 0.836210440580167, 0.8409607735733466, 0.8454118260906652, 0.8500988556397543, 0.8549475345942639, 0.8594778649994435, 0.8639573217704077, 0.8683974998325049, 0.8727685235822924, 0.8770181196875212, 0.8812860290550698, 0.8854921752415951, 0.8895958046894029, 0.8936808270469224, 0.8977479517308229, 0.9016930055476057, 0.9055730425430703, 0.9093383353964668, 0.9130915457718913, 0.9167342305994572, 0.9203506544808858, 0.9238931203407588, 0.9274278398049056, 0.9308132044999052, 0.9339679666610187, 0.9372303570385543, 0.9404108837204408, 0.9435276975516858, 0.9465434174324042, 0.9495855166892155, 0.9524278454965318, 0.955196023056153, 0.9578402841922575, 0.9604632826399467, 0.9629001408521207, 0.965376481388458, 0.967766091585751, 0.9700959381811995, 0.972309782583618, 0.9744392592935816, 0.9764842800638439, 0.978444719306673, 0.9804489004417827, 0.9822234425251402, 0.9837074287858791, 0.985351815347616, 0.9869040047597857, 0.988564061786657, 0.9899086457662394, 0.9910543988204821, 0.9922544995793547, 0.993366439491546, 0.9945275872879559, 0.9954459215672217, 0.9961819771363177, 0.9969513483391851, 0.9976325931631626, 0.998145972294456, 0.9986610841811228, 0.9991013898708183, 0.9994299105810467, 0.9996682478246555, 0.9999586235076755, 1.0, 0.9999338541667266, 0.9998159639947631, 0.9996142793236883, 0.9991645977765341, 0.998815291787514, 0.9984920157926351, 0.9979416829165351, 0.9973069280470032, 0.9965657339276056, 0.9957653848340268, 0.9947558607705509, 0.9938013868476034, 0.9927557288560137, 0.9917399802708002, 0.9905011497718151, 0.9891863997215606, 0.9877865425296437, 0.9863070984482059, 0.9845844371514239, 0.9829674657378036, 0.981338036247167, 0.97953773930349, 0.9776572605150375, 0.9756000395853567, 0.9735742184922882, 0.9716337567850731, 0.9694223039124704, 0.9671404784203945, 0.9647529242378138, 0.9623351802041719, 0.9597436893985227, 0.9571957420188647, 0.9545714852377258, 0.9520363388670965, 0.9492431632307827, 0.9463694520585366, 0.9434528866366192, 0.9404726269925255, 0.9373714467881866, 0.9342722660439842, 0.9310809204377295, 0.9278549931382252, 0.9245641148735882, 0.9211608383560076, 0.9177500590136028, 0.9142931185750885, 0.9107539624912483, 0.9071551156968242, 0.9035068117782321, 0.8997915529871501, 0.8960122755099986, 0.8921890466791226, 0.8883126045742322, 0.8844373930609971, 0.8804516288821651, 0.8763396899686344, 0.8722719675360914, 0.868155020349843, 0.8640169755831025, 0.8598028130346599, 0.8556118903559613, 0.8513041192569668, 0.8469593085742104, 0.842396503593764, 0.8380027101833979, 0.833648115683889, 0.8291560549360472, 0.8246282691587167, 0.8201414773029728, 0.815536907961353, 0.8107765091817588, 0.806134222992975, 0.8014589149124772, 0.7966727255016053, 0.791947035297903, 0.7871582630047933, 0.7823746644733219, 0.7775617380276613, 0.772770513491248, 0.7678995155201922, 0.7630792835488176, 0.7581606025556321, 0.7532287608106278, 0.7483067544606131, 0.7433483523153741, 0.7382344483423746, 0.7332766723530869, 0.7283029221569847, 0.7233772250217297, 0.7183695833879481, 0.7132931144571389, 0.7082809150612103, 0.703260824832737, 0.6983585611208158, 0.6933119343891702, 0.6881672652863435, 0.6831416949835374, 0.6781152548765667, 0.6732222648652292, 0.668181466054061, 0.6630184442215602, 0.658016037610209, 0.653017385396802, 0.6480018034958053, 0.6430178083698135, 0.6379829724300999, 0.6330212586997795, 0.6280659862128524, 0.6231455667055588, 0.6182051925044793, 0.6132557606477312, 0.6083456814049394, 0.6034500065507619, 0.5986454226159471, 0.5937730763659657, 0.5889099763828449, 0.5840849550651339, 0.5792828860663953, 0.5744158790064636, 0.569673067034099, 0.5650877263050331, 0.560369243698203, 0.5556813728644052, 0.5508824997490506, 0.5462743064604892, 0.541747007610292, 0.5371795922374951, 0.5326415280094178, 0.5281380500956626, 0.5236605158386193, 0.5192769413206549, 0.5148561285666324, 0.5104720990252499, 0.5060319732361213, 0.5017337878304867, 0.4974323170664007, 0.4932039445393791, 0.48904315134277415, 0.48487574605908, 0.4807447234389478, 0.47660649176535685, 0.47255592619714076, 0.4685545527015604, 0.4645750520214948, 0.46063400339086336, 0.4567099354485067, 0.4528505762098173, 0.44898599903156927, 0.445211112826337, 0.4414741600786983, 0.43785581341313773, 0.43418732421556716, 0.43047512212774375, 0.426907628057375, 0.42338006649500426, 0.41987543458128435, 0.41643204388872573, 0.41316682390375836, 0.40978834455201874, 0.4064595457247948, 0.4030335724635371, 0.39982072019445125, 0.39666971757237907, 0.39353415399171315, 0.3904408169937786, 0.3873280034290768, 0.38432786213773, 0.38142926993417714, 0.37850098094816637, 0.37561687640249225, 0.37292752114974986, 0.3701125137263601, 0.3671239150685844, 0.3644408251456193, 0.36179481622392734, 0.3591378497150201, 0.35657412367884533, 0.35403317207298324, 0.351543999091099, 0.3490914849400318, 0.346778099912994, 0.34438760736301144, 0.3419876642759929, 0.3396907138447916, 0.3374332842751058, 0.33543228883123394, 0.3332258884695278, 0.33082686614141327, 0.3287513125693983, 0.3267092046951755, 0.32480268708943966, 0.3228152320089653, 0.3207655028253924, 0.31886933839456433, 0.31700542826639594, 0.3152358291841584, 0.31342860290778113, 0.3117854559921318, 0.31003250243604524, 0.30832099539889907, 0.3066403634809727, 0.3050078678392272, 0.30337169460384855, 0.30181534459435516, 0.30029046554244937, 0.29869435681825396, 0.29724292048925505, 0.29596110585762636, 0.29453811579286615, 0.29314684526571627, 0.29182148994099943, 0.2904855129957283, 0.28895377855751525, 0.28770541786070314, 0.286471996558471, 0.2854668236398313, 0.2842382010072365, 0.28289619325705934, 0.2817407849638644, 0.2806029401028023, 0.2795711052325227, 0.2784566410822512, 0.2771868347702421, 0.27613746864034977, 0.2750979693991326, 0.27429473329645776, 0.27324760717166335, 0.27220624001588917, 0.2712065580172757, 0.270225968226621, 0.26925865565956114, 0.26831273814670836, 0.26719567457035087, 0.2663020103361516, 0.26541063162382067, 0.2645308728099681, 0.26364422538268373, 0.2628322584916892, 0.26194426034231044, 0.26106398342381404, 0.2601419676990267, 0.2592811109243031, 0.25853380756826055, 0.2576641961800635, 0.2568028642878185, 0.2559130474417059, 0.2550688639440641, 0.25407216039457825, 0.25325183117654926, 0.2524236969663761, 0.2516856807706406, 0.2508308471590134, 0.25006326385235966, 0.24919382660862344, 0.2483266312943351, 0.2474868659323262, 0.24661670653670573, 0.24560903581900034, 0.24475455169543528, 0.2438895961267324, 0.2429875367428018, 0.24210479442699429, 0.24120092316619382, 0.24029478601006485, 0.2393758636822311, 0.23850615563332184, 0.23755368940004526, 0.23651636583343633, 0.23555366503380362, 0.23457587390076576, 0.23373803454907685, 0.2327103505199296, 0.23155202835362343, 0.23052545228082982, 0.2294826526485324, 0.22837473078107615, 0.22730512945185563, 0.2262248766091758, 0.22511530628389978, 0.22398701312942523, 0.22296846996949968, 0.22178643306066037, 0.22047314682978464, 0.21928184334235382, 0.21807004570616315, 0.21686880552457657, 0.21561218908351942, 0.21434128884717746, 0.2130464041412917, 0.21173250975090122, 0.21065184983443466, 0.2092671790164713, 0.2078370141410367, 0.20644389578539107, 0.2050386998999918, 0.20340736918689148, 0.20200088427740726, 0.20057558124142863, 0.19911343271626178, 0.19762565715420888, 0.19632551221532857, 0.19476135382213972, 0.19305668852188507, 0.19148347889228148, 0.18988872866770393, 0.18820611445341576, 0.1865770966859382, 0.18500742998626998, 0.18331883451886488, 0.18161151629204697, 0.17985440358273028, 0.17811342519774787, 0.17637851230706653, 0.17459344915255534, 0.17278998210625077, 0.17108340092911378, 0.16922889825089327, 0.1673761433702434, 0.16549613727959997, 0.1636040011933688, 0.16165042662806728, 0.1597385962369812, 0.15770422361594577, 0.1557735755877838, 0.153821128597029, 0.15205178851598847, 0.15003324411547636, 0.14794988363946954, 0.1459234683516385, 0.1438853357022828, 0.14195958323739824, 0.1398825481361706, 0.13767262829416393, 0.13560226809803316, 0.1335189507251694, 0.13159606616755637, 0.12946682722110045, 0.127353916327558, 0.12521891004158958, 0.12294043737394958, 0.12081942756182976, 0.11868785939956072, 0.11668842096352394, 0.11452055805179191, 0.11241484898862282, 0.11023915878080554, 0.10806672464293374, 0.10585275510923091, 0.10369113910342402, 0.10143628225621097, 0.0992863455788735, 0.09713170941026965, 0.0951906759828268, 0.09300281210834768, 0.09079054527193184, 0.08862862209031881, 0.08647469960439409, 0.08442626945246265, 0.08227621680773939, 0.08012232741230065, 0.07800184076107916, 0.0758935364932869, 0.07384175677913858, 0.07175245860206379, 0.06958970280196373, 0.06754192289123061, 0.06550448537651074, 0.06366443959204282, 0.06162710370290164, 0.05960909089338885, 0.05761933527794737, 0.05565230149463973, 0.053574989247129085, 0.05167007667347684, 0.04993120562518785, 0.04803943691508187, 0.04617423520825532, 0.0441629113886148, 0.04237308703438363, 0.04063619549230425, 0.03887866651562906, 0.037144116266182185, 0.03561995021476634, 0.03391178427332253, 0.032183313112492694, 0.030556718003587835, 0.02896374984313577, 0.027489038645458683, 0.02595410407910856, 0.024330576694138715, 0.022891593800566882, 0.021485278667124796, 0.020134980800865454, 0.01879476153402345, 0.017487519276264237, 0.016223598838223992, 0.0149986769791913, 0.014004199366876698, 0.012836001249362261, 0.011658253839908553, 0.01060221653596388, 0.009594085834576261, 0.008576466675702575, 0.007672105442067431, 0.006795516556470783, 0.005985248631497259, 0.005221203892016732, 0.004557538516480924, 0.003882168074472007, 0.0032721903769056745, 0.0026998268835523036, 0.002181305607227452, 0.001756925596778112, 0.0013423577263634587, 0.0008966318730319844, 0.0006083485901117665, 0.0003729678308130137, 0.00038642667981316327, 0.00023516919374023007, 0.0, 5.31819576919778e-07, 5.809647317827173e-05, 0.00032413416510339765, 0.0004791206551783855, 0.0005513093231803938, 0.0008605226556907224, 0.001228270316424588, 0.0018105715314729012, 0.002278603460097138, 0.002679247549221318, 0.0033041045161251786, 0.003990426455247919, 0.004770088054823135, 0.005577952181008914, 0.006376133707349747, 0.007325243238514997, 0.008336656929247604, 0.009632919214666706, 0.010743928063395672, 0.01169768279066818, 0.01299247437190267, 0.014349766745140954, 0.01592577418777258, 0.017391804407376893, 0.018861266095468742, 0.020484469190475925, 0.0221772268026649, 0.02396638245799531, 0.02579564854348357, 0.02769224196816495, 0.029665558316211902, 0.03171033589488392, 0.033972788439048524, 0.03614203846895946, 0.03816503128763115, 0.0405210427958354, 0.04294183057002016, 0.04555676107793084, 0.04809340010591067, 0.05073978208178038, 0.05342006472713215, 0.05617571921289549, 0.058944023830224776, 0.061856231429117926, 0.06490929317646807, 0.06795243336748961, 0.0710694103495004, 0.0741355143941253, 0.07741391227839262, 0.08066872723244754, 0.08408882827055086, 0.08756978961759279, 0.09126765005969573, 0.09485348849306084, 0.09843600654416296, 0.10217461516365865, 0.10597953014980949, 0.10996141418694834, 0.11388459388663527, 0.11776908004930789, 0.12184924155490769, 0.1259930131762034, 0.13021354346092137, 0.13448236550449896, 0.13868202471355703, 0.14309472039905435, 0.14756281809914928, 0.15220207721140144, 0.1567679633167639, 0.1614545419485224, 0.16613853531343878, 0.1708872346172013, 0.17573922377859066, 0.1806084760153204, 0.18541246793956973, 0.1904229233149282, 0.19548650278985127, 0.20064277130172567, 0.20580656344676268, 0.2109226903545525, 0.21620700524951791, 0.22153816823514696, 0.2268895600659532, 0.23231755082604227, 0.2377860140814037, 0.24330422512082828, 0.2488666838800022, 0.25446419941410786, 0.2601151831959283, 0.2658174971409695, 0.2715517685444964, 0.2773278615639137, 0.2831494464017807, 0.2890062835221111, 0.2949736255293376, 0.3008997859183914, 0.3068675984219214, 0.31280458273340517, 0.3188599162074783, 0.3249925580861524, 0.3311073855753281, 0.3372558342200103, 0.3433346587787192, 0.3495591997228046, 0.3557987694803886, 0.36207170939795047, 0.3683669468713091, 0.3747636191463172, 0.3810914585220471, 0.3875148831151458, 0.3938816802391171, 0.40027421319576495, 0.4064911025952969, 0.4129543531587726, 0.41953711047095954, 0.42600367506401426, 0.43248470874740236, 0.4388238221294543, 0.4453494129600541, 0.4519875407456202, 0.4585026027127046, 0.4650253384661259, 0.4714880260435438, 0.47803069476308874, 0.48454245073308044, 0.4910884670200725, 0.49764008234891055, 0.5041777883655431, 0.5107113049803699, 0.5173416182391875, 0.5238510758798033, 0.5303458557975923, 0.5368523216794997, 0.5433529162624081, 0.5498016576478577, 0.5562911117108518, 0.5626609524823729, 0.5691360586443266, 0.575589457071037, 0.5820296155529183, 0.5884371830240429, 0.5949372119274363, 0.6012839845351593, 0.6076128664966389, 0.6137979676515315, 0.6201012858294271, 0.6265117359055963, 0.6327365916168339, 0.6389375063039966, 0.6448998947335061, 0.6510741002705074, 0.6572201539132295, 0.6633097843181556, 0.669358547410814, 0.6753837598402429, 0.681347225512945, 0.6871984065393878, 0.6930871981246387, 0.6989288799812772, 0.7047983925915433, 0.710535094764987, 0.7161654387809991, 0.7218200340343872, 0.7274242499319595, 0.7329950240920312, 0.7384938315999964, 0.7438787126977333, 0.7492804812969491, 0.7546246949351506, 0.7598885917657607, 0.7651185937027538, 0.7703807979609332, 0.7754767498848187, 0.7805157855220562, 0.7854432512392542, 0.7903707506053225, 0.7953491999977033, 0.8001327266143407, 0.8048566027600232, 0.8093904717497258, 0.8140057688170151, 0.8185710469984715, 0.8230386655976469, 0.8274342434111422, 0.831730410059704, 0.8359828954773396, 0.8401904793358005, 0.8442866315535286, 0.8483074166743261, 0.8521367683748622, 0.8560187634884022, 0.8600289932398008, 0.863715357024345, 0.8673293318747345, 0.8708691247087537, 0.8743330814378365, 0.877706385430501, 0.8810158918431574, 0.8842445856857357, 0.8874090984549226, 0.890470737536466, 0.8933520572547563, 0.8962593054848231, 0.8990762941363296, 0.901745359441467, 0.9043888732574278, 0.9070537930202598, 0.9094954993512998, 0.91185045595692, 0.9141267802747357, 0.9163049463763868, 0.9184169549773624, 0.9204150542027106, 0.922324849707153, 0.9241057554003395, 0.9258419182246477, 0.9275077659849995, 0.9290560069529303, 0.930512668205467, 0.931726791899091, 0.9330183976428452, 0.9343508778545231, 0.9354237673267137, 0.9364056017617203, 0.9371453935759093, 0.9379631427971025, 0.9386937527055614, 0.9393099587736632, 0.9398283688522528, 0.9402984054106308, 0.9406170592971004, 0.9407716345258432, 0.9409129785108955, 0.9409573849772236, 0.9409454224779183, 0.9407929381674729, 0.9406318413363021, 0.9402833542384658, 0.939847239944794, 0.9393584909134965, 0.938741384113936, 0.9380109810495533, 0.9372233340486438, 0.9363466485425748, 0.9353232882998684, 0.9342757510230147, 0.9331847549746402, 0.9319472892480843, 0.9306216018646404, 0.9290705816908156, 0.9275865533838638, 0.9259675617622759, 0.9242998731784183, 0.9225377212232518, 0.9208112079327005, 0.9188486417015155, 0.9168653925828764, 0.914729862338866, 0.9125157436318193, 0.9100900241004857, 0.9077353331859488, 0.9053389083546207, 0.9028078110035769, 0.9001956551258835, 0.8975475710640564, 0.8947701888490683, 0.891965482302264, 0.8890303290514932, 0.8860229231674962, 0.8829080486928695, 0.879761397696913, 0.8765148928216999, 0.8732258448351177, 0.8698636470744193, 0.8662787492786924, 0.8627925469317121, 0.8593166150745156, 0.8556648564074462, 0.8519442301215658, 0.8480984808779966, 0.844251392706521, 0.8403228593266181, 0.8363428811433993, 0.8322974067535598, 0.8283653577047713, 0.8241715437336989, 0.8198650849970965, 0.8155779759040737, 0.811237103762197, 0.8068300309932682, 0.8023859213317102, 0.7977748153043036, 0.7932427465144825, 0.7886546162757302, 0.7841055276528084, 0.779399617713219, 0.7746487974097621, 0.7698541344288786, 0.765016723076139, 0.7601155311426032, 0.7551988052829661, 0.7502946785724214, 0.7452914654759017, 0.7402533963699314, 0.7350927971455151, 0.7299990669877066, 0.7249570609734063, 0.7197801498085293, 0.7145748524686495, 0.7092978464136589, 0.7040443683906934, 0.6988384157104796, 0.6935213044030855, 0.6881835603210712, 0.682666540589834, 0.6773103088717186, 0.6720512828581439, 0.6666279941098895, 0.6611893403975039, 0.6557408579375106, 0.6502742648582011, 0.6446320468732287, 0.6391639302759464, 0.6336772524430424, 0.6284049142566924, 0.6228594176891805, 0.6172179817374148, 0.6116881467613766, 0.6060221495815122, 0.6005039131518918, 0.5949775655661619, 0.589529652248412, 0.5839834149004753, 0.5785291179693357, 0.5729796751501689, 0.567441182087699, 0.5619275168952649, 0.5564110795474209, 0.5508507228574215, 0.5453695994068323, 0.5399003497452552, 0.5343999411737306, 0.528963845847455, 0.5235187787136721, 0.5181134493001316, 0.5127232148228749, 0.5073276050030047, 0.5019753365225159, 0.4967525212471989, 0.4914253093856479, 0.48612627211855136, 0.48066110933107453, 0.47544501390554045, 0.4702304625362926, 0.4650574572162106, 0.45990719474897523, 0.4548615650249319, 0.4497529828590681, 0.444748484101839, 0.4396984139172782, 0.43468763805372584, 0.4296589984045343, 0.42473543953179843, 0.41989809509765563, 0.41504433790336936, 0.41023276772454825, 0.40531773230683354, 0.4006106847545976, 0.3961386827933848, 0.3914795647112434, 0.38687072834554054, 0.38219689838743104, 0.3777030134523973, 0.3731909069798743, 0.3687935364188028, 0.3644385640540549, 0.3601761779384304, 0.35590409204799583, 0.3516900363062752, 0.34751592162058914, 0.34339293966462536, 0.3394103021691616, 0.3353801735653947, 0.3313547272239665, 0.32744683120693807, 0.32359349998469, 0.3196356098838705, 0.31591267159534897, 0.31234719178709525, 0.3087052817595682, 0.3051193812386881, 0.3015721867505719, 0.2981017682669682, 0.29459448984816483, 0.2912486578376513, 0.2879546750769143, 0.28493518533629164, 0.2817201451094309, 0.27837301843045636, 0.2753167202321279, 0.27231458899174676, 0.26938072067374286, 0.2664875518523986, 0.2638241832465562, 0.2610236099826764, 0.2582904934410878, 0.25544207500517535, 0.2528636032386289, 0.2505254454488038, 0.2480325760224756, 0.24560558185664585, 0.2430174718904343, 0.24074775792837272, 0.23876319114483735, 0.23656550203523158, 0.23443323605780897, 0.23231207041026608, 0.2303139964669625, 0.22822897619983223, 0.22636743178079366, 0.22455602451616605, 0.2229018195337885, 0.22117931795267204, 0.21952802181223896, 0.21791917029374763, 0.21636798110357391, 0.2147675175325267, 0.21334327739480394, 0.21206196404077726, 0.21072600488775498, 0.20944558030859142, 0.20833076383983662, 0.20714535726253586, 0.20586460166808337, 0.20481665956912673, 0.20381670803707455, 0.20289564894986134, 0.20198735871609896, 0.20102637251098948, 0.20022881836975698, 0.19947362318800918, 0.19893379119103646, 0.19824201116894102, 0.19738550906940175, 0.19682439687408199, 0.19630053075658607, 0.19593834582697814, 0.19547429263067034, 0.19509946119945348, 0.1947186121487688, 0.19438311386059906, 0.1939808378251841, 0.1937459834113929, 0.1935595896859252, 0.1933930509180207, 0.19326166685699842, 0.19317813667466624, 0.19311355843547742, 0.19300765102993495, 0.1930197379331535, 0.1930599020537489, 0.19309686347385252, 0.1931962058843206, 0.19345814883964832, 0.19359037557236683, 0.19375492661194663, 0.19393251685975743, 0.1941593234620457, 0.1943287612456778, 0.19461856278641543, 0.19492794960352955, 0.19517664133038706, 0.19553361510905967, 0.19612543055985818, 0.19648098924887408, 0.19686206378851384, 0.19708050851554823, 0.19753004546436695, 0.19805967846029468, 0.19851843338607691, 0.19898980098671543, 0.19950380551150385, 0.19999351003464588, 0.2004857338600564, 0.20099807446222734, 0.2015188405887404, 0.20197603435532793, 0.20251929316157952, 0.20317890174779138, 0.2037094288707113, 0.20424654550079677, 0.20489062942627204, 0.20542355677773932, 0.20595115736107275, 0.20649955824513175, 0.2070510659844283, 0.2074754768083886, 0.20804438592953356, 0.208577776967539, 0.2091318029247019, 0.20967461655679226, 0.21014395748371462, 0.2106714205153719, 0.21134279981619525, 0.21181904920334207, 0.21228877426758966, 0.2125556647445106, 0.21303293388893052, 0.21370591575777712, 0.2141133935739884, 0.21451234999907628, 0.21483473246783052, 0.215220364350147, 0.21553610789891656, 0.21589425122646477, 0.21623118234380231, 0.21664407058203008, 0.21692532639592677, 0.21715440477602174, 0.2174055000972896, 0.21763560345718713, 0.21795473163083967, 0.21812665453905458, 0.21807787340408713, 0.21824019851928222, 0.2183712223074198, 0.21860863793689886, 0.21866066600614215, 0.21869433451200235, 0.2186992348290184, 0.2185689362453514, 0.21853808031694263, 0.21847488097582454, 0.21852568431785696, 0.21837970034645401, 0.21818328923574432, 0.21799181463398595, 0.21777279475165706, 0.21749005826622922, 0.2172183122530098, 0.21687960690856944, 0.21654905850379141, 0.2161845244021765, 0.2157107637837146, 0.2152879875629764, 0.21493350273850836, 0.21442184998940414, 0.21387932414221603, 0.2133188450645374, 0.212711821634472, 0.21202494911740208, 0.21136149870181586, 0.21066353259249138, 0.20980270222884972, 0.209052335045309, 0.20843783153224224, 0.20758351491458735, 0.20669997665145493, 0.20573797410654593, 0.20480070388775667, 0.20379916388377997, 0.20279939838762176, 0.2017648464602356, 0.20082436369590995, 0.1997051089061807, 0.19855493506163258, 0.19738257113415159, 0.19618220875832404, 0.19493127538859908, 0.19367655294959402, 0.19234288156351986, 0.19103392017140097, 0.1896921235051952, 0.1882781453999346, 0.18687729690777516, 0.18544294883173992, 0.1839759439736444, 0.18247708595111917, 0.1810268896664006, 0.17945652093020048, 0.17792302221088224, 0.17629455473996425, 0.1746445796864677, 0.17288416316252378, 0.17120150727222133, 0.16946070871937502, 0.16772841070723163, 0.16596863510598525, 0.16418675550531983, 0.16237426258310247, 0.16060816373816256, 0.15873854982184946, 0.15685005267263463, 0.15497390651065632