0.06711986024145794, 0.06657550379485917, 0.06608950317991066, 0.06554166724909144, 0.0649537130445828, 0.06442007673540641, 0.063887289628424, 0.0633085394459789, 0.06278294304447765, 0.062336883683631474, 0.06179699352701777, 0.061260118282139266, 0.06069084093340127, 0.06016323003404464, 0.05967058809614672, 0.05913850718992126, 0.058608404038419964, 0.05805086097000559, 0.05752768998891926, 0.05698283317717373, 0.05646186334591143, 0.05593957371311202, 0.05542594419377069, 0.0549005341277901, 0.05433421805728207, 0.05381394121361264, 0.05329151826054878, 0.05279848476592677, 0.0522690577033338, 0.05176563804431928, 0.05123451320529126, 0.050705612188027605, 0.05020404162848699, 0.04967589783982962, 0.0490945525153855, 0.04857959986175076, 0.04806407877242117, 0.04754042536494347, 0.047025370074136104, 0.046589609632963165, 0.046063828504921106, 0.045542495023534406, 0.045003746095476825, 0.044492651333877455, 0.04402244662433361, 0.043510295816444854, 0.0430020727333099, 0.04249153599629659, 0.041990739668584735, 0.041496375414531404, 0.040999967951226055, 0.04050594652601202, 0.04003942074948016, 0.03954650100729937, 0.03902002765171996, 0.03853827808204911, 0.038057324849737464, 0.03755004730875542, 0.0370744368940304, 0.036619793888315294, 0.03614095685698958, 0.03566351423954724, 0.0351700618412331, 0.03469790729716677, 0.03431200473870886, 0.033830649936492437, 0.03335523045406467, 0.032840527117297194, 0.03238121500429174, 0.03199598780679858, 0.03153190640468683, 0.031074108484936455, 0.030577353693481326, 0.030136302840395597, 0.02973464027689301, 0.029293851216306014, 0.028857683657988135, 0.028410350900803866, 0.02798474516937436, 0.027651770352779114, 0.027221235675712697, 0.02679894643079682, 0.026329780201637395, 0.025928937828218333, 0.025521826345319916, 0.025129153904588006, 0.02475503091672553, 0.024366523825315768, 0.023982177203701306, 0.02366229654485654, 0.023278743961551173, 0.02287369356740706, 0.022508753818510863, 0.022149088615611257, 0.02188021009719975, 0.02152016594186682, 0.02114875010042527, 0.0208107856527506, 0.020480421676540777, 0.02020597929735996, 0.01988385763384182, 0.019581092441251488, 0.019276493829366168, 0.01898113561978399, 0.018766544887448614, 0.01847939532297842, 0.018117002972429356, 0.01786466145990928, 0.017618248125439, 0.017432382398516164, 0.01719147736670875, 0.01700678906185659, 0.01677885597081406, 0.016562703612216314, 0.016408407174104196, 0.016208073846844116, 0.015958964846901888, 0.01579276331401841, 0.015635370051239574, 0.015517985790582367, 0.015374571855435695, 0.015242065101204178, 0.015120382338967644, 0.015009489620499443, 0.014977453731004585, 0.014879601363719552, 0.01474399262220874, 0.014681829434041485, 0.014630678064535699, 0.014610139588247391, 0.014579041391405966, 0.014618906222432263, 0.014605738659913721, 0.014608604711800461, 0.01460769855698415, 0.014644089187735356, 0.01477040998254278, 0.014825414560466085, 0.014898833911297574, 0.014943474181907484, 0.015058150318918875, 0.015226235664505535, 0.01536516166606686, 0.015521073569831427, 0.015707448660599463, 0.015895266853362122, 0.01604615364420709, 0.016275795741784314, 0.01651977062105071, 0.01682130432050076, 0.017089863003825152, 0.01739201089029755, 0.017694731192303356, 0.018016511377035294, 0.018396233711327648, 0.018751231009460124, 0.019104222366614666, 0.019504606007319476, 0.019924632043311685, 0.020376055974122405, 0.020834184301687455, 0.021309064183195617, 0.02180903106004499, 0.022329580607112143, 0.02288836444703812, 0.023448337856377885, 0.024069270696147938, 0.024668522539301144, 0.02529216846778999, 0.02594195062890759, 0.026613592279702517, 0.027274303681082614, 0.027998456043370576, 0.028744646029042923, 0.029513180896361596, 0.030304366658657343, 0.03111850711916988, 0.03195590304394087, 0.0328168514581933, 0.03374831321600488, 0.034651339800037706, 0.03557556870839018, 0.036533307511208285, 0.03751760183685483, 0.038590703284163815, 0.03962035034078707, 0.040689926645259444, 0.04177835568413015, 0.04289681250908691, 0.043996355214131457, 0.045180098988568056, 0.04645842273003748, 0.04768686311418739, 0.04894616160649461, 0.0502263091055154, 0.05154776100530761, 0.0528891383361746, 0.05427108735612739, 0.05568211920725888, 0.057116518793132245, 0.058586826588339844, 0.06011740645334869, 0.06164230941205546, 0.06319853948441741, 0.06480745008411262, 0.06642355295635219, 0.06811494392554855, 0.06979052984279714, 0.07150081453497066, 0.07322012665420534, 0.07500190036928615, 0.07679654341149382, 0.0786454109922566, 0.08052553972345912, 0.08239630360777978, 0.08434474092027566, 0.08635387675205317, 0.08835807877281072, 0.09039461746538942, 0.09246562217940786, 0.09456713304678462, 0.09668994732644541, 0.09885901285111717, 0.1010606625590489, 0.10328538843059298, 0.1055540581825022, 0.10794868390259012, 0.11027102484994894, 0.11263166162895043, 0.11504363507289743, 0.11747749965759292, 0.11994502305331578, 0.12245398070725996, 0.12499934150278215, 0.12758270410248249, 0.13019963246261557, 0.13278410623651, 0.13548060140272258, 0.13820842241719136, 0.14105543192198525, 0.14383587582639054, 0.14661850254662903, 0.14947726925035798, 0.15237036506728482, 0.15534241908976587, 0.15829823892597875, 0.1612731240398103, 0.16430384126317762, 0.16736929229951844, 0.17041286270131842, 0.17355425530678514, 0.17680436966460816, 0.1799980794091642, 0.1832275840136326, 0.18648659987730085, 0.18978711733117107, 0.19309463173453345, 0.19646672170912935, 0.19987090198876958, 0.20334600312195242, 0.2068092526996893, 0.21033766207920823, 0.2138646554590217, 0.21742663083536024, 0.2209549072994956, 0.22459362998803162, 0.22827928449199195, 0.23197470802838788, 0.23570061093989036, 0.23948794566883766, 0.2432703804328692, 0.2470378507545887, 0.2508891408752084, 0.2547686275795306, 0.25874432234948475, 0.2626714242226786, 0.26661474619158115, 0.27060667683408435, 0.2746281695348363, 0.27865151036565283, 0.2827341113340042, 0.2868608163573471, 0.2909941767727608, 0.2951546339556071, 0.29932038531452126, 0.30353650105331365, 0.3077889393014461, 0.3120526462025834, 0.31637226193221923, 0.32068124347445365, 0.3250159878183158, 0.32938556312198375, 0.3337686624551365, 0.338113945315175, 0.34255305127522595, 0.34701174379685534, 0.35146655596367093, 0.3559669281017696, 0.3605511597604022, 0.3650785951482589, 0.3696272879005204, 0.3741420780056525, 0.3787380445739555, 0.3834006766954214, 0.3880222361346961, 0.39266223466202277, 0.39726550535574146, 0.40194711764435564, 0.40664588034253696, 0.411353277363552, 0.4160736160203899, 0.4208784787310632, 0.4256144778088166, 0.4302748742799274, 0.4350529718795331, 0.4398397058264428, 0.4446348631248056, 0.44943817652641943, 0.4542182173081355, 0.4590407815832211, 0.4638686749130433, 0.46876004280441175, 0.473590585406367, 0.4784503649664573, 0.48329306507725067, 0.4881431586513709, 0.4929277162486958, 0.4977987758985608, 0.5026547765823531, 0.5075284768361618, 0.5124011114229727, 0.517247113219805, 0.5221198913240631, 0.5269891581841509, 0.531854677729548, 0.5367161482528856, 0.5415615420695984, 0.5464152548442277, 0.5512960855157651, 0.5561333325957268, 0.5609656298036392, 0.5657688764933982, 0.5705919189826593, 0.5754316658386024, 0.5802337724700234, 0.5850275158720376, 0.5897245519542865, 0.5945101140409572, 0.5993401753228382, 0.6040864352688753, 0.6088199774493838, 0.613489487400935, 0.6182017096918812, 0.6229330381374871, 0.6276045497417665, 0.6322595229416563, 0.6368583134291255, 0.6414828608569498, 0.6460416920649257, 0.6506294604258308, 0.6551927901139046, 0.659793742730363, 0.6642997656140288, 0.6688074732245389, 0.6732663853871964, 0.6777032447333975, 0.6820528546844533, 0.6864506718652964, 0.6907829055910366, 0.6951277017061057, 0.6994409170971633, 0.7037243085344627, 0.7079734887777768, 0.7121846140776975, 0.7163697129913352, 0.7205214684087209, 0.724629748841764, 0.7287147815155748, 0.7327548663108129, 0.7367702470491068, 0.7407489618178505, 0.7446458714313807, 0.7485556273374646, 0.7524481950083957, 0.7562738097888221, 0.7600598532614162, 0.763770866528572, 0.767480791768476, 0.7712235654493949, 0.7748376821108338, 0.7784125260899948, 0.7818674242208306, 0.7853709955953961, 0.7888689218621346, 0.792274172554943, 0.7956347922161581, 0.7989248891601365, 0.8021976095455482, 0.8054438497594248, 0.8086177380377175, 0.811744164548011, 0.8147778168319832, 0.8178132192290437, 0.8208027513976068, 0.8237338149648105, 0.8266130827589842, 0.8295199798530224, 0.8322846606311471, 0.8349019048479169, 0.837581609516789, 0.8402055912774369, 0.8427640814640532, 0.8452776705865134, 0.8477425228366882, 0.8501420326313, 0.8524852984682029, 0.8547371287736331, 0.8569717440894671, 0.8592292026616006, 0.8613358916006651, 0.8633883988452115, 0.8653782633804787, 0.8673213925128191, 0.8692138375149666, 0.8710427171096409, 0.8728144877876792, 0.8744509134504654, 0.8761169695153158, 0.8777825162325069, 0.8793155118449465, 0.8807897675506852, 0.8821874698676372, 0.883545546669853, 0.884839153625333, 0.8860764661302732, 0.887252797405745, 0.8883272636045216, 0.8893866515485349, 0.8904234662625181, 0.8913511696039599, 0.8922183110353414, 0.8929450687610377, 0.8937008906655338, 0.8944419889415635, 0.8950614478018086, 0.8956195808087601, 0.8960989518379364, 0.8965368404092345, 0.8968873411837498, 0.8972044208017763, 0.8974583872520095, 0.8976399132379371, 0.8977700363029589, 0.8978589845759387, 0.8978616659806234, 0.8978037378599556, 0.8976989789549413, 0.8975186141748023, 0.8972497447686614, 0.8969544615379673, 0.8965983597952001, 0.8962615060418453, 0.895774703572929, 0.8951664444643442, 0.8945769951567983, 0.8939279314939033, 0.8932001697688695, 0.8924354200032513, 0.8916693853497736, 0.8907785421470343, 0.8898323821104678, 0.8888134306594401, 0.887758976076967, 0.886636775735042, 0.8854719414499773, 0.8842510008086152, 0.8829102243110954, 0.8815865096019406, 0.8802880427398868, 0.8788380047430386, 0.8773361988678761, 0.8757789408797721, 0.8741747461408036, 0.8725309664852082, 0.870823143437338, 0.8690654540557003, 0.867190154564725, 0.8653423161944562, 0.8634768433313199, 0.8615202727987846, 0.8595149214400822, 0.8574263989887742, 0.855329748692456, 0.8532133682518503, 0.8510161425582038, 0.8486976069249164, 0.8464196393040123, 0.8440931842998873, 0.8417836512652607, 0.8393557616633884, 0.8368942873094962, 0.8343832293131378, 0.8318323421319436, 0.829269358303691, 0.8266369221022455, 0.8238724995496431, 0.8211790539566806, 0.8184443112511579, 0.8157239263171642, 0.8129032754903837, 0.8100536802482786, 0.8071633560237981, 0.8042398360231621, 0.8012487210227219, 0.7982650594050504, 0.795261710499831, 0.7922106667818389, 0.7891289417516746, 0.7860192704944113, 0.782878307331073, 0.7796955285801437, 0.7765006506342587, 0.773278351396719, 0.7700450727727899, 0.7667686104762801, 0.7635148933530828, 0.760185416187394, 0.7568361066002158, 0.753444003256233, 0.7500591511244171, 0.7466291532310606, 0.743208469836152, 0.7397679310468285, 0.736290977589947, 0.7328157521956832, 0.7292991429565253, 0.7257918157245027, 0.7222671966845313, 0.7187459133941414, 0.7151877536155556, 0.7116343073170036, 0.7080492611113541, 0.7044541958772222, 0.7009198451586188, 0.6972980908547258, 0.693664678567462, 0.6900363316691694, 0.6864041099712339, 0.6826867310032486, 0.6790582972574305, 0.6754285479160123, 0.671786259791893, 0.6681394673378241, 0.6645611645590843, 0.6608993765503477, 0.657211002043627, 0.6535584433364696, 0.6499076337174816, 0.646282608502011, 0.6426344581347513, 0.6389992693862676, 0.63536103492732, 0.6317295116531175, 0.628070218273715, 0.6244581299271025, 0.6209146517594277, 0.6173083423608005, 0.6137136427070269, 0.6100589470191757, 0.6064976320834132, 0.6029061539033675, 0.5993682501485423, 0.5958389298849747, 0.5924050238713529, 0.588885795894648, 0.5852921607406903, 0.5818188347880382, 0.5783581468367963, 0.5749948733218225, 0.5715523072053843, 0.568116742279142, 0.5647174185024957, 0.5613385644234559, 0.5579242492210824, 0.5545948520469313, 0.5513230525315896, 0.5480270864830726, 0.54475382414362, 0.5415057294470641, 0.5382791810916941, 0.5350711524424943, 0.5318945333652, 0.5287429058444612, 0.5256187364374922, 0.5225184008065653, 0.5194408085853273, 0.5163947017741732, 0.5133759444728624, 0.5103364090547006, 0.5073799385248995, 0.5044708933401557, 0.5015646258365061, 0.4986872049145359, 0.49585084383096034, 0.49303124916078367, 0.49027965081554065, 0.48751785373332607, 0.4847899026563348, 0.4821094542490063, 0.4794476345632301, 0.4768303543960985, 0.47423694072094447, 0.47167892194183064, 0.46905516233795974, 0.4665806846496392, 0.46421567711274214, 0.4617914834630719, 0.45940317487441795, 0.4570547173046641, 0.4547379291561421, 0.4524555620292358, 0.4502118236438253, 0.4480044963911007, 0.44577923854290985, 0.4436519334534666, 0.4415408032493301, 0.4394836072474678, 0.4374601395236204, 0.43551764635424695, 0.4335574037536937, 0.4316175514027693, 0.42973532498698885, 0.42789004651832707, 0.4260779800736628, 0.4243075255728357, 0.4225566920749674, 0.42086281267166287, 0.4192052879739888, 0.4175746101615609, 0.415991630035587, 0.41441582366229374, 0.41290940026919537, 0.4114380135362131, 0.40999617322182746, 0.40859656375476056, 0.4072227859955025, 0.40589572996450285, 0.4046040596584296, 0.40341796740644, 0.4021887338949918, 0.4009233913182671, 0.39978267774640247, 0.39867642024321126, 0.3977155979762163, 0.3966646139661046, 0.39554763406222937, 0.3945911841178513, 0.3936679716252619, 0.3927917108562911, 0.391933511034921, 0.3911172546759885, 0.3903262597781353, 0.3895695577074611, 0.3888546753291007, 0.3881648095877777, 0.38745443708746286, 0.3868389851750455, 0.3862537166877869, 0.38577649518118795, 0.3852419526524697, 0.3846681522694635, 0.384211521197579, 0.38378401586466354, 0.38337393111702284, 0.3830059918782527, 0.38272655462285377, 0.38240736819128895, 0.3821196002525706, 0.38183149601827854, 0.381608592808845, 0.38136488563482346, 0.38120341318107237, 0.38106633992319927, 0.3809595275502043, 0.38087053803275006, 0.3807770129064505, 0.3807407880740408, 0.3807271439945897, 0.3807885532424901, 0.38081328388228125, 0.38088466558862216, 0.38095659712261015, 0.38105376296241966, 0.38116761075329564, 0.38131393401907687, 0.3814983708849477, 0.3816872087667818, 0.3818982237928463, 0.3821306838590565, 0.3823838839747404, 0.38261047555543404, 0.38290903678008714, 0.3831906844968298, 0.3835254650991888, 0.38387401001916216, 0.38423044596591815, 0.38460707912521, 0.3849793590370559, 0.38538434692764606, 0.3858011458007735, 0.38620437199562474, 0.3866476164214306, 0.38721744245522466, 0.3876657026403096, 0.3881302451617209, 0.3885496731162325, 0.38905111420062194, 0.3895447894092094, 0.390067456283505, 0.39059795198038305, 0.3910737158036003, 0.3916267006955116, 0.3922062712113055, 0.39276290283323717, 0.3933242032468321, 0.3938685374591488, 0.3944411026187371, 0.3950629499915549, 0.3956346607364055, 0.3962111915464181, 0.3967588365250888, 0.39734724747583905, 0.39797170202008386, 0.39855741520334875, 0.39914539662897225, 0.39972135180127677, 0.4003135592242898, 0.4008449939944107, 0.40144331318184784, 0.4020367104414597, 0.40267959639139755, 0.4032561022690265, 0.40381102544135755, 0.4043850888156052, 0.4049546866355973, 0.40555437992707816, 0.4061092960294045, 0.40656120725714767, 0.40712025887056663, 0.40766847757651786, 0.40822154811746575, 0.40874645024988543, 0.4092751876564985, 0.4097786321475606, 0.410272662580394, 0.41072969985978597, 0.41120726441191857, 0.4117000094987363, 0.41214988177231704, 0.4125888764458699, 0.4130243271211596, 0.41343925311741025, 0.41381713674728704, 0.4142112365264122, 0.414591177784157, 0.41499947478731286, 0.41534488387362684, 0.4156154834002923, 0.4159429511650583, 0.4162531025010305, 0.41653031473546936, 0.41680756994479706, 0.41708190512828763, 0.4173202206002751, 0.4175408565443515, 0.41773971273629956, 0.41792483682937587, 0.4180622315437032, 0.4182137135648149, 0.41834457543473597, 0.41842955099155776, 0.41852237153455424, 0.41859309191296523, 0.41864183767399915, 0.4186686870192699, 0.4187164557824264, 0.418694177777849, 0.4186679675921346, 0.4186043458505477, 0.4185213283224422, 0.41838926212932465, 0.41826971968562143, 0.4180694556904327, 0.4179123631378291, 0.4177293040238154, 0.4175944857547337, 0.41735104362187364, 0.41700878848319967, 0.4167326875270702, 0.41643036913186166, 0.41611959997401515, 0.4157633859096997, 0.4153300994066927, 0.4149313837793145, 0.4145051409348287, 0.41411204927871736, 0.413624265723899, 0.41313280330158475, 0.41259606563261036, 0.41203681896651095, 0.4113652498593319, 0.41077123307481955, 0.41021286684809466, 0.40955415873897466, 0.4088713917083659, 0.40808856267508625, 0.4073667822591173, 0.40662012809311376, 0.40584082573021146, 0.4050339102217533, 0.40422890153528496, 0.40336408690894476, 0.4024820099713923, 0.4015661380978299, 0.4006256775571453, 0.3996819663864239, 0.3986894811573719, 0.3976073748188372, 0.3965760439707292, 0.3955171500022226, 0.39446026646939547, 0.39334373917999366, 0.39224323117828996, 0.39107198375473035, 0.3898783642430012, 0.38863684924303427, 0.3874009935947931, 0.386117414418535, 0.384835817271879, 0.3835287066869842, 0.382250825570189, 0.3808866819541806, 0.3794776009905684, 0.37807302793893144, 0.3766452427060649, 0.3751437924207817, 0.3736763035892048, 0.37215590118663555, 0.37064102788301106, 0.36910000748865673, 0.36758993220017944, 0.36599153544507634, 0.36440904144275205, 0.362763982798218, 0.3611001609814829, 0.35940962763303275, 0.3577088033685052, 0.35593786142105727, 0.354204341957524, 0.3524485233975321, 0.3506397937769899, 0.34884478655607015, 0.3470971659182042, 0.3452487615659947, 0.3433829919412729, 0.3414493312550768, 0.339555348638952, 0.33766079392298354, 0.33572484278992926, 0.3337709882735218, 0.33182093851552846, 0.32982952747714356, 0.32784958948626586, 0.32582338148495493, 0.3237832631847161, 0.3217214248013062, 0.3196544197447216, 0.31752449296347307, 0.31543517159054535, 0.3133291501731845, 0.31123035894536477, 0.30908974872016687, 0.30696462573677924, 0.30479330250573866, 0.30261061053604393, 0.3003408223415503, 0.2981453377551629, 0.29598909196517525, 0.29375711377661945, 0.2915145419487062, 0.28925386705150496, 0.2869919091290632, 0.2846867051463373, 0.28240891154565534, 0.280119801839766, 0.27784139702937505, 0.2755288130224737, 0.2731962476301081, 0.270868882458934, 0.2685332908463715, 0.2662268806245258, 0.26387153866947993, 0.26151333749839045, 0.2591482727990568, 0.2567788024157412, 0.25440509435782654, 0.2520273415167256, 0.24960881367812296, 0.24722830872930335, 0.24484433443673823, 0.2424533225811706, 0.24005811683227538, 0.23764366919578428, 0.2352435497841095, 0.2328631726007643, 0.23045350627277364, 0.22804270347355618, 0.2255980533369602, 0.2231901942417161, 0.22079788106472642, 0.21838451129535127, 0.21597135846126617, 0.21357438609553972, 0.21116091321805447, 0.20878083713892748, 0.20636825675284434, 0.20396022930045576, 0.2015801121511253, 0.19917834860793984, 0.19667373644333705, 0.19429776714770755, 0.19192165903120834, 0.18957160073605567, 0.18719468091607477, 0.18487018536007946, 0.18249526295527857, 0.18012789564355014, 0.1776845502628521, 0.17534313322276168, 0.17309045601636902, 0.17074540976636893, 0.16840993306345825, 0.16608209679427627, 0.16376608399489517, 0.16141883819446032, 0.15912731094904167, 0.15684335380896142, 0.15458884427089706, 0.15231876281159853, 0.15001801105243662, 0.14777367046337647, 0.1455377034402818, 0.14332819205257796, 0.14110846446859052, 0.13887444326432166, 0.136680213567598, 0.1344962010820229, 0.13235791722242055, 0.13019140867756368, 0.12797822789937946, 0.12584668539144617, 0.12372563409861843, 0.12163320252172483, 0.11953275026343976, 0.11750383172424538, 0.11542273960740596, 0.11335877429630128, 0.11130981750574645, 0.10927986987314081, 0.1073015345111593, 0.10530033337299881, 0.10331763386630499, 0.10131037642050977, 0.09936930385745142, 0.09745143170086022, 0.0955404356011227, 0.0936457259577062, 0.09170522538971058, 0.08985140017662936, 0.08808665582485484, 0.08625038834133404, 0.08443287256143112, 0.08260487050774769, 0.08082835939451645, 0.07904548880618831, 0.07730610636459309, 0.07558283471845083, 0.07387217667597451, 0.0721827587352965, 0.07055891904198511, 0.06889761227771189, 0.06725662090857856, 0.06557748583781542, 0.06398415108518409, 0.06248532986602713, 0.06091603173255278, 0.059368597499488855, 0.05782716815618606, 0.0563245614765514, 0.054879103462853046, 0.053412166620958434, 0.05196739045431227, 0.05046471487853657, 0.049073380935578045, 0.04777080977703003, 0.04640444311293811, 0.04505974711985629, 0.04371120727096471, 0.04241237315183178, 0.04112345378007879, 0.039865176533215765, 0.038626093615466914, 0.037363549791946046, 0.036168621684014024, 0.03499081649955165, 0.03383056087821008, 0.03268822614927846, 0.03162635720556649, 0.030512913204673246, 0.029460600774225833, 0.028386417501783272, 0.0273360756436331, 0.026287620343887874, 0.025286030656538182, 0.024245282714060266, 0.023293327921832762, 0.022358674721006003, 0.02144939734950775, 0.02054920906682576, 0.019692799162839978, 0.01882652815481785, 0.017980377441259094, 0.017222266037640075, 0.016407339061852273, 0.015625669854767286, 0.014855908729805642, 0.014108948096427753, 0.013337499906670927, 0.012640247164853565, 0.011986786302042229, 0.011323297828772411, 0.010679609495214239, 0.010063230439103487, 0.009457376790092469, 0.008888524061015498, 0.008319191738727513, 0.007769832492225942, 0.00725563999451127, 0.006743208798688091, 0.006275918516835523, 0.005799624063511908, 0.0053438670444864765, 0.004863404392583766, 0.004452874750158825, 0.004140645882100408, 0.0037530444458650425, 0.0033866347174423446, 0.0031010202681575464, 0.00276742036042532, 0.0024118635335546473, 0.0021284955572613362, 0.0018635858941634911, 0.001638143027778567, 0.0014063486559040478, 0.0011679243367314668, 0.0009761924073846596, 0.0008008805873127429, 0.0006671373637209524, 0.0005210943267338945, 0.0003672632560849577, 0.00025910087328188193, 0.00016645011398979862, 0.00018650423930052535, 0.0001124880666342754, 4.378695265310441e-05, 1.2663495897651715e-05, 0.0, 6.945298164545333e-05, 8.412014479279176e-05, 5.531768191250295e-05, 0.00011862918528676574, 0.00019741020316087982, 0.00037901221001203806, 0.0004772355848523336, 0.0006168334944875782, 0.0007515206007633415, 0.0009058891703856759, 0.0011102664300916853, 0.0012978107285084423, 0.0014463849980513393, 0.0016792712583059987, 0.0019268228990322017, 0.0022667177635742808, 0.0025334816864637866, 0.0028190337196201645, 0.003122704247737518, 0.0034439145067055124, 0.003797722643754418, 0.004150623728721255, 0.004497317195954816, 0.004886989990052802, 0.005291681621355073, 0.005738493261387902, 0.00616944208313299, 0.006601093351162657, 0.007066255271653397, 0.0076163071723255255, 0.008102330800288644, 0.008607062985414027, 0.009153246080794035, 0.009690753228187417, 0.010186464357184868, 0.010768004192967164, 0.011363614211757706, 0.0120725470092026, 0.01268401234612939, 0.013309541860375185, 0.01396083652920777, 0.014630394398174833, 0.015288580894101733, 0.01599702602961435, 0.01677924564502294, 0.017511160134641948, 0.018261743504121266, 0.019057759212318802, 0.01984093497250213, 0.02060620104116185, 0.021431643639996237, 0.022273176326155945, 0.02316771675092798, 0.02403670120389113, 0.024941342232116324, 0.02584417075352277, 0.026765680774324962, 0.027746412701802912, 0.028699300211993344, 0.029625783544343216, 0.030624637337997924, 0.03164029406092461, 0.03270198991067407, 0.033747789355954655, 0.034794787532091725, 0.03588008046490969, 0.03698289521692195, 0.038124719873528126, 0.039260183200006994, 0.04038359126160876, 0.04156106314484926, 0.042755797348108186, 0.0439913937654077, 0.045218491180979696, 0.0464571540148258, 0.047723974348379536, 0.04900982197062089, 0.05034984138256492, 0.051669752258876094, 0.05310637643535134, 0.0544569775192689, 0.05583413968897661, 0.057145648110371094, 0.05858514282252553, 0.06012368618907449, 0.06159199806346623, 0.06308460615049785, 0.06458167204958093, 0.06612422866369991, 0.0677201468781497, 0.06930324091147355, 0.07091031040840971, 0.07246919783813494, 0.07413274038270938, 0.07585659028621285, 0.07755443798862044, 0.07927506361871667, 0.08101860015211439, 0.0827851935179794, 0.08457305593495641, 0.0863864878400497, 0.0882233624371211, 0.09015193135711122, 0.09202767102920154, 0.093925428378338, 0.09585726017069761, 0.09781598811532302, 0.09977227240337348, 0.10178801182186195, 0.1038344659287281, 0.10589942042003729, 0.10798996780805752, 0.11015292580374787, 0.11228921456360233, 0.11449307449488254, 0.11668160032789905, 0.1189006236442158, 0.12112249477525866, 0.12340475287182918, 0.12565075659119976, 0.1279969563236375, 0.1303674954424054, 0.13283099656289485, 0.13524325988377975, 0.13768135742561924, 0.14015345223966197, 0.1426548706691009, 0.14515642959105973, 0.14772015650800688, 0.150297969152401, 0.15291908177554359, 0.15556765071650994, 0.15832180149004685, 0.1610164554075768, 0.16374971380121525, 0.16650880949743455, 0.16930033195681637, 0.17211619485801627, 0.17497267722769813, 0.17787008548446162, 0.18078762685559505, 0.18373670504633846, 0.18673078090420445, 0.18974078743843134, 0.19275744339794187, 0.19583431367734344, 0.1989413471235208, 0.2021155609838252, 0.20527846187381918, 0.20846213835288868, 0.2116911632685989, 0.21495153469753372, 0.218249001957133, 0.22157108773124515, 0.22488184762532337, 0.22827214451891176, 0.23169129585686699, 0.23517261615274743, 0.2386460338723989, 0.24213332631681936, 0.2456715954967448, 0.2492400365558733, 0.252908683819504, 0.25652869694570357, 0.2602003560107207, 0.2638858664764267, 0.2676053973178204, 0.27131555041532485, 0.27510673331934477, 0.2789259059145946, 0.2827770861695143, 0.2866578552738322, 0.2905389382819491, 0.29448224390921357, 0.29844732441561406, 0.3024466885186132, 0.3064735037585462, 0.31061923902571914, 0.31468959399559904, 0.31875570099056255, 0.3228953558418147, 0.32706416118819615, 0.33124231454094794, 0.3354708166045743, 0.339745777016302, 0.34402566846506316, 0.3483332915748582, 0.3526682805362836, 0.3570302739985557, 0.3614325250471306, 0.36584573274388993, 0.3702856368944245, 0.3747089914759255, 0.3792063079905296, 0.3837246068423672, 0.3882679274261859, 0.39283383725619686, 0.397499964150898, 0.40210072694766125, 0.40666955147264017, 0.4113296099093717, 0.41601109351539833, 0.4207370250652216, 0.4254574555506758, 0.4301801846457111, 0.43494600656318017, 0.4397313783338957, 0.4445417464889744, 0.4493643035161691, 0.45416858403278604, 0.4590326703857674, 0.46391238370120846, 0.4688561364126206, 0.4737603115842228, 0.4786471084166906, 0.4835902384346588, 0.4885476080508444, 0.4935518637391924, 0.49853227761954133, 0.5034769253768587, 0.5084925674566707, 0.5135186838834139, 0.5185257910636536, 0.5235755546101493, 0.5286855886291756, 0.5337440565945444, 0.5388127888691735, 0.543891052618682, 0.5489781174851494, 0.554063532670874, 0.5591672458955395, 0.5642128657333549, 0.5693361961088234, 0.5744606979097681, 0.5796309457206603, 0.5847516166605305, 0.5897897544437191, 0.5949265878389458, 0.6000602250170837, 0.6052411882239325, 0.6103618436303915, 0.6154389879849322, 0.6205628957776288, 0.6256822685424722, 0.6307675576609183, 0.6358803489456263, 0.6410051077683533, 0.6461001878212508, 0.6511882173778967, 0.6562841679997024, 0.6613543409275627, 0.6663581459081456, 0.6714188252192432, 0.6764665820226381, 0.6815691238032751, 0.6865813169274767, 0.6915365057142671, 0.6965328601961198, 0.7015141497056345, 0.7065088964447509, 0.7114544069444337, 0.71634559111497, 0.7212642005582479, 0.726163312798896, 0.7309742625847504, 0.7358411355917718, 0.7406652910390165, 0.7454838109109844, 0.7502757822461791, 0.7550896641572264, 0.759821846127892, 0.7645081108571676, 0.7691931686806457, 0.7738509409790434, 0.7784613617529664, 0.7830651308567641, 0.7876230248146219, 0.792167586098905, 0.7966798461333072, 0.8011593259478508, 0.8056055041888935, 0.8100489348034822, 0.8144228703191172, 0.8187634860157139, 0.8230523921064706, 0.8273259252673406, 0.8315664146231619, 0.8357648795977529, 0.8399252041223816, 0.8439980269464701, 0.8480859740430179, 0.8521794294094057, 0.856174676203082, 0.8601288142232931, 0.8640390842371198, 0.8679088233493963, 0.8717155061280152, 0.8754997325839821, 0.8792377737611352, 0.8829504560107532, 0.8865917279175082, 0.8901571454910725, 0.893707987663945, 0.8972090396553685, 0.9005976100889576, 0.9040055380847798, 0.9074482037015145, 0.9107354152149644, 0.9139728962772364, 0.9171462066014127, 0.920283500790993, 0.9233076504560839, 0.9263462282466471, 0.9293273612346283, 0.9323073546818164, 0.9351661708187445, 0.9378750513929273, 0.9406359574280037, 0.9433355961924821, 0.9460247010381297, 0.9485958739538561, 0.9511283955268648, 0.9535805076622385, 0.9559748012009881, 0.9582757215597669, 0.9605571701359196, 0.9627053098508603, 0.9648729377800057, 0.9669747697349806, 0.9690695084754762, 0.9710333991499788, 0.9728695369289423, 0.9747182028039563, 0.9765009165920817, 0.978272366482023, 0.9799169622019998, 0.9814311690383622, 0.9829593648792956, 0.984420743934829, 0.9858777728070824, 0.9871983302431022, 0.9884114294640299, 0.9896117903753063, 0.9907461756061468, 0.991872962680121, 0.9928681350098152, 0.9937812520195466, 0.9946532069832245, 0.9954606044788511, 0.9961721399362526, 0.9968538080213583, 0.9974881273776552, 0.9980338926980122, 0.9985142382452971, 0.9989135893984474, 0.9992650261928177, 0.9994898938105541, 0.9997165379929075, 0.9998738431044578, 0.9999819120402427, 1.0, 0.9999866597342162, 0.9998678236768581, 0.9996852273095258, 0.9993922540093845, 0.9990882179079926, 0.9987063669580802, 0.998272012726893, 0.9977718380665377, 0.9972452879633679, 0.9966101934899348, 0.995862493414777, 0.9951098692634941, 0.9942927333387884, 0.9933786577499811, 0.992438536041489, 0.9914707999138781, 0.990397710727997, 0.9892637338071562, 0.988080972055816, 0.9868250527821988, 0.9854596546414713, 0.9840926328510239, 0.9826645661810873, 0.9811412420621555, 0.9795978426067621, 0.9780248145690794, 0.9763569823377476, 0.9746320644055312, 0.9728195767769818, 0.9709862940804261, 0.9691018663368238, 0.9671547413357336, 0.9651526350824278, 0.9630398976765902, 0.9609371610162186, 0.958766777347215, 0.9565547001302734, 0.9542882098312206, 0.952036476422247, 0.9496558290885897, 0.9471946875879363, 0.9447237436082713, 0.942204330943923, 0.9396468881790386, 0.9370314485521448, 0.934377988929818, 0.931670589087745, 0.9289190737055634, 0.9260423458614997, 0.9232146580121173, 0.9203380908202979, 0.9174180542031157, 0.9144534566753996, 0.9114610182491485, 0.9084087691977969, 0.9053395002157981, 0.9022044860624561, 0.8990321918870073, 0.8957902262147769, 0.8925495541839454, 0.8892698200755934, 0.8859561123033523, 0.8826070597866718, 0.8792449741906163, 0.8758252732476132, 0.8723508003681827, 0.868871869323416, 0.8653615894297892, 0.8617450232683861, 0.8581843124430957, 0.8546139785381455, 0.8509858677527047, 0.8473289518389175, 0.8436132310944694, 0.8399059288223514, 0.8362140559372541, 0.8324478819831304, 0.8286319450633108, 0.8248249043461353, 0.8209953293479211, 0.8170936366886276, 0.8132282729009879, 0.8093675844186833, 0.8054549729147477, 0.8015238468131751, 0.7975576357006408, 0.7935944507500385, 0.7896397434014708, 0.7856407435639108, 0.7816282873412557, 0.7776069672321908, 0.7735692100045246, 0.7694600254366716, 0.7654082479737975, 0.7613432461773781, 0.7573031020101529, 0.7532103287164174, 0.749096025814744, 0.744989811573328, 0.7408762558931337, 0.7367852949750496, 0.7326556546291051, 0.7284564447180835, 0.7243287301281794, 0.7201948215660102, 0.7160790899591575, 0.7119328986118675, 0.7077633832355961, 0.7036167253423969, 0.6994683101088892, 0.6953286945068421, 0.6911780016318723, 0.6869973803979926, 0.6828536428973583, 0.6787106327589998, 0.674536161410478, 0.6704013420465538, 0.6663184176364844, 0.6621808851494059, 0.6580494656884401, 0.6539324026318235, 0.6498136154171067, 0.6456444195457367, 0.6415492448378803, 0.6374594921911351, 0.6333857394675112, 0.6293081097674378, 0.6252057884089138, 0.621149685812092, 0.6171012936775851, 0.6131353200164812, 0.6090953949337812, 0.6049820947463798, 0.6009815410987026, 0.5969903363182397, 0.593036509556092, 0.5890629122845311, 0.5851335283465409, 0.5811826049590393, 0.5772473159583239, 0.5732597144180284, 0.5693646424199061, 0.5655070278498195, 0.5616338040541883, 0.5577754897715724, 0.5539713414554265, 0.5501390025949507, 0.5463267246106484, 0.5425303554287676, 0.5387521959793953, 0.5349980819397638, 0.5312556270466754, 0.5274889829104064, 0.5237891135458914, 0.520105442773536, 0.5163800049534214, 0.5127371834155625, 0.5092133043181024, 0.5055858340265535, 0.5019796101137161, 0.4983632653395125, 0.49480273734780855, 0.49125910066313694, 0.4877365783670177, 0.48423295206201905, 0.4807171991230126, 0.47725555734605024, 0.4737879714266511, 0.47036437087935257, 0.4669574325352177, 0.46357924428014335, 0.46020536003179996, 0.45689461061519204, 0.4535520626286631, 0.4502307405445071, 0.44685844492159654, 0.44358793016032977, 0.44033389477178375, 0.43709670976148507, 0.4338766857099326, 0.4306896341622912, 0.4275026816422395, 0.4243946636594652, 0.4212373933945643, 0.4181021273617675, 0.41495722184611705, 0.4118683453751599, 0.4087613094162468, 0.4057145094179334, 0.4026840876360015, 0.3997168409164877, 0.39671362364590373, 0.3937413474669385, 0.3907748540014721, 0.3878276094516882, 0.3848700383310158, 0.38196378203832304, 0.37904676723371167, 0.3761767794283019, 0.37332151271605507, 0.37054328724573904, 0.36770984746775937, 0.3648831374453762, 0.36208746411868403, 0.35930856365615443, 0.35650526019455375, 0.35376406146189854, 0.35108303703346483, 0.3483629828243045, 0.34565909070790657, 0.34296707491523054, 0.3402948316013973, 0.33767629929142773, 0.3350284785058147, 0.3323970701994393, 0.3296998158135677, 0.32710983948630495, 0.3245514564909285, 0.32197938391773234, 0.3194190710843377, 0.316839347470518, 0.31430629605182525, 0.311825814448215, 0.30930708285792263, 0.3068007943432793, 0.304269725206248, 0.30179216763068595, 0.2993319465334899, 0.29687256356097574, 0.2944232274802994, 0.29204997277365474, 0.2896121195292883, 0.28712940677865584, 0.28472522836919745, 0.28233000303988803, 0.27997282123092676, 0.2775915709623599, 0.2752439793053194, 0.2728800854836811, 0.2705271627641969, 0.26817111174545033, 0.26584043067023655, 0.2635652839751571, 0.26124617257968186, 0.2589380407873541, 0.2565547293498688, 0.2542776335346963, 0.25200120468095827, 0.24973396924006186, 0.24747154595595333, 0.2452627613400276, 0.24300442258169866, 0.24072499669588435, 0.23848623523677456, 0.23625339813344123, 0.23400704887873314, 0.23178853567470978, 0.22956124402053252, 0.22735425967135037, 0.22515160316031027, 0.22298653563155246, 0.22078893648334003, 0.2186019294668909, 0.21641709754373328, 0.2142389035629601, 0.2120185784375658, 0.20985935161394909, 0.20775805363837185, 0.20559918411498562, 0.20344736891281004, 0.201292656761985, 0.19915552007258466, 0.19707678629635272, 0.19494473937026666, 0.1928214034155896, 0.19063824895484682, 0.18853958827553693, 0.1864407007006477, 0.18435010660306803, 0.1822751052877163, 0.18019113302414366, 0.17811221335516075, 0.17603457358929742, 0.1739665970003607, 0.17193685282195048, 0.16987519026361048, 0.167820838338694, 0.16576199888213441, 0.16372338063151037, 0.16167166946213843, 0.15964826162019327, 0.15763022212276542, 0.15559444458803093, 0.15359076629552015, 0.15159374925578883, 0.14959965106499265, 0.14761113493949862, 0.14563824596316297, 0.14366061175027345, 0.1417191811399956, 0.13975212119401131, 0.137794110386099, 0.1357945403752374, 0.13386089317136995, 0.1319236597899259, 0.1300039437828205, 0.12809064731106773, 0.12630283660093863, 0.12438870396060933, 0.1224441847552031, 0.1205637920938095, 0.11869414485428904, 0.11677880603659417, 0.11493767439656145, 0.11317991918293889, 0.11134478115058424, 0.10952241032969597, 0.10768736121723115, 0.10589327102877479, 0.10410628750475616, 0.10233485526829227, 0.10057456252392721, 0.09878480401290422, 0.09705264678137328, 0.09532031873645397, 0.09360906606090283, 0.09190792572420209, 0.09022525418782747, 0.08854504974004919, 0.08694117987671254, 0.08527759943081477, 0.08363057479800165, 0.08198439764738329, 0.0803720407450785, 0.07879254435696621, 0.07720879315658509, 0.07564159949011456, 0.07401900945232553, 0.07249403751106175, 0.07099332247582571, 0.06949271147104372, 0.06800660820931638, 0.06654325850751754, 0.0650865611406824, 0.063669459319612, 0.062242658775688305, 0.060834062765910975, 0.059445724161585646, 0.058073627366701804, 0.05670270020123115, 0.05537027800585359, 0.054055796093360635, 0.05275758921390468, 0.051480060743124854, 0.05031061689540713, 0.04905931906881486, 0.04783219848210156, 0.04659183572335831, 0.04541639943527019, 0.0442074313159657, 0.043080746668259146, 0.04197201919070409, 0.04092065340166885, 0.039844427184303116, 0.03876449053967544, 0.03773468916278014, 0.03672522973221727, 0.035709198430309584, 0.03474477192031769, 0.03385641715474452, 0.032924693010761646, 0.032016710422903126, 0.031068232705243847, 0.030215661027075007, 0.029418080321361006, 0.028601559933998103, 0.027807935614186846, 0.027078158053427382, 0.02632550278630865, 0.025536134388624877, 0.02484213152013145, 0.024169706291027597, 0.023503627393334857, 0.02287726165645333, 0.022301634686586493, 0.021715071245733745, 0.02115236698042993, 0.020652440242468092, 0.02013261410506969, 0.019600000951587093, 0.019136990654997913, 0.018697317552735484, 0.01825576763611517, 0.017866144299536906, 0.017554981372981875, 0.0172025948237113, 0.01687585950976267, 0.01656281058913847, 0.01628798414845002, 0.015996497313031426, 0.015775043466736194, 0.015575199257811706, 0.015414662789328858, 0.0152563795390003, 0.015163947948570587, 0.015046351961742511, 0.014954118930818997, 0.014834330284260363, 0.014798241682503384, 0.014775630904340314, 0.014783125572562457, 0.01481158461504832, 0.014899988514981748, 0.014965695899112529, 0.014990551912948163, 0.015110688820409347, 0.015249916645544486, 0.01541623194117031, 0.015593257863750667, 0.01579224834607565, 0.016009070772982588, 0.016245991994289933, 0.016500987331664864, 0.016778084237165845, 0.017096240469872803, 0.017409833201286758, 0.017743994840545774, 0.018156706073779196, 0.018523569431392866, 0.018825717707760647, 0.01924840338360201, 0.01968739254810115, 0.020156296459812175, 0.020626131332183502, 0.02110902871900141, 0.02161304006137, 0.022133331503165786, 0.022673573145753807, 0.02322525840678398, 0.02381606702426065, 0.0243960811308929, 0.02499258527941621, 0.025614796149784496, 0.026241548652138545, 0.026864417866652314, 0.027524208861965275, 0.028197403421425578, 0.028885597037315507, 0.0295843024572783, 0.03027407387133735, 0.03100001998317282, 0.03173647018868118, 0.032560998857275265, 0.03330798307408101, 0.034014707292034194, 0.03479605466172749, 0.03558680689579603, 0.03636912285864914, 0.0371798702420866, 0.0380174473977749, 0.03884029016951802, 0.03967115583812379, 0.04047074026782591, 0.04132132756600731, 0.042184293497513334, 0.04304299921580452, 0.04390650484825766, 0.04478040880581336, 0.04565204781583936, 0.04657470863215582, 0.04744880913621506, 0.04832918087137835, 0.04924425077139246, 0.05013129386336795, 0.05101052418057925, 0.051910016711040945, 0.052812864394757984, 0.05364841673356153, 0.05456491446684928, 0.05555677262684156, 0.05645860386877116, 0.0573934626177314, 0.05829448889417465, 0.05919781420484617, 0.06001700797957624, 0.060933196999785125, 0.06183473294672612, 0.06274228259267402, 0.06364430342539347, 0.0645757956270857, 0.06546229053852096, 0.0663120450334634, 0.06719496050517373, 0.06807156011726882, 0.06898061970391191, 0.06983930037793, 0.07069925956314266, 0.07154759293101612, 0.07239071939211938, 0.07322035337031663, 0.07405255024407072, 0.07487764981599582, 0.07569527267635204, 0.0765050505954747, 0.07730273701041547, 0.07809625430449921, 0.078832053298087, 0.07961320839840172, 0.08038194013468741, 0.08114612995475083, 0.08188929840783322, 0.08270233411462637, 0.08341149809829299, 0.08411327241063066, 0.08481077456333531, 0.08549502905607546, 0.08611943232142785, 0.08679086931381104, 0.08744898634647842, 0.08814617437083405, 0.08877067697863035, 0.08936696136435308, 0.08997169846510313, 0.09056370096992629, 0.09109210713057625, 0.09166414379085112, 0.09221976776335288, 0.09275915026066447, 0.09328243181113537, 0.09380528177602149, 0.09429471065419781, 0.09476529380625844, 0.09522522618692635, 0.09566983390265424, 0.09612824157798053, 0.09653838106155715, 0.09692108677786346, 0.09730502175496791, 0.0976738383644913, 0.09801770007044883, 0.09835717949605687, 0.09865346633911681, 0.09896444842727121, 0.09925793399049776, 0.0995341448218399, 0.0997932780255617, 0.10007828831443767, 0.10029836592316753, 0.10050424113601931, 0.10074236661644269, 0.1009133222253818, 0.10106825323210224, 0.10121492889524497, 0.10134832262767314, 0.10142143658826977, 0.10153323456614409, 0.10164580834219862, 0.1017221456250078, 0.10178313998783174, 0.10180551227903467, 0.10183895115167425, 0.1018734478824742, 0.10187207421479313, 0.10185580023660541, 0.10185586270939379, 0.10180623810975704, 0.10171663860517575, 0.1016448542318377, 0.10155863333951066, 0.10151456245707723, 0.10139293235090564, 0.10123341262829606, 0.10109365108122552, 0.10094127611512255, 0.10084249691427985, 0.1006568481318424, 0.10046459881494672, 0.10026124474279438, 0.10004880038588151, 0.09982509694459561, 0.09959411592848719, 0.09939235864176181, 0.09913711204073969, 0.09887440028290846, 0.09863704687049589, 0.09835460546980172, 0.09808358570645125, 0.09778649011501847, 0.09748382091171479, 0.09717921448212258, 0.09686423865395666, 0.09658424529947963, 0.09625236161867104, 0.09591690449913329, 0.09552513245052313, 0.09518854123274692, 0.09485470569796023, 0.09450338675676119, 0.09414653090004724, 0.09383313286915547, 0.09346022202413595, 0.09308375785827969, 0.09270791450796567, 0.09233049111973973, 0.09197693310733435, 0.09159369870011573, 0.09121676542585039, 0.09083381055279618, 0.09045186959043999, 0.09014108370187872, 0.0897527859836782, 0.08934665550255137, 0.0889720175412535, 0.08860108826165435, 0.08824951327284235, 0.08788436189673939, 0.08754173051600452, 0.08718452573747992, 0.08683361861430425, 0.0865065933134583, 0.08616637981224912, 0.08581248063478422, 0.08549048162237796, 0.08517524861955157, 0.08491577724453572, 0.0846091022920534, 0.08436174972258127, 0.08407040010111282, 0.0837926551383933, 0.08355551678886185, 0.08330097298399643, 0.08305923449285794, 0.08283425645688923, 0.08262365456813169, 0.08236910858494885, 0.08219475135669757, 0.08210952871938441, 0.08194872105278554, 0.08180497317271845, 0.0817152603989589, 0.08160111680826326, 0.08144610817916775, 0.0813783245512281, 0.08132647233886679, 0.08130276526069906, 0.0812829436145138, 0.08131635561139193, 0.08132902920172488, 0.0813628198160965, 0.08139652788774018, 0.0814758661887614, 0.0815894151134416, 0.08170869494847197, 0.08185026991410163, 0.0820281115724083, 0.0822136495559224, 0.0824466989478236, 0.08267792520062744, 0.0829352260085485, 0.08318956683549787, 0.08350314061517165, 0.0839252708182416