0.03790862945388469, 0.037163104302047945, 0.03650357784940362, 0.03584531741814276, 0.03526351832469973, 0.03470819017630343, 0.034194354813063814, 0.03367811024291411, 0.03315414668593075, 0.03267275302948029, 0.03220230600306626, 0.031745581111586686, 0.03129193917172289, 0.030838230882555658, 0.03039920539360878, 0.02996561397575755, 0.029579562241070133, 0.0291506035453245, 0.02870108045483815, 0.028289864969931015, 0.027883946014691553, 0.02748062052396715, 0.027086416172861158, 0.026606022667768896, 0.026235974153112778, 0.025867702710103694, 0.02548343339813757, 0.025124813186579963, 0.024777774331789095, 0.02442795759382283, 0.02408513937729702, 0.023747377581792066, 0.023421817039753493, 0.02316879456090752, 0.02285529389382268, 0.02255651260957525, 0.02215994978377117, 0.021905491839610897, 0.021701069988632794, 0.02146067727919973, 0.021233819205179777, 0.020968413925828124, 0.020777079290425403, 0.020663892638472674, 0.020489698000768865, 0.020333210528754194, 0.020155123717766402, 0.020039686558233853, 0.0199579348705286, 0.019873040321889895, 0.019806256123476793, 0.01970665601344981, 0.019683469844043153, 0.019729087530403734, 0.019732138340482833, 0.01975555938366711, 0.01976144068900248, 0.01983086275523704, 0.01985896872652462, 0.01997384802451014, 0.020104975935268374, 0.020256180575292222, 0.020422054868833566, 0.020636080073875195, 0.020836661042037356, 0.02105901823146167, 0.02129907842798425, 0.021566484499980935, 0.02183877365154251, 0.02215361872993529, 0.022490560014557424, 0.022839795961879218, 0.023223535074577563, 0.02367397290136641, 0.02409819780944432, 0.02454857847634441, 0.024951993096046853, 0.02546415925089971, 0.026057191778579496, 0.02660731166926677, 0.027184427459489426, 0.0277857640058519, 0.028417714937554895, 0.029071146947057876, 0.02975873123426098, 0.0304737747903954, 0.03122534694683539, 0.031995061627853906, 0.03271162627548657, 0.033549565663885464, 0.03441217755865467, 0.03530328792284255, 0.03621749529339456, 0.03721903058742804, 0.038180949653728626, 0.039174839242841986, 0.040167120227802035, 0.0412294841852235, 0.04233101851599046, 0.04345344786326113, 0.044607535022036175, 0.045797956432495186, 0.04701564867895012, 0.04827338707994977, 0.049555827230555814, 0.05087183688047121, 0.05215130491015629, 0.053543783354488714, 0.0550131756023907, 0.05646059373125911, 0.05794207052190893, 0.059454878500651745, 0.06100542935485547, 0.06258897104749647, 0.06420880070414835, 0.06586335677042285, 0.06746937243834335, 0.0692044135098312, 0.07100068868074304, 0.0727936246571832, 0.07458074287818446, 0.07644643779974342, 0.07834427776368867, 0.08027776485572641, 0.08224116561438381, 0.08426324150605811, 0.08629140261510335, 0.0883553387505485, 0.09044042132027492, 0.09257775952754443, 0.09476025047345311, 0.09696616302197011, 0.09920763613482636, 0.10146994060285938, 0.10378409112835381, 0.10615606944310997, 0.10853604731080291, 0.11095166254432333, 0.11338068542397299, 0.11586952811525515, 0.11835828108499981, 0.12091842678057269, 0.12351002090869986, 0.1261902634270936, 0.1288378227322243, 0.13144409800761778, 0.1341704418207883, 0.13692635731322864, 0.13973100890219695, 0.14254400242372506, 0.14535564581217536, 0.1482342137881904, 0.15114139121323725, 0.15413864982228567, 0.15709519719608855, 0.16003531012919311, 0.16306103845290398, 0.16611461147805676, 0.16924262136148766, 0.1723451821867624, 0.17539978816557825, 0.17857067825582942, 0.1817654027563951, 0.1850029198553873, 0.18824263124002422, 0.1915068449538986, 0.19479515932936717, 0.1981071419187966, 0.201493562814466, 0.20484499578387497, 0.20823029580340147, 0.21162984250828468, 0.21505310705291494, 0.21841423408758143, 0.2218928251865601, 0.22543442606424982, 0.22893924354766063, 0.2324624133019526, 0.23600617303732088, 0.23956360110146943, 0.24312720972918556, 0.24671805262301885, 0.2503232745513737, 0.2539173309286876, 0.2575524586161817, 0.2612541621299633, 0.2649036591425534, 0.26856618249414677, 0.2722275326297631, 0.27591471957964486, 0.2795672695598639, 0.2832776992558313, 0.28699322160478596, 0.2906840569525644, 0.2944119072197887, 0.29815473697570116, 0.30188414105590844, 0.30561524210569196, 0.3093547388107962, 0.3130864085977444, 0.3167845440720955, 0.3205199457300859, 0.3242519903588276, 0.3280503760912022, 0.3317650867306917, 0.33547708363931267, 0.33918821124789705, 0.34289550236541544, 0.34658897908230296, 0.35028614610472797, 0.3539725421449357, 0.3576533352601148, 0.36132401620393334, 0.36500552612159587, 0.3686501669418034, 0.37226386932990563, 0.3758859191683981, 0.3794926625197181, 0.38303628444531757, 0.38661541328731147, 0.3902029616182562, 0.3937360849942757, 0.3972487640684989, 0.40078106925251883, 0.4042449278106641, 0.40762786597223544, 0.41105623656043166, 0.41445784510590095, 0.41781588111199525, 0.4211638439876922, 0.4244848559269541, 0.42777203342676384, 0.43102814368004255, 0.43422755265283025, 0.4374223977922109, 0.44062636694478163, 0.4437454665368803, 0.4468309674208441, 0.44984376563271056, 0.4528637532998202, 0.45589467103885284, 0.4588299891064109, 0.4617278320244546, 0.46457241300906993, 0.46739373998391953, 0.470171952179051, 0.47290922100027566, 0.47560288702673126, 0.4782256990458988, 0.4808327905438227, 0.48341115220061326, 0.4859196640167177, 0.4883801577538591, 0.4907449589777927, 0.4931128449697568, 0.49549933498751, 0.497751488901558, 0.4999536642573847, 0.5021135784052305, 0.5042115380335236, 0.5062598828531683, 0.5082513857351013, 0.5101885552127108, 0.5120441127656056, 0.5138731990510108, 0.5155735550534021, 0.5172939931182483, 0.5189508487510108, 0.5206421910382114, 0.5221594204283528, 0.5236008379993756, 0.5250028549734892, 0.5263438216406808, 0.5275718273917868, 0.5287951680276535, 0.5299145938049321, 0.5310108669290546, 0.5320387989456021, 0.5330585100750541, 0.533942442833213, 0.5347118137174419, 0.5354719450525609, 0.5361635091084669, 0.5367923145986646, 0.5373458439510258, 0.5378763130472057, 0.5382870895621747, 0.5386316874355274, 0.5389315527366426, 0.5391395356343547, 0.5392123895857311, 0.5392958573273606, 0.5393081011157879, 0.5392726718060514, 0.5391398882980007, 0.5389697602300559, 0.538693730849488, 0.5383498225957956, 0.5378513795679208, 0.5373818015728841, 0.5368490190469897, 0.5362317979441509, 0.5355427690628487, 0.5348525901986149, 0.534012239726791, 0.5331124901128603, 0.5321375724599807, 0.531095999884694, 0.5299583578932595, 0.5287868225049325, 0.527483819375167, 0.5261834660647505, 0.5248116334426466, 0.5234233119212542, 0.5219041302668165, 0.5202925468480746, 0.518644884922318, 0.5169303159027933, 0.5151172084556527, 0.5132746130762261, 0.5113694194715023, 0.5093931352557461, 0.5073517748110928, 0.5052885536059321, 0.5031139640228802, 0.5008818804700318, 0.4985864815831966, 0.4962097177402528, 0.4937987373442028, 0.49132807653124755, 0.48879698710662767, 0.48620931209501317, 0.48358016761019373, 0.48087608919873137, 0.47811690584430105, 0.47524913332383906, 0.47238864158113164, 0.46952774288499666, 0.4665493601128342, 0.46352044330511494, 0.4604168133047898, 0.457292124960503, 0.4541089459917444, 0.4508869612065469, 0.4476168007433754, 0.4442922394520703, 0.44092993252712065, 0.4374988979492236, 0.43405008928569305, 0.43055695894602825, 0.42702230326261675, 0.4234443169559834, 0.419888957438227, 0.41622364060793654, 0.4125240395437548, 0.4088040526976027, 0.40503644580654363, 0.4012039599471349, 0.39737895224386655, 0.3935224344243509, 0.38956382809382184, 0.38565680550476716, 0.3817499206807728, 0.3777764533978026, 0.3737761790840176, 0.3697958539420645, 0.36574035181379033, 0.3616763901276583, 0.357580038329744, 0.35346614768609697, 0.3493224848119458, 0.34517804264240287, 0.34096556371154296, 0.3367982537466249, 0.33261496777411, 0.32848757236328774, 0.32426823198102994, 0.31997715842759816, 0.3157522361081728, 0.31151827437936325, 0.3072738700993769, 0.3030267396717125, 0.29879391069086997, 0.29453637639721075, 0.2902780668910278, 0.2860407227145089, 0.28178201083950916, 0.27747177962494185, 0.27322937250140344, 0.2689900938157353, 0.26472620860204554, 0.26050146205937275, 0.2563412366117906, 0.2521226785591978, 0.24791660939923707, 0.24368748835147588, 0.23951418533340688, 0.23540278817012852, 0.2312519363223653, 0.22712006870380266, 0.2229334295701811, 0.2188516702120162, 0.21479182744023878, 0.21074609878468692, 0.20672114609463413, 0.20280177515715028, 0.19881189120184423, 0.1948338665502043, 0.19090560908298557, 0.18700694614437302, 0.1830596118778558, 0.1792324735423023, 0.17552946618343873, 0.17174660460645516, 0.1679995019691713, 0.16423452522946583, 0.16056739715338128, 0.1569668609464607, 0.15336548563686905, 0.14980236268863764, 0.14620795050635235, 0.14273236897237124, 0.139369361390727, 0.1359583502553502, 0.13259054444089807, 0.1292327941679247, 0.1259572139357028, 0.12274208888885589, 0.11955087499680454, 0.11640511784664141, 0.113280535052603, 0.11023062768968998, 0.10719726773148357, 0.10424346359340567, 0.10133531201313875, 0.09845762309244127, 0.095645478354878, 0.09289964570759132, 0.09018051145243121, 0.08751135522461842, 0.08492932733170672, 0.08235712685004619, 0.0798472813889945, 0.07738125312362357, 0.07496956405813428, 0.07254933579930307, 0.0702544740958397, 0.06805599079041755, 0.06585796863877272, 0.06371457319388162, 0.06160392758686482, 0.05957278645437885, 0.057612802890322716, 0.05568684076371075, 0.053815848839237394, 0.05197933500310104, 0.05022085816653964, 0.04847223820710415, 0.04682696358304856, 0.04523317818406263, 0.04370590731448979, 0.04221433335461621, 0.0407686806994298, 0.039384558748802506, 0.03805330949606509, 0.03684227385067827, 0.03560823219053325, 0.03435606771129769, 0.03324384413624712, 0.03218263089639119, 0.03115922327341783, 0.030201545544051647, 0.029312905210382625, 0.02845275224600719, 0.027643442144185744, 0.026871445486769834, 0.02616438652896434, 0.02551065797404986, 0.02490057862304799, 0.024338956642036044, 0.02382094230443724, 0.023355383085447712, 0.022927783629134585, 0.02255630630492816, 0.022230021387981025, 0.021954281288842255, 0.021716097057274484, 0.021543776187460853, 0.02138997952939479, 0.021279997179385276, 0.021192463954186613, 0.02117008380136291, 0.02120970772278583, 0.02126393973460294, 0.02135801456174819, 0.021553946382070976, 0.02171697159873237, 0.021958656763806265, 0.022196648991137675, 0.022474590017622486, 0.022698651564987998, 0.023063399648520964, 0.023565190753410382, 0.023976173843832223, 0.024422044625713617, 0.024880759953420727, 0.02539442536823151, 0.02596229275984245, 0.026530279194991145, 0.02712667776919335, 0.02770481101673897, 0.02835991874617264, 0.029116180084662928, 0.029804719622119724, 0.030518202129612322, 0.03126103088107612, 0.03201937350928639, 0.03277687754733742, 0.03357891908200821, 0.03439827623590494, 0.03526026387377846, 0.03610784479056345, 0.03703558802998147, 0.03790535298355249, 0.03879215393285177, 0.03963288419300965, 0.04055673742217365, 0.04158763685616201, 0.04251616633831262, 0.04345596970770527, 0.04440851196174551, 0.045370518735381275, 0.04638300074760917, 0.04735433942783407, 0.048362727747721865, 0.04934436137853036, 0.05033240931638852, 0.0512989316284075, 0.05229847435619925, 0.053297038057266856, 0.05429665981609005, 0.0552945888874786, 0.056380619212318614, 0.05736085835746829, 0.05832272229912106, 0.05930510546750162, 0.06028405926632057, 0.061297922353788566, 0.06226155478494317, 0.06318992626190452, 0.06414712136105023, 0.06509561024702816, 0.06604625996253258, 0.06697337771541599, 0.0679720341292137, 0.0688671275838872, 0.06975484299660895, 0.07064260085480027, 0.07151048745271862, 0.07234287869122416, 0.07319159280156746, 0.07402620938138202, 0.07485334470271661, 0.07565679197259234, 0.0764592525468805, 0.07722899981795095, 0.07798279402447704, 0.07878588398017328, 0.07949764377409649, 0.08022912520554332, 0.08090775236200407, 0.0815724615585131, 0.0821724409281477, 0.08281259869017384, 0.08345377085013883, 0.08405208237356945, 0.08463151279082849, 0.08526340865709452, 0.0857949375027848, 0.08632089959259469, 0.0868187179997413, 0.08729983837851965, 0.08774897749640385, 0.08819672331849245, 0.08863410980412981, 0.08904223031587088, 0.08943130665985191, 0.08982312205360457, 0.09017088060221376, 0.09051074502810179, 0.0908207580009252, 0.09111293904057884, 0.09145157943063706, 0.09169968472241048, 0.09189099156507756, 0.09211532884265675, 0.09232218252183876, 0.09250583072422026, 0.09267891272976903, 0.09291378709455621, 0.09304271076792818, 0.09315952792062486, 0.09326401049053785, 0.09335604153367524, 0.09344877894370354, 0.09351428609356609, 0.0935683017612483, 0.0936094927143778, 0.09364118448885035, 0.09360631178079558, 0.09362351883149628, 0.0936274563832329, 0.09370980499927845, 0.09367850928576692, 0.09364766155034204, 0.0936049961135941, 0.09355770877319561, 0.0934621916049664, 0.09341220322471289, 0.09334748493826545, 0.09328758123276942, 0.09322298934771092, 0.09316931280217543, 0.09309639486473541, 0.09305032755542354, 0.09297282868836973, 0.09289765993486214, 0.09281963198907216, 0.09275190286543729, 0.09265170121315566, 0.09259766836226294, 0.09254738318620097, 0.09252104411307287, 0.09247934190518284, 0.0924825121713289, 0.0924537150235359, 0.09243720584862324, 0.09246880865691134, 0.09247455939094965, 0.09243676362690599, 0.09248356430316483, 0.09254458660361062, 0.0927205013195863, 0.09280078523978294, 0.09287792060380769, 0.09300825191953206, 0.09316103410268953, 0.09326964290056203, 0.09347801200373049, 0.09374390999960809, 0.09399090117867805, 0.09426360339195358, 0.09456742559027169, 0.09489405429678645, 0.09524092880768262, 0.09562772103344386, 0.0960450477109319, 0.09647495730098396, 0.09695898353462826, 0.09750642581980985, 0.0980531289819731, 0.09863662410649526, 0.09927538380080732, 0.09993297083980675, 0.1005974077507329, 0.1013410608138174, 0.1021249130368022, 0.10300566641249201, 0.10386610154745096, 0.10469106101952672, 0.10565541444790806, 0.10666282872794261, 0.10771166439496034, 0.10880937658115442, 0.10995221517152126, 0.1111444405068876, 0.11238541814360573, 0.11374646771551648, 0.11507920012309744, 0.11647791695849948, 0.11792119353714793, 0.11942154052568422, 0.12094123813474451, 0.1225615816060652, 0.1242643084729618, 0.12599411527836604, 0.12778286079845802, 0.12960612977800687, 0.13151730828262082, 0.13345085046978344, 0.13548524246540902, 0.13757785355183302, 0.13977935927055013, 0.14198477589597003, 0.1442449548884713, 0.14657889443644553, 0.14897652589624144, 0.15140749050962357, 0.15393751295065167, 0.15653643945717707, 0.1591923877094817, 0.16191279734848849, 0.1647171159089982, 0.1675652572178795, 0.1704478577892773, 0.17343353758528743, 0.1764843397748419, 0.17963282931451452, 0.1828108394673636, 0.18601865253658004, 0.18933714563670298, 0.19272124980705235, 0.19620632057606685, 0.19971782729146892, 0.2032579099239428, 0.20691039259244198, 0.21062831142017677, 0.21439564020298738, 0.21824663641178577, 0.22220613823450114, 0.22618081469357845, 0.23022257596103732, 0.23427536774182559, 0.238457021151849, 0.24270861763643642, 0.24701456451583437, 0.2513834139489846, 0.2557973712644125, 0.2602935002756854, 0.2648258050229427, 0.2694469478131277, 0.27410815622601165, 0.27884971346656756, 0.28364885349093366, 0.28853612645715637, 0.29344588911016006, 0.2983775338716137, 0.3034081848810632, 0.3084938364683293, 0.3135930264168952, 0.3187923541917436, 0.3240924990954004, 0.32938727880102064, 0.3347350901110126, 0.3400881454349226, 0.345545063427066, 0.351039191086903, 0.3565916452352112, 0.36218956166089733, 0.3678526972031067, 0.3735366656293563, 0.37920773500299876, 0.38498618708960325, 0.3908033686662372, 0.3966512385493236, 0.4025445469904703, 0.4085220479300278, 0.4144801163677484, 0.4204748875324832, 0.4264390494868879, 0.43251120860059034, 0.4385812606870554, 0.4447136128652701, 0.4508708801026622, 0.4570785504909824, 0.46327964332913235, 0.4694545072352745, 0.47570763707786634, 0.4819788034327311, 0.48829187243145883, 0.4945928269736626, 0.5009113755744327, 0.5072429541261761, 0.5135878039336433, 0.5199663457269438, 0.526330327174818, 0.5327041232312169, 0.5390859456451839, 0.5454740084566502, 0.5518401809861044, 0.5582387086460963, 0.5646351929854911, 0.5710311841303821, 0.5774233658689317, 0.5837779422706644, 0.5901617766291444, 0.5965336944790185, 0.6028954229994044, 0.6092438012477195, 0.6155422416071318, 0.6218639509242162, 0.6282229456207049, 0.6344965642857936, 0.6407509834183563, 0.6469272752885982, 0.6531449985644954, 0.6593802023045626, 0.6655350484637448, 0.6716618029388257, 0.6776913359903428, 0.6837650385821707, 0.6898424967230341, 0.6958353378780741, 0.7017907534957758, 0.7076295130897017, 0.7135149292939205, 0.7194092324200836, 0.7251931215225517, 0.7309312768822749, 0.7365840349296415, 0.7422307163293201, 0.7477998297472775, 0.7533429964869461, 0.7588294669757738, 0.7643122506932132, 0.7696749890715726, 0.7749512204727129, 0.7802014966627346, 0.7853895275310495, 0.7904568200134388, 0.795523355705149, 0.8005070478123565, 0.8054349672198259, 0.8102905435932246, 0.8151094428933399, 0.8198128762459508, 0.8243772345267434, 0.8289412410670279, 0.8334256717182562, 0.8379087799930808, 0.8422216496114235, 0.8463617291405229, 0.8505297850498215, 0.8546118075037002, 0.8586071143278026, 0.8625149779424869, 0.8663156048665994, 0.8700486635584586, 0.8736908338032063, 0.8773116936627864, 0.8807611294755017, 0.884027813979362, 0.887309635388284, 0.8904945566229564, 0.8935806689700656, 0.8965706029028929, 0.8994489422936977, 0.9022431779354841, 0.9049371915405161, 0.907605188727189, 0.910087965415431, 0.9124733241086768, 0.9147601817467045, 0.9169475282824747, 0.9189919756006545, 0.9209829159097919, 0.9228795913183504, 0.9246598121946614, 0.9263353123862788, 0.9279276038927221, 0.9293895876749899, 0.9306868379961263, 0.9319464507017724, 0.9330969945231833, 0.9341180524981343, 0.9350532691891739, 0.9358404203732213, 0.9365606649024865, 0.9371692147402728, 0.9377485518053975, 0.9381248423712187, 0.9383676430070473, 0.9385358394260616, 0.938596351207009, 0.9385331671893044, 0.9383806445054674, 0.9381301379255496, 0.9377601690678017, 0.9372831797239107, 0.9366481993825099, 0.9359644574094516, 0.9352258490965973, 0.9343179733580462, 0.9333056195357361, 0.932162734781358, 0.9309456842398197, 0.9296280849697879, 0.9282012372076385, 0.9266709876293264, 0.9249691764402127, 0.9232427527365504, 0.9214081170965053, 0.9194727552967241, 0.9174344226603954, 0.9153031061424806, 0.9130613023266686, 0.9106898038738289, 0.9082550283655215, 0.9057216726376527, 0.9031539683933003, 0.900419336540862, 0.8975495325139916, 0.8946386445687567, 0.891635504493488, 0.888500288101538, 0.8853213088324047, 0.8821083518379407, 0.8787415297327887, 0.8752898198625302, 0.8717424970653717, 0.8681254822921992, 0.8643981722214458, 0.8606208887695636, 0.8567619484199902, 0.852869640609652, 0.848845807427646, 0.8446989765163223, 0.8405329249279047, 0.8362916415605866, 0.8319561777072655, 0.8275716467649066, 0.8231563339697562, 0.8186247848063902, 0.8140271426514132, 0.8093296078969194, 0.8046082388721754, 0.7998858162841114, 0.7950301904018995, 0.7901174710431123, 0.7850844171164366, 0.7800691997270627, 0.7750393749547745, 0.7699065131542366, 0.7647226253116416, 0.7594291514422891, 0.7541551853912376, 0.7488693181222568, 0.7434926305596344, 0.7380428202142153, 0.7325837637160753, 0.7270824731489188, 0.7215305740851479, 0.7159517016460207, 0.7103209267883995, 0.7046712623009044, 0.6989872573255096, 0.6933425857264668, 0.6875866452527973, 0.6817402630453194, 0.6759447746783627, 0.6701236008297743, 0.6642625221494826, 0.6583976271286656, 0.6525395078548804, 0.6466309502633708, 0.6407067263772357, 0.6347523580364474, 0.6288036996869776, 0.6228916240386397, 0.6169151496221108, 0.6109331081681196, 0.6048765406327726, 0.5988961777859867, 0.5929498069941452, 0.586955327173638, 0.5809613594332905, 0.5750074798951859, 0.569014275375682, 0.5629477517069339, 0.5569802924928976, 0.5510179179167871, 0.5451357102513132, 0.5391798782224945, 0.5331509266081099, 0.5272367498924458, 0.5213346564779088, 0.5154948420165596, 0.5096164135935679, 0.5037377557930538, 0.49790374991954284, 0.49209145891678124, 0.4863111161341014, 0.4805454656648817, 0.4747784711502047, 0.46907055987717666, 0.4633901124436306, 0.4577825133509664, 0.4521558105316179, 0.44652232720497714, 0.44097019797784404, 0.43545194191682557, 0.4299600922064986, 0.42451459691747456, 0.4190960558465884, 0.4137275197930343, 0.4083980883440216, 0.4031353630986617, 0.39788451989805346, 0.3926354195771058, 0.38747921915266564, 0.382366595135807, 0.3773397286314859, 0.372312602781349, 0.3672820662152735, 0.36236086290346775, 0.3574873594117117, 0.3527358352352418, 0.3479516896654908, 0.3431492489112769, 0.3384844595786185, 0.3338711110405557, 0.3293013605855555, 0.324794760648467, 0.32037687345231264, 0.3159738310703683, 0.31162794868517796, 0.307297210112036, 0.3030722923615407, 0.2988960722395344, 0.2947848268675563, 0.29073055296925154, 0.2868202626517772, 0.2828709043243627, 0.2789368315439576, 0.2751205398101617, 0.2713647231698782, 0.26769888938662867, 0.26406099635534525, 0.26049755824825943, 0.25698360075285454, 0.25353290329247885, 0.25007504675630127, 0.24675928577374923, 0.24354045195759996, 0.24033804915263612, 0.23719744459968112, 0.23414936965268068, 0.23112843184217724, 0.22816068446210105, 0.22526759581301048, 0.22243673839604425, 0.21959031115718625, 0.21689304892257727, 0.21425150750143243, 0.21166917265180718, 0.2091445972788841, 0.20672190637531554, 0.20430785795830994, 0.20193395046390678, 0.19964340141475667, 0.19741160054230408, 0.19522367984864974, 0.193110495541621, 0.19110127199172525, 0.18909618523924193, 0.18715035682879477, 0.18519576541228697, 0.18337490489727334, 0.1815752693066236, 0.17986519843232765, 0.17820640816198788, 0.17664426878264428, 0.17508219684675333, 0.17362929889831705, 0.1721666842019749, 0.17075949347870692, 0.1693290452559476, 0.16803923777273896, 0.16684413505519857, 0.16564375259658806, 0.1644930459020552, 0.16332528698106605, 0.16227968352615796, 0.16131261673988187, 0.16034906039221894, 0.15943016718534064, 0.15854203129068628, 0.15771191438432344, 0.1569703087451611, 0.15621693391337418, 0.15550647413665963, 0.15474706940874047, 0.15413061343327664, 0.1535516508638714, 0.15300364147158071, 0.15248965833797476, 0.15209704695274132, 0.15163851837820308, 0.15117928589117047, 0.1507989370303297, 0.15045117459020552, 0.15007064993215358, 0.14979337169425738, 0.14956272705692134, 0.14933471582217747, 0.14913308381182622, 0.14902738176444608, 0.14886746857828406, 0.14866979704084454, 0.14857307920816656, 0.14849811906825025, 0.14850420244212018, 0.1484629638619764, 0.14839922550580018, 0.14840820529897775, 0.14843501708410203, 0.148528607638161, 0.14858232285454398, 0.1485897778931449, 0.14868668789404008, 0.14879570013565777, 0.14897912559206974, 0.14910247032359175, 0.14921460664866162, 0.14936724861309114, 0.14952981800635165, 0.14965017577192505, 0.14983636860293625, 0.15001083404484486, 0.1502073584229444, 0.15040641209581454, 0.1506032113479693, 0.1508066566745624, 0.15101839755486574, 0.1512223960646298, 0.15142679801085157, 0.15164271644327862, 0.1518446367108972, 0.15202967702534237, 0.15223134194109764, 0.15242986076300766, 0.15261585505827943, 0.15280739408478203, 0.15299494243777295, 0.15317483991554803, 0.15334825850449854, 0.15350876411229983, 0.15366822354939574, 0.15382498259484687, 0.15396605292111565, 0.1541241638699245, 0.15424269933805718, 0.15435223310515855, 0.15448857158669843, 0.15457314968565317, 0.15463388703199343, 0.15470093110153052, 0.15475606250834864, 0.15482929120068387, 0.15485456966199265, 0.15477978159173014, 0.1547908302549448, 0.1547830758216488, 0.1548253001612061, 0.15477116981931457, 0.1547092897613506, 0.15462345421670037, 0.15452172595905297, 0.15433763335501458, 0.1542106894340175, 0.1540610333692834, 0.15389184765786804, 0.15370144698507526, 0.15351914290149135, 0.15328270239431885, 0.15305163080818587, 0.1527727696792821, 0.1524753198140701, 0.1520769053852743, 0.15175146628154274, 0.15151299079928005, 0.1511253000181906, 0.15072027630081958, 0.15019046218664267, 0.14976254574023942, 0.14937411363060904, 0.14888867941989115, 0.14838282448457946, 0.14778907732193133, 0.14725050418045688, 0.1467810761976808, 0.14618207299452038, 0.14556471646891672, 0.14492719357925324, 0.14427232911984217, 0.14351180054405685, 0.14282908162485952, 0.14212192589781572, 0.14140412456801638, 0.1406482361627769, 0.13987476137805616, 0.139074751848378, 0.13825377175607073, 0.13739311335517393, 0.13653355250886842, 0.13570119671587003, 0.1347937869932121, 0.13386887863760216, 0.1328913690164567, 0.13193601930404422, 0.1309686959228915, 0.12997423812185951, 0.12896169482366268, 0.12791383029277476, 0.12686832695864297, 0.1258501244966, 0.12476321436245005, 0.12366172404431401, 0.12248866002495427, 0.1213655405034574, 0.12030259874383356, 0.1191355221727034, 0.11795667650403757, 0.11675725632363518, 0.11555597007694142, 0.11433812527931454, 0.113113261591786, 0.11187642221293165, 0.11056643241451437, 0.10931434540125848, 0.10811514056821014, 0.10682650199257794, 0.10552887185747642, 0.10415661956633791, 0.10285007934845071, 0.1015096999378624, 0.10018302266841678, 0.09884489353322766, 0.09752407176495512, 0.09616231019313681, 0.09478162705075091, 0.09340749279365475, 0.09202661574952369, 0.0906118223486872, 0.08922286550762837, 0.08789771033270152, 0.08648775330421807, 0.08507683529313781, 0.08366657056473778, 0.08225403161606992, 0.08087044070084315, 0.07945378010418133, 0.07803892966994093, 0.07656007100330385, 0.07515736986198977, 0.07380284700699295, 0.07239139287975269, 0.07098254819256095, 0.06955315438550966, 0.06815329838640793, 0.06679804134510982, 0.06539763481953771, 0.0640027856373159, 0.06259755392419225, 0.06121637468694863, 0.05978481354300366, 0.05842153245919439, 0.05706114757798388, 0.055741097880756776, 0.05438436389439239, 0.05301593806184312, 0.051676692911638435, 0.0503445315357061, 0.04902879058743554, 0.04771132527182908, 0.046441086920045074, 0.045137566189731027, 0.0438461742972735, 0.042586029901983354, 0.04131678777437576, 0.04008158518959749, 0.03883685732272079, 0.037606885962253055, 0.036388660220278035, 0.03518837097849628, 0.034015739133308034, 0.03284282245031943, 0.03168530051737635, 0.030575396780456083, 0.029444691733629062, 0.028394294779781937, 0.02729022156135547, 0.026206813638712797, 0.025142060035580796, 0.02409863104212579, 0.023072982960635025, 0.02206797363541979, 0.021081688643032753, 0.020141829811355698, 0.01918920245423965, 0.01831816168058943, 0.01739778629652789, 0.016500644189427382, 0.015686176015127024, 0.014826302515845368, 0.013966740318809696, 0.013159635432360994, 0.012374927688343326, 0.011679633573135855, 0.010930339859927553, 0.010207968052003968, 0.0095087583295103, 0.008833913375828669, 0.008193244193877429, 0.007564621213824108, 0.006956973591346552, 0.00637625489110601, 0.0058188030387356406, 0.005321096584167696, 0.0048052568112172634, 0.004383331111502368, 0.0039087490049650505, 0.0034626514156233866, 0.0029974889572841976, 0.002612271344191413, 0.00235650917213151, 0.0020060786603633553, 0.001685622176169099, 0.0014075073361303745, 0.0011430428138897626, 0.0008750394151219145, 0.0006714011264274527, 0.0004935748487824404, 0.0004058398562979474, 0.00027116334733591816, 0.00015395492155046317, 7.858635822927079e-05, 3.077174820163255e-05, 0.0, 7.851472184812165e-06, 6.986248877304763e-05, 0.00012686128295720872, 0.00021172858831041685, 0.0003769492580289036, 0.0005103066058784728, 0.0006681340487567115, 0.000862365183920475, 0.0010856401461150755, 0.0013566695992358237, 0.001634728958291421, 0.001926007404080359, 0.002264420630662155, 0.002630661523555099, 0.003055380226135779, 0.003473151149777649, 0.003904183526018213, 0.0043824471423291695, 0.0049530838030025824, 0.005479088832546023, 0.006036591213935317, 0.00663383870487313, 0.007251699033204113, 0.00793237243477221, 0.008606985817339345, 0.00931328647386848, 0.010014144134622392, 0.010786917142078196, 0.011637715551172012, 0.012460687773845514, 0.013314681877948239, 0.014252005253695672, 0.015160283071698965, 0.01610449144861586, 0.017077766441177457, 0.018083028333683988, 0.0190510027692671, 0.02012758087170224, 0.02124864437790257, 0.022377130064464585, 0.023534083343276554, 0.024807448029731036, 0.026010594989725726, 0.027228480258737583, 0.028500990205300822, 0.029805134065578963, 0.03113187311421866, 0.03249967787384195, 0.033900930832100405, 0.03532935839991221, 0.03678840055306354, 0.03831170092599353, 0.039827671383731625, 0.04138785437066857, 0.04296711658302941, 0.044579121183199594, 0.04618118394624562, 0.04786338259470265, 0.04958123182574549, 0.05132251883589417, 0.05309439657273358, 0.05493363231255199, 0.05676258371784126, 0.05858517240272699, 0.060485308493260705, 0.06241616021696928, 0.06441749947657405, 0.06640552471646831, 0.06841402269528708, 0.07047090119738532, 0.07256050448700421, 0.0747516822047299, 0.0768982075763363, 0.07908589816653114, 0.08130494173759482, 0.08356013130768215, 0.08579986787925091, 0.08813278701599006, 0.0904848852000809, 0.09288439197838931, 0.09531593956745772, 0.0977842299168021, 0.10028021677397349, 0.10282693115323877, 0.10538724339287789, 0.10798213439690471, 0.11066289241767292, 0.11332064284432347, 0.11596041795002787, 0.11870015875343674, 0.12147380792929338, 0.12431817437261569, 0.12715564814108704, 0.12998578373754968, 0.13290184558004717, 0.13585181889562006, 0.138897470757897, 0.14190834051923693, 0.14486808488629083, 0.14796629935352662, 0.15109716724730415, 0.15434757605760108, 0.15753435626205484, 0.1607439533141493, 0.1640102845869649, 0.16731403239797055, 0.1706375229678599, 0.17401801640577796, 0.1774463765727744, 0.18089778340877155, 0.1843861590956257, 0.187921724204016, 0.19148267079485196, 0.19507670852440312, 0.19871307990666945, 0.2023865090881629, 0.20600181522918687, 0.20976127988540974, 0.21363140054067667, 0.21744483300606196, 0.22129568778605216, 0.2250960571504906, 0.22903261029353794, 0.2330204330046021, 0.23701968055627512, 0.24105338345636917, 0.24515989163907365, 0.24925851539599897, 0.25334760533373774, 0.2575265956300764, 0.2617399231019768, 0.2660287714240027, 0.2703061363987868, 0.2745839913497301, 0.2789398773658348, 0.2833302490387352, 0.2877097536130991, 0.29217486661477565, 0.2966791995434427, 0.3012074755730538, 0.3057685612475881, 0.3103596143779929, 0.3149868910006403, 0.31962202688418, 0.3243178947814704, 0.32904498330012866, 0.3337784830450405, 0.33857131941806756, 0.34339841270329896, 0.34825052896393555, 0.3531328928931113, 0.3580878842219907, 0.3630251154442913, 0.3679785099859346, 0.3729817463230892, 0.3780152255926471, 0.38307705601134395, 0.38816990644084537, 0.3932403566592629, 0.3983968854914035, 0.40357843425270606, 0.40880834556918283, 0.4140366771665352, 0.4192543306978376, 0.4245386777638178, 0.4298459763369978, 0.4351394348888002, 0.44049661016313857, 0.44593832180245785, 0.45132755153054943, 0.45674031413141997, 0.4620953647075397, 0.46756315102017004, 0.47308139021386264, 0.4785783907794566, 0.48409377770995654, 0.48956407575103517, 0.49512255372900493, 0.5007278420882868, 0.506308222985338, 0.5119032883474546, 0.5174612338486927, 0.5230903837348473, 0.5287865873495738, 0.534428179539257, 0.540082309623029, 0.5456924638101287, 0.5513760164892615, 0.5570926259426755, 0.5627857914519472, 0.568486131444083, 0.5742045472102894, 0.579915303444394, 0.5855611294256003, 0.5912904526634669, 0.5970192037052625, 0.6028186793137675, 0.6085358608002303, 0.6141832682966825, 0.6199122033926578, 0.625636649837042, 0.6314028373269175, 0.6371104942941442, 0.6427674475885418, 0.6484721491732468, 0.6541680610723417, 0.6598119660992123, 0.6654933145859979, 0.6711595906491287, 0.6768133569226875, 0.6824522570432895, 0.6881312315567831, 0.6937312595153206, 0.6992587677397989, 0.7048369609844423, 0.710395314142046, 0.71596375967875, 0.7214760792271355, 0.7269150299517009, 0.7323914794548192, 0.7378946198184552, 0.743311632005242, 0.7487040091234496, 0.7540558205820777, 0.7593969084621598, 0.7646823420019875, 0.7699670003065121, 0.7752185738995936, 0.7804697842844522, 0.7856480691695497, 0.7907293006487415, 0.7958460263859164, 0.800922537318759, 0.8059917412854614, 0.8109812420437007, 0.8159534203727954, 0.8208573155546934, 0.8257194633380562, 0.830522416258955, 0.8352990920039532, 0.8400364730274833, 0.8447178538163671, 0.8493507528282122, 0.8538549397899536, 0.8583973186580304, 0.8629359527229459, 0.8673582799754651, 0.8717260399731719, 0.8759986559529943, 0.8802591131719547, 0.8844757266782071, 0.8886135304972611, 0.8926908036397312, 0.8966758878201441, 0.9006332185668631, 0.904589916618873, 0.9084083399825397, 0.9121639296810151, 0.9157558860298409, 0.9193946392530272, 0.922942272128025, 0.926438902291711, 0.9298616185443955, 0.9332657321739332, 0.936532588949807, 0.939686545589406, 0.9428138217202535, 0.9458650317211466, 0.9488425280898571, 0.951739485474525, 0.9545675278360064, 0.9573073204908866, 0.9599685815903742, 0.962543249648738, 0.96504615211064, 0.9674298511874743, 0.9697746177126704, 0.9720347970871444, 0.9742612846485257, 0.9763447780255039, 0.9783264472445067, 0.9802459421038141, 0.98207998587013, 0.9838075032333019, 0.9854715056513419, 0.987094055080007, 0.9885751914284618, 0.9899699487049567, 0.9912380773834545, 0.9924629416557271, 0.9935518065058483, 0.9946009048053799, 0.9955563284921217, 0.9964211312988003, 0.9971891808464453, 0.997853758137816, 0.9984366708712591, 0.9989258082948539, 0.999350524095503, 0.9996486305788022, 0.9998665093710963, 0.9999790708185493, 1.0, 0.9999319950648806, 0.9997686412620523, 0.9995030037320846, 0.9991567346272976, 0.9987176222462729, 0.9981286077974264, 0.9975111363350215, 0.9968534067875768, 0.996037714082828, 0.995130378615958, 0.9940509691255233, 0.992970788314418, 0.991850405106654, 0.9905723756502589, 0.9892032650581992, 0.9876965379217209, 0.9861521247170736, 0.984560364672434, 0.9828255248232158, 0.9810020004566268, 0.9790023221823535, 0.977013631726683, 0.9749705506024107, 0.9727933129137548, 0.970528028788862, 0.9681461755361445, 0.9657107543582831, 0.9632113171957599, 0.9605990536681176, 0.9579026267206086, 0.9551667102394574, 0.9522986997477012, 0.9492429914289532, 0.9462303588590804, 0.9431332144326614, 0.9399764074218245, 0.9367115110407602, 0.933382184534766, 0.9299584002953347, 0.9264585553297393, 0.922839700263334, 0.9191961852576448, 0.9154756036118732, 0.9116824200286077, 0.9078162263623057, 0.9039076078745539, 0.8998956031662945, 0.8957692648437361, 0.8916292196774461, 0.8874211220526301, 0.8832196008582403, 0.8788704443921272, 0.8744674501793789, 0.869998957420781, 0.8654727391754331, 0.8608823349910062, 0.8562442242497795, 0.8515609694379189, 0.8468118634253099, 0.8420101436995048, 0.8370924814711935, 0.832196949736071, 0.8273188082283526, 0.8223103731906733, 0.8172564209558116, 0.8121331686538682, 0.8069946786878965, 0.8017351397185432, 0.7965209503686119, 0.7912618149668322, 0.7859876241166937, 0.7806412515642368, 0.7752136248796808, 0.7697997939886017, 0.7643494821103365, 0.7589012686822914, 0.7533792652690351, 0.7478183706237619, 0.7422419006771771, 0.7366392596000118, 0.7310720579664628, 0.7254142632409517, 0.7196842550255689, 0.7139982721040634, 0.7082933925662722, 0.7025477998471483, 0.6968128839720981, 0.6910947281667815, 0.6853266089407819, 0.6795483256739092, 0.6737627702223048, 0.6679682616168223, 0.6621869938049362, 0.6563799283248191, 0.6505709952073682, 0.6447556160966249, 0.6389475378747618, 0.6331513969306037, 0.6273467813348462, 0.6215471903221185, 0.6156778143125169, 0.6099018240086316, 0.6041378567237827, 0.5983722979160128, 0.5926156803693546, 0.5868990331437757, 0.5811618067434435, 0.5754534465713617, 0.5697473113805879, 0.5640603382364547, 0.5583674189631214, 0.5527258181658862, 0.5471085427830134, 0.5415108128200752, 0.5359375043134068, 0.5304163255251946, 0.5248925859564667, 0.5193109289669053, 0.513859181875088, 0.508510678168146, 0.5031053478831095, 0.4977348944040864, 0.49232859361517073, 0.48703995891784246, 0.4818320087737312, 0.47660670947805855, 0.4714209422517135, 0.46622890944089257, 0.4611312342450662, 0.45605010705663485, 0.45103668526085866, 0.44606456235114855, 0.44114100700187203, 0.4362549000087041, 0.43139831824171054, 0.4266066354195579, 0.4218618859205676, 0.41720473832028326, 0.4125522321776788, 0.4079711462088769, 0.40342165402254365, 0.39892687852422565, 0.39444774960845275, 0.3900687590346638, 0.38577289842247403, 0.3814986849410157, 0.37728146251357936, 0.37305873824391356, 0.36896478911627206, 0.36499586887763114, 0.3610034935621548, 0.35707159111717274, 0.35320475857581, 0.349393867488861, 0.3456238284102523, 0.3419383902345374, 0.3383134932948444, 0.334781676501996, 0.3312747758794795, 0.3278092039988624, 0.3244316531762685, 0.3211161703554925, 0.31785562866272427, 0.3146657618228883, 0.31153806454490246, 0.30847272314934393, 0.30546989417014203, 0.30246090871005094, 0.2995921540127091, 0.29678819788242505, 0.29403718174057564, 0.2913465234332447, 0.2887151154704508, 0.2861463481791073, 0.2836884625012453, 0.28123578021798173, 0.27884723767837216, 0.27646390852879205, 0.27420991109268, 0.2720492811514045, 0.26991049955345087, 0.26783337939175966, 0.26581758745954176, 0.26386276491854954, 0.2619114421435254, 0.26008460056187366, 0.2583143009760474, 0.25665616950696507, 0.2549918539641346, 0.2533386789958039, 0.2517986958104206, 0.2503141128224051, 0.24896075536101817, 0.24757642560821722, 0.24616583952062604, 0.24490846822450557, 0.2437028904953394, 0.24259855740386296, 0.2414892649259281, 0.24042757709381996, 0.23942505862629734, 0.23847390205857563, 0.23759522777474984, 0.23674150590756438, 0.23586759344365515, 0.23512186181150846, 0.23442020880262285, 0.23375194919673387, 0.2331383719921995, 0.23260047274263682, 0.23206614107024756, 0.2315746110784435, 0.23108107060168503, 0.2306779827926417, 0.23031688413265924, 0.2299878521721929, 0.22969544022091018, 0.22952235702352233, 0.22929042238211358, 0.22901406653518572, 0.2288692000861842, 0.22875570695955771, 0.22865382595192146, 0.22860324796326134, 0.2286333571224225, 0.228631414364922, 0.22865899930149636, 0.22867831718489343, 0.2287659947698098, 0.22892588781079445, 0.22905441512744654, 0.22920780680439712, 0.22932913916675698, 0.22953541657964738, 0.22980938393676992, 0.23004444052867629, 0.23029863256256955, 0.23055169633095948, 0.23084288429530453, 0.2311807083681848, 0.2314956788662113, 0.23182486450039075, 0.2320923450268637, 0.23245562534286698, 0.23284864283020448, 0.2332210224622368, 0.23359983819680308, 0.2339491087687416, 0.23434267025777245, 0.23483031892526576, 0.23521536122146372, 0.23560620308952418, 0.2359662928129832, 0.23636897020635428, 0.23676553195071431, 0.23716745725008576, 0.23756686449700368, 0.2379028427503735, 0.23830211616850774, 0.23877333851661606, 0.23914492776565324, 0.23951164437138298, 0.23985625370789992, 0.24021190241043194, 0.24054971572751646, 0.24088748409663568, 0.24121395632712447, 0.24147858949088427, 0.24178644455254014, 0.24214524587493272, 0.24241147248334435, 0.24266436742274752, 0.24290297648151507, 0.2431263856661647, 0.2432780970564098, 0.2434755481001926, 0.2436521574225311, 0.24377100658025658, 0.24390956037922715, 0.24409150807201527, 0.24417358170456085, 0.24423526604312135, 0.24430804104017273, 0.24432273996989892, 0.2442274960447834, 0.24421128628183653, 0.24416769479973258, 0.24410398793382945, 0.24400451537132295, 0.24391879940637334, 0.24375948799953995, 0.24357483482129852, 0.24335843328929635, 0.24312221705447012, 0.24280608499831513, 0.24252168617462852, 0.24220632917049018, 0.24189960720405887, 0.24151752642005808, 0.24112733780100123, 0.24068515290068684, 0.24021491810501572, 0.2397440183522583, 0.23921293502047103, 0.2385576129957764, 0.2379829620465081, 0.23737428730393179, 0.23678759832913293, 0.23610496772888695, 0.23538663424833975, 0.234644891102776, 0.23387269038658656, 0.23311243540072146, 0.23227384202212553, 0.2313895476518793, 0.2304965903555777, 0.22957395210116732, 0.22860548781387874, 0.22762543123941317, 0.2265415877104377, 0.22550978200165428, 0.22444368012599647, 0.22334995565262417, 0.22221692011535282, 0.2210727014539835, 0.2198743449614272, 0.21862178939428992, 0.21736834488094373, 0.21608497910086197, 0.21480741497752287, 0.21346152059480503, 0.2121113445949952, 0.2107104497767514, 0.20928507383981018, 0.20778556817584476, 0.20631792108726144, 0.20487910403722168, 0.20335148001043415, 0.20180145148416548, 0.20024821488655853, 0.1986515216120717, 0.1970194948037115, 0.19538340557145956, 0.19372614649505357, 0.1919763660196939, 0.19028698376309328, 0.18861460239915961, 0.18687310992099193, 0.18511196695269452, 0.18334643458345354, 0.18154601574488144, 0.17969937853502826, 0.17786929454174846, 0.17602168463977824, 0.1741851533404677, 0.17230134324227048, 0.17041415908815266, 0.1685023505750425, 0.16657859175762518, 0.16465508581141666, 0.16270745263166808, 0.16067397024333824, 0.15871696414536549, 0.15674692884647567, 0.15484405096388693, 0.15284134726093174, 0.15077478905692704, 0.1487692510928881, 0.1467559092283558, 0.1447195844826833, 0.14269541217508205, 0.14065937123968703, 0.1386248948273964, 0.1365860068110365, 0.13454513359354794, 0.1325000901962435, 0.13044179327420918, 0.12839599797050857, 0.1263496862583218, 0.12437255493000195, 0.12231918281200449, 0.12026590953232133, 0.11822544537095783, 0.11619117110024155, 0.11409175499472918, 0.11208013323981679, 0.11015829699050361, 0.10814365297844648, 0.10613932402850705, 0.10408994334311325, 0.10211408628580648, 0.10020339894953022, 0.09823730940622181, 0.09628411691454714, 0.09429143563495677, 0.09237166019358203, 0.09048919581473427, 0.0885888382144607, 0.08670253577590556, 0.08476350688906431, 0.08291547809414464, 0.0811393854042334, 0.07930869879126794, 0.07749540070999096, 0.07570434741214797, 0.0739266655768611, 0.07209482349342261, 0.07036487273313945, 0.06865068951401765, 0.0669620674365958, 0.06528126685789523, 0.06363271333139499, 0.06198912541276225, 0.06036676301033744, 0.05881006733097337, 0.05722616113602118, 0.055632314902103894, 0.05410332220469173, 0.05259775145979494, 0.05112479507595067, 0.04966616618333361, 0.04830141429785832, 0.046884527453476176, 0.04549712887245152, 0.04415648880111441, 0.04282502067317275, 0.04149842830605067, 0.04022934528463755, 0.0389881226851293, 0.03783333769800126, 0.036640534908090217, 0.035500971087224165, 0.0343675622653336, 0.03326594523187917, 0.03215176341655999, 0.0311180228294957, 0.030156401080888566, 0.029173625147609128, 0.028221732330390735, 0.027360494033686993, 0.026462097734320827, 0.025537339089909, 0.02471322172095603, 0.023918251480170225, 0.023208083596185255, 0.02246448037254446, 0.021775216883721273, 0.021093201056289666, 0.020444047373668447, 0.019812638497240027, 0.019229681527401704, 0.018722877725612434, 0.018195536467915347, 0.017701140537194602, 0.01722892198715477, 0.016800207802606482, 0.016450776604215192, 0.016077633939061302, 0.01573764982857365, 0.015523887607398482, 0.015236595711275837, 0.015021196300224372, 0.014801797857582765, 0.014618891178441925, 0.014472728057276386, 0.014359127559851715, 0.014278879564429683, 0.014231143702963796