0.02121421874472918, 0.02096358750260399, 0.020804667128427413, 0.02066339262666083, 0.020448703116952956, 0.020346507717868473, 0.020155577318988798, 0.020076235039503516, 0.019995746839922075, 0.019833962586253286, 0.019761660792459383, 0.01962236119069711, 0.019548148655099053, 0.01946677270634209, 0.01941028451199854, 0.01931411613653082, 0.019178686123794173, 0.01908336396395722, 0.0189848962645305, 0.018867610053850167, 0.01876721034297425, 0.018636041279644702, 0.01853603931125157, 0.018433731692569046, 0.018387485224483083, 0.01827543668113322, 0.018170402843501913, 0.01806365801634498, 0.017960081853263105, 0.017839066181503348, 0.017744331102170916, 0.01762269475172601, 0.017535537968453797, 0.017448892995938367, 0.017375417215208137, 0.017289121872059415, 0.017270678308881297, 0.017180155755823864, 0.017095491783428247, 0.017055307019566396, 0.01697604068917421, 0.016895319737440725, 0.016830000090223222, 0.016769781159311135, 0.016747157913764882, 0.016691749682982347, 0.016633941160552078, 0.016590699333631283, 0.01655183116896817, 0.016473799665293054, 0.016448221209116303, 0.016452579490080624, 0.01642578273871841, 0.016402060371714332, 0.01643278150934347, 0.016408506375995946, 0.016408561183603995, 0.0163931437518212, 0.01638380135000833, 0.0163554008870047, 0.0163600827335789, 0.016388922382256782, 0.016398119714653634, 0.016411992180577494, 0.01650034493591057, 0.016514291762909555, 0.016454180265045876, 0.016494426769695716, 0.01653718626137787, 0.01655594751559001, 0.01660782847686585, 0.016751965166121232, 0.01679627069203432, 0.016848221435427618, 0.016915698608591503, 0.016980912746432, 0.01707394349301805, 0.0171507873770042, 0.017235583307385626, 0.01725599733009064, 0.017364923562615195, 0.017575766743809278, 0.017678927180167878, 0.017791607733769327, 0.017909273028856167, 0.018040327724954758, 0.018179623989953347, 0.01832697210572412, 0.018471941356111587, 0.01863630969260885, 0.018807847060073324, 0.018926931303774156, 0.01912052453956333, 0.019379874736156984, 0.01957428991826043, 0.019777298638643134, 0.0200176949873246, 0.020234226570279054, 0.02039102183616152, 0.020636658758700695, 0.02088825127784946, 0.021257364312795388, 0.02150812610422213, 0.021718815799944058, 0.022002652887930255, 0.022295905606454697, 0.02266651889357071, 0.02297015106140561, 0.023280995510187395, 0.023611708598613262, 0.023954596167959027, 0.024251766114919263, 0.024625514613113034, 0.0250713245186172, 0.025453886631690213, 0.025848951678687407, 0.026221324188248466, 0.026645222307287646, 0.027097672640477615, 0.027539487391245447, 0.027992757532364444, 0.028463695366210722, 0.02893922866295485, 0.02942055232218581, 0.029920822893885958, 0.030432785782462425, 0.03098330021546073, 0.03151559780186198, 0.03199146897655715, 0.0325595918928653, 0.033137168086684814, 0.03371649075397442, 0.03431553895278142, 0.03495176267707067, 0.03556873852080207, 0.036198515435249067, 0.036855657081328645, 0.037509683753026615, 0.03822715483866507, 0.0389030721637449, 0.03959586024516544, 0.04029692108699068, 0.04102344491442488, 0.04174074278999191, 0.04250116979784931, 0.04327540470856103, 0.0440100525169465, 0.04481898490727171, 0.04567402064788059, 0.04650130872066626, 0.04734269627556708, 0.04820244762182313, 0.04907195003788616, 0.04994179507588042, 0.0508426987602878, 0.051757709869240415, 0.052763158191553174, 0.05369732217705659, 0.05465039645941632, 0.05562191401727591, 0.05661147027732951, 0.05756727383791129, 0.05859841694452274, 0.05968290890259094, 0.06073781382405673, 0.06180955114753015, 0.06282184165150265, 0.06393646439896715, 0.06511267312679446, 0.06624598761647633, 0.06739528413719184, 0.06851120153589786, 0.06969877824244293, 0.07091404008949172, 0.07212677612008539, 0.0733543872346473, 0.07461971327914532, 0.07587479937375463, 0.07713627521203593, 0.07842596457536684, 0.07973164734596984, 0.08099985280182216, 0.08234436664160243, 0.08381099060761066, 0.0851682489747182, 0.08654548111109225, 0.08784747019581866, 0.0892749908647255, 0.09069919474894116, 0.09215544285563916, 0.09362457153111965, 0.09516252680226148, 0.09665149460419574, 0.09812864087091847, 0.09965500096429232, 0.10119629489100473, 0.10273814668429158, 0.10431119311702813, 0.1059189664556253, 0.10751779790243289, 0.1091320785333874, 0.11080900069836394, 0.11244778611799924, 0.11401577747874736, 0.11570059901195263, 0.11739713201146605, 0.11915297071671507, 0.12086768953399113, 0.12250893910746599, 0.12426461103339524, 0.12602981719419337, 0.127829714192157, 0.12961217532367075, 0.13147255339149835, 0.13327086754687484, 0.1350849878121624, 0.13688554579616485, 0.13873327561141313, 0.14055863666204296, 0.14243578288401024, 0.14432311276667167, 0.14621038207264334, 0.14811947565572353, 0.1500217374368131, 0.1519521963735262, 0.15389137086431318, 0.15592371021855472, 0.1578698492799296, 0.15980279788750223, 0.1617787138434647, 0.1637652872236868, 0.16573329328006656, 0.16774358720620486, 0.16974524839464775, 0.17177313206964406, 0.17380760190960953, 0.1758671223840942, 0.17791222508016516, 0.17996675029368153, 0.18202602860120795, 0.1840921933739107, 0.1861011329045804, 0.18818816524682916, 0.1903289694512334, 0.1924143354013592, 0.19450521103775434, 0.19658477436271735, 0.1986876667695362, 0.20078170842627086, 0.2028929160220614, 0.20500643331727153, 0.20712002860229528, 0.20923787557237314, 0.21135114051344484, 0.2134727167965711, 0.2155950481832579, 0.21771585004660585, 0.21983924656899242, 0.2220078008243772, 0.22412497290938707, 0.22624400117057963, 0.22837243941652893, 0.23049213792501128, 0.23252990112686603, 0.23466009142655356, 0.23678474183186152, 0.23892860168310434, 0.24103916269458395, 0.24316203411059073, 0.2452619125906263, 0.24735794905720276, 0.24940235173024305, 0.2514952976654869, 0.2535906479051142, 0.255666446883587, 0.2577347387515581, 0.25978498878885686, 0.2618388026395388, 0.26393516062997247, 0.2659644386900964, 0.2679872089957499, 0.26994721211791417, 0.27196191738310105, 0.2739546891889923, 0.27594723034977814, 0.2779271653481558, 0.27996841642026854, 0.281913269269541, 0.28382440800819336, 0.2857534910123215, 0.28764170907715164, 0.2895497627636255, 0.29144304246169805, 0.2933788681386762, 0.29523441145304136, 0.29701780865575983, 0.2988551534700786, 0.30067512634148374, 0.3024836715293654, 0.30426741308269095, 0.30600869136833986, 0.3077596810118759, 0.30949084082802647, 0.3112287721920079, 0.31291641290111893, 0.31461194118958485, 0.3162580295620968, 0.3178858734662277, 0.31946395981150105, 0.32105730830753804, 0.32265146903494296, 0.32419800207322214, 0.3257233613975411, 0.32724350979366124, 0.32872296306425547, 0.3301128223996945, 0.3315569065194955, 0.33297436960961585, 0.3343858196143423, 0.33574749044182867, 0.3371021890945356, 0.33841029130554534, 0.33969344586973216, 0.3409841696090631, 0.3422120596901992, 0.3433354190243378, 0.3445242642172626, 0.345683105960664, 0.3468243888273161, 0.34792191493744606, 0.34900470668453487, 0.3500420203683969, 0.35105075828663196, 0.3520903329613261, 0.35303359287509484, 0.3539817164779618, 0.35486833911235094, 0.3557292955713884, 0.3564505565960985, 0.35727201117728324, 0.3580817663083228, 0.35883197809089523, 0.3595496528155098, 0.36023891971318184, 0.36089102531104145, 0.3615540325492286, 0.3621359930982027, 0.3626879420434484, 0.36321563559110703, 0.3637055705527416, 0.3641832278683328, 0.3646088737618404, 0.36500409405688206, 0.36527792132471937, 0.36562250599179397, 0.36592221895539584, 0.3661950034267184, 0.36643151549070213, 0.36666920422309723, 0.3668296700544992, 0.36692822395097113, 0.3670261069582297, 0.3670892377543527, 0.36710549160614153, 0.36710131975802923, 0.3670540679707268, 0.36698149720478124, 0.3668741053656011, 0.36672599352589574, 0.3665505346781662, 0.3663920938544195, 0.36614153230250696, 0.3658599130209616, 0.365530570140788, 0.3651883398173714, 0.3648136196961779, 0.36440643827652786, 0.36396683745456526, 0.3634845838812796, 0.36298162414868035, 0.3624890853095677, 0.3619152572996557, 0.36131142179757464, 0.36062597311715544, 0.35996818647604456, 0.3592915604802158, 0.3585658490276368, 0.3578084553813499, 0.35701344889361597, 0.3561942039212052, 0.3553230960446914, 0.3544441896127523, 0.3535334589299355, 0.352669571651474, 0.35168671012976704, 0.3505872425659422, 0.3495634933908445, 0.3485082580355935, 0.3474654011796309, 0.34634365309383197, 0.3452070488274415, 0.34402954876147795, 0.34282598727251906, 0.3415759410310236, 0.3403233502678613, 0.33910582512069976, 0.33779250122619947, 0.3364567879129512, 0.3350739088186739, 0.33369635371699397, 0.33224763720489403, 0.33082869423334943, 0.3293838781210046, 0.3279447789349204, 0.32644646054778576, 0.3248540778925203, 0.32332118264547316, 0.3217630237237269, 0.3202402818938772, 0.3186270097562308, 0.31696174177720554, 0.31531484870211385, 0.313647772694925, 0.3120187850582037, 0.3103060045528165, 0.3085329148772098, 0.30679592066700223, 0.30504167340274757, 0.30322549343695226, 0.3014442261918184, 0.299657258461414, 0.29783926887831635, 0.29600573944360536, 0.29423560081750894, 0.29236328908163284, 0.29039553277030433, 0.2885161415416396, 0.28662300593571804, 0.2847581203998009, 0.28283477487478714, 0.2809435596280478, 0.27899736988175916, 0.2770452948777607, 0.2750071876209217, 0.2730538540637312, 0.2711255788537961, 0.2691488700128471, 0.2671659474619918, 0.2651279601832567, 0.2631404582926197, 0.2612299437809984, 0.2592179509776934, 0.2572051344151764, 0.2552204666955873, 0.25320289870486684, 0.2511414778986605, 0.24913252274290287, 0.2471226154161159, 0.24513492631826922, 0.24312186351165405, 0.2410366592706953, 0.23903719900513737, 0.23703626842570802, 0.23509866040647112, 0.233089678983025, 0.23109182922780014, 0.2290923225441515, 0.2270988185899137, 0.22506020294137571, 0.22308621681723656, 0.22107112626944833, 0.21911199511006466, 0.2171560522129935, 0.2152064477829093, 0.21325982156886522, 0.2113380714235077, 0.20940268116180094, 0.20747635912076515, 0.20556177080406682, 0.20365512013196216, 0.20173881692710863, 0.19985713066301775, 0.19798622116225825, 0.1961987495146672, 0.194342173185887, 0.19241992164775573, 0.19060697975992852, 0.1888060163683832, 0.1870280243488169, 0.1852517824517601, 0.18350035958021496, 0.18175236874966205, 0.1800080955636759, 0.17829415206809635, 0.17659628451118572, 0.17496019735747417, 0.17329003904971296, 0.17162738849914036, 0.1699985071334521, 0.16838882962452448, 0.1667820523492576, 0.16521334703188897, 0.16361609295844898, 0.1620912407986533, 0.16058312205598613, 0.15914796261371147, 0.1576682294931579, 0.15619371662137216, 0.15475948735942982, 0.15334614308946662, 0.1519559504688097, 0.1505847330875058, 0.14928655703884536, 0.14795219596417553, 0.14664264121045167, 0.14529383977802457, 0.14404121582506552, 0.14280503806068048, 0.1415944229724642, 0.14040483481889365, 0.13921397060409127, 0.13807025963463665, 0.13699658556063604, 0.1358883511887132, 0.13480432450342153, 0.13375265992484528, 0.13271578496546144, 0.13167867539167052, 0.13069371085303247, 0.12973157362758897, 0.12876971849966867, 0.1278563488731225, 0.12697092511926053, 0.12610054000676002, 0.12525267466349355, 0.1244809254899565, 0.12367159541303943, 0.1228427261477135, 0.122090171493066, 0.12136001886830483, 0.12064816584923443, 0.11996335548250976, 0.11927805783233439, 0.11864039036852202, 0.1180235494637956, 0.11749350678029227, 0.11691032535680151, 0.11634162868330454, 0.1158087742498731, 0.11529910772883052, 0.11480813827071559, 0.11434425730565877, 0.11385903950089879, 0.1134440705340744, 0.11304795251421258, 0.11265839322272166, 0.1123016599010692, 0.11203103332304107, 0.11170215953405263, 0.1113953374187411, 0.1111120364479471, 0.11084732396935534, 0.11052079513994445, 0.11030695274956574, 0.11010796333373324, 0.10995281840694186, 0.1097803784858508, 0.10963711753690877, 0.10949655726431448, 0.10937305336395997, 0.10927241692002723, 0.10918115456822586, 0.10903623303333265, 0.1089859982020725, 0.10894729217750132, 0.10893877491531673, 0.10892113750362224, 0.10891217403258122, 0.10892043950596286, 0.1089408383461394, 0.10905956983792622, 0.10909260320002392, 0.10909453066502495, 0.10916499068612125, 0.10924707976781152, 0.1093279548575228, 0.1094333788902806, 0.10952974684563403, 0.10965605811761205, 0.10979002338519415, 0.11001370449572538, 0.11015180565272427, 0.11024375260048974, 0.11041108829869145, 0.11058476869202398, 0.11073971319443915, 0.11092803663782443, 0.11121479719649344, 0.11139851549472, 0.11159089835464145, 0.11174977779369231, 0.11196172509002411, 0.11218748619869576, 0.11240469830679246, 0.11262505641949422, 0.1127965745260249, 0.11302812049747095, 0.1133159722791113, 0.11353753924870105, 0.11376084647196598, 0.11389886462562313, 0.11413479231771624, 0.11441320360086726, 0.11463362532942589, 0.11485212586587323, 0.11504778961211194, 0.11526402870060441, 0.11547204525086113, 0.11568040333668035, 0.11588402549312073, 0.11607242466119957, 0.11626725804961771, 0.11648698414911271, 0.11666579408550355, 0.11683998900745513, 0.11695765667524313, 0.11712773007046207, 0.11735271845865304, 0.11749695713683843, 0.11763582003519087, 0.11774606362978918, 0.11787524382003874, 0.11800427911151065, 0.11811533232378472, 0.11821780640090117, 0.11837921420780123, 0.1184547823108187, 0.11844008059473168, 0.11851361117006742, 0.1185747876933478, 0.11868321735091146, 0.1187119235020175, 0.11873343313442714, 0.11874277992136305, 0.1187418556156581, 0.11866430006206961, 0.1186496630602485, 0.1186608009729604, 0.11861033732761193, 0.11854704337756876, 0.1184562597189688, 0.11836837636330051, 0.11821675024564003, 0.11810630187040562, 0.11797853506133198, 0.11792017570833757, 0.11774770129025912, 0.11756558164843965, 0.11736891921840081, 0.11715967862975275, 0.11685717247166902, 0.11663166030684635, 0.11649901146442707, 0.11622328217426157, 0.115936171207907, 0.11558765885979487, 0.11528220284203636, 0.11491976144562008, 0.11458782198010306, 0.1142377014825986, 0.11393762922850081, 0.11354350251361077, 0.11312765614594666, 0.11270728639516812, 0.11227239978905973, 0.11177345967479022, 0.11131536010435314, 0.1108478386497571, 0.11035372366319503, 0.109843054398464, 0.10935308743693882, 0.10880526847416921, 0.10822301865856683, 0.10764998649439714, 0.10706176150242051, 0.10650167319941857, 0.10587795739177334, 0.10521097921396963, 0.10456616204502314, 0.10390684404592604, 0.10324756159893511, 0.10255782867199748, 0.10186306347128032, 0.10114581149245402, 0.10041587815790398, 0.09965888736114101, 0.09890552501410559, 0.09810385914815563, 0.09732849786257322, 0.09660826670127583, 0.09579491392523806, 0.09497166570160132, 0.09408081030511647, 0.09324481712795635, 0.09243258645908108, 0.09156585594457477, 0.09068890376553636, 0.08977102488705863, 0.08887803428949753, 0.08795099550378739, 0.08703850409145587, 0.08611424116392036, 0.08516853433356777, 0.08422384285218146, 0.0833673203680284, 0.08238954249800075, 0.0814078815962171, 0.08032948581730667, 0.079351074144188, 0.07835685226351674, 0.07736063024792973, 0.07635575157997977, 0.07534081602777824, 0.07432081837321722, 0.07331037176561536, 0.07227504180491069, 0.07123483642169344, 0.0702559850393405, 0.06919884371821715, 0.06805934160131738, 0.06701233895735009, 0.06596039800696028, 0.06493088364196266, 0.06386749587411997, 0.06277773045724755, 0.061714408597729004, 0.06064864722783928, 0.05961183141817621, 0.05853882481587034, 0.057481010704026815, 0.056407973128002956, 0.055336974431487766, 0.0542619683935391, 0.05319623582152957, 0.05209150045235809, 0.051035524120102045, 0.04997990207530014, 0.04896227845295593, 0.047904466635962456, 0.04681583240586114, 0.045770983968204934, 0.044728790060111386, 0.043763857727851296, 0.04271916972277688, 0.04168075245162546, 0.04065284850743499, 0.039632946858196745, 0.038639555630910864, 0.03763332551466219, 0.036601244750519485, 0.03561765257887857, 0.034641183511401344, 0.03362277781343045, 0.032667778189066854, 0.03177161363000898, 0.030821244669392796, 0.02988061558266476, 0.02892934964470317, 0.028011414332156422, 0.02706565717554501, 0.026171231866552857, 0.025284715166277623, 0.024447922104503146, 0.023573950129281027, 0.022806684959526705, 0.021945038208681617, 0.021101137105520733, 0.02023531760818502, 0.019430244081760424, 0.018651641670534524, 0.017873260047494205, 0.017109731652000346, 0.016371303054419497, 0.015636087993887524, 0.01492039002600252, 0.014215421894018152, 0.013526046325632542, 0.012870773397799943, 0.012210241077345325, 0.01153758397918609, 0.010913974274007076, 0.01030529353521543, 0.00975084927520513, 0.00916771313030669, 0.008659940101635453, 0.008104899127695667, 0.00757064463864635, 0.0070998750490749996, 0.006600271732139516, 0.006116405326800115, 0.005660763475060036, 0.005225507377948488, 0.0048390453469972896, 0.004439791926894222, 0.004032743464160197, 0.0036787201369887154, 0.0033432936504476395, 0.0030325755633809908, 0.0027334080151067623, 0.0024839515426644397, 0.0022185381698858393, 0.0019736581229452613, 0.0017861111732497407, 0.0015769435399010942, 0.0014124383424029994, 0.0012440481731023228, 0.0010981909055145665, 0.0010402407533105643, 0.0009297789487061553, 0.0008546277804406373, 0.0007921024752196596, 0.0007536784196713235, 0.0007078177774630803, 0.0007195831530383658, 0.0008116649326852677, 0.0008570136732116264, 0.0009260782359637824, 0.001069734985620143, 0.0011781134509671644, 0.0013322212312447698, 0.0014875515966522735, 0.001667797353980233, 0.0018249214895459116, 0.002058959362815835, 0.0023648758823760978, 0.0026332326723870815, 0.0029248406406233033, 0.003243398238095458, 0.0035798043795639022, 0.004041520656274081, 0.004409493400713698, 0.00480516680558661, 0.005206954052616313, 0.005657740162954611, 0.006136558895265912, 0.006634185693344073, 0.007155089975228593, 0.007756524094068298, 0.008315669369448915, 0.008931278886814893, 0.009537055315252866, 0.010168934298600758, 0.010836478155708368, 0.011517189793804648, 0.012259751005702068, 0.012984877924105548, 0.013735932543078606, 0.014536945069968294, 0.015334847601239205, 0.016168658775411054, 0.017015911012955208, 0.01788827603478213, 0.01872558520937197, 0.01965431964894311, 0.020661188976927574, 0.021623880948309637, 0.022610731231522654, 0.023584433576076577, 0.024623532423920326, 0.025694343077825022, 0.02677515070506032, 0.027878281225389285, 0.029049075592472523, 0.030191345688390964, 0.03136693465727635, 0.0325580555261831, 0.033774202612123515, 0.03503980328266799, 0.036302128467614006, 0.037553156408407104, 0.038871300125965784, 0.040212465079872285, 0.041619915478084385, 0.04300182138192201, 0.044450500618559936, 0.04587815980800471, 0.04733323118972124, 0.0487555156597917, 0.050271457971611755, 0.051863612122259525, 0.053418374865909085, 0.054999172404166956, 0.056611901900457, 0.058243209316639954, 0.05986111436302032, 0.06154855891645325, 0.06325915443999125, 0.06508363641749051, 0.0668296668302866, 0.06860243878389607, 0.0704057761720007, 0.07225323993979829, 0.07410945011806179, 0.07599356468230783, 0.07792372098786694, 0.07986022580337213, 0.08176299717851375, 0.0837629590784708, 0.0857868332832848, 0.08782461039324307, 0.08989843934220654, 0.09204580103462552, 0.0941620176744588, 0.09630580873320299, 0.09843386625583588, 0.10063801512327047, 0.10288152456891897, 0.10513410431585408, 0.1074131064294762, 0.10971254122485574, 0.112045715488018, 0.11443431349590964, 0.11681729895688643, 0.11922895158323137, 0.12162603086765122, 0.1241004161598303, 0.12664217008846174, 0.12916415243541593, 0.13171537341224382, 0.13425260593482774, 0.1368677392388368, 0.1395673044896976, 0.14222916063502636, 0.1449217865879202, 0.14766972749639815, 0.1504203598122698, 0.1531554682898885, 0.1559754302980875, 0.15882406323368709, 0.16167688158181487, 0.16458658968850004, 0.16755504013978534, 0.1705169752231725, 0.17350923852987765, 0.17650514377425858, 0.1795616404190572, 0.18263070098599757, 0.18574761447491953, 0.18889317159477756, 0.19206568025491796, 0.19526984272722736, 0.19855084427196834, 0.20180832098109325, 0.20509848402988337, 0.20837384007582088, 0.2117348830790018, 0.21515638440534843, 0.21857297963946334, 0.2220214061762585, 0.22548927609179403, 0.22900280440183365, 0.23265229832138193, 0.23621466657389334, 0.23981406544762762, 0.24332828978946308, 0.24701479560705622, 0.25075614365177096, 0.2544958818570235, 0.25826602117176706, 0.2620687316969693, 0.2658997309940305, 0.26970596874128333, 0.27360562690664647, 0.2775330297010579, 0.28154419286683036, 0.2855213627095599, 0.2895161605257992, 0.29355903495268143, 0.2976327736827468, 0.301811392914983, 0.30593729503496103, 0.31005066519811925, 0.3142514455647551, 0.3184830331364807, 0.32275551628459287, 0.32704681800936586, 0.331383310434959, 0.33573408188316317, 0.34011589195861547, 0.3444892605579352, 0.3489369597431454, 0.3533465593641566, 0.35785805682261773, 0.3623935327301353, 0.36702751514128945, 0.3716028402041368, 0.37617445980571174, 0.3808119849470579, 0.38547608582438553, 0.39017486386008454, 0.39489065487171665, 0.3995568646674672, 0.4043351041005525, 0.40913503270366164, 0.414026901371308, 0.4188621346941425, 0.4237009430255265, 0.42859092881405253, 0.43350479471453013, 0.43846688361912495, 0.44342431391952297, 0.44835444595686424, 0.45336605291696813, 0.4583976877064666, 0.4634676737827312, 0.4685363854505973, 0.47357193189070623, 0.4786875978984991, 0.4838196144718877, 0.48897406457749626, 0.4941376599547841, 0.49931747425117495, 0.5045131719801063, 0.5097243696055607, 0.5149691592076591, 0.5202076928503128, 0.5254058083964666, 0.5306809608279759, 0.5359667500660473, 0.5412732006640358, 0.5465781041518682, 0.5518932366414325, 0.5572180698151977, 0.5625520357803272, 0.5679459737673059, 0.5732898572340229, 0.5785677191446879, 0.5839403509359659, 0.5893166381713981, 0.5947887346364829, 0.6001592398645784, 0.6054856655783841, 0.6108760659726052, 0.6162683223312257, 0.6215916477338549, 0.6269939786912443, 0.632402025312136, 0.6377936191281053, 0.6431805582638072, 0.6485355696953563, 0.6539149592917242, 0.6592741203250443, 0.6646388500864225, 0.6699940246290397, 0.6753412163812543, 0.6806754972582522, 0.6859883990288856, 0.691301115763933, 0.6966007497861384, 0.7018907265432168, 0.7071615571856327, 0.7123782315668967, 0.717623035009303, 0.7228488523519104, 0.7281147645292727, 0.7332932240184813, 0.7383779531176468, 0.7435296107322689, 0.7486569390466477, 0.7537490535010514, 0.7588271745762749, 0.7638887115220704, 0.7689111077822802, 0.7739057984222715, 0.7789069031094289, 0.783839143797518, 0.7886812366696704, 0.7935632260576531, 0.7984109016260231, 0.8032379691635976, 0.8080130539660594, 0.8127668068681105, 0.8174676598427444, 0.822131690820142, 0.8267310639580128, 0.831321579732904, 0.8358993339412865, 0.8404022096877576, 0.8448633951999768, 0.8491932804530475, 0.8535789027897358, 0.8579515660376913, 0.8622321343007578, 0.8664639591524607, 0.8706441702465766, 0.8747763096125732, 0.8788982474367117, 0.8829216233416087, 0.8868942439357673, 0.8907305411193276, 0.8946087470734784, 0.8983909184408876, 0.9021553886091379, 0.9059031438251864, 0.9095376872755044, 0.9131122411751332, 0.9166630994803658, 0.9201107410265406, 0.9234632136579954, 0.9267938251462735, 0.9300601621128959, 0.9332306246097699, 0.9363701075733311, 0.939459888105449, 0.9424600919287713, 0.9453920969749364, 0.9482202269611989, 0.9510181714597353, 0.9537397533332485, 0.9563933142850342, 0.9589735487426557, 0.9614738536653782, 0.9639069025003143, 0.966271096132285, 0.9685528707869966, 0.9707590730754665, 0.9729035915964116, 0.9749552793759914, 0.976885383130076, 0.9787895366634247, 0.980613595929723, 0.9823902591878698, 0.9840492676635724, 0.9855799023354227, 0.9870866312369058, 0.9885105293265211, 0.9899235130243746, 0.9911723068844005, 0.9923172374737279, 0.9934100692653923, 0.9944209199922508, 0.9953329026655728, 0.9961806275574878, 0.9969339747762962, 0.9976146204629047, 0.9982102091898535, 0.998776208354917, 0.9991943912955566, 0.9995303821290467, 0.9997836673925786, 0.9999538009025138, 0.9999910145711176, 1.0, 0.9999385512245106, 0.999771846874636, 0.9995195387342056, 0.9990767387844516, 0.9986666803183061, 0.9982188604740256, 0.9976204770476274, 0.9969356787314458, 0.9961751326531342, 0.9953173297637543, 0.9943315877703244, 0.993310071835946, 0.9922019685360002, 0.9910799447421526, 0.9897914711580964, 0.9884161360028911, 0.9869670617407739, 0.9854370015823308, 0.9838137670683452, 0.9821238158471761, 0.980326045467365, 0.9784777286297538, 0.9765476495153987, 0.974534411372903, 0.9724430516042311, 0.9702656284640555, 0.9680159550845865, 0.9656874223260145, 0.9632602000361185, 0.9607787932355609, 0.9582155054738568, 0.9555800117472776, 0.9528683558189918, 0.9501267414079433, 0.9472598283624634, 0.9443344133735564, 0.9413247908558224, 0.9382461528284649, 0.9350084936584666, 0.9318049260215261, 0.9285269579130424, 0.9251803724067861, 0.9217640960894542, 0.9183206186922133, 0.9147637258971788, 0.9111495243982752, 0.90746579571299, 0.9037207669854808, 0.8999071034752659, 0.8960432286536969, 0.8921100656270335, 0.8881305272896333, 0.8840934961445893, 0.8799836570987252, 0.8758371660224622, 0.8716192503160186, 0.8673662092870927, 0.8630598605034046, 0.8587283635585067, 0.854316222650954, 0.8498543823770096, 0.8453483560750286, 0.8407968617609081, 0.8361763881489934, 0.831540635002229, 0.8268636628725542, 0.8221425086812254, 0.8173810042179073, 0.8125393648787239, 0.807706464456948, 0.8028802600700568, 0.7979661683947749, 0.7930193585630603, 0.7880451767833627, 0.7830361120242806, 0.7779653567615618, 0.7729041455653465, 0.7678147814421072, 0.7627728554437323, 0.7576223366568938, 0.7523885087529715, 0.7472078741737797, 0.7420059147814463, 0.736759419509012, 0.7315223607699812, 0.7262443529563846, 0.720975161926035, 0.7156896168623672, 0.7104491354492232, 0.705128514841398, 0.6997485208202164, 0.6944196603223839, 0.689082234410938, 0.6837378085993249, 0.6783879116137236, 0.673097827869025, 0.6677333777448419, 0.6623714320805572, 0.6570252348580765, 0.6516694698811992, 0.6463032485039771, 0.6409624804750689, 0.635628643281449, 0.6302493476924943, 0.6249394847482147, 0.6195978259844481, 0.6143090822598344, 0.6090285461641485, 0.6037765336516308, 0.5985153800030891, 0.5932727424872846, 0.5880412939453936, 0.5828272804204762, 0.5776320063827477, 0.5724567414011132, 0.5672656831775184, 0.5621387982438134, 0.5570334617846903, 0.551951119285127, 0.5468931524135953, 0.541864999196778, 0.5368591762282009, 0.5318817672251902, 0.5270059291289501, 0.5220796126174091, 0.5171252564990363, 0.5122789509579099, 0.5074657463910097, 0.5026825586525234, 0.49793913532959133, 0.4932686118064051, 0.4885931917207624, 0.4839576062022898, 0.4793727439106178, 0.4748173326484049, 0.4702671096401372, 0.4658013637173102, 0.46137683129558055, 0.4569470259950102, 0.45261339459688726, 0.44832074465720806, 0.44407020013685866, 0.43986280700860103, 0.4357571548895726, 0.4316316326476647, 0.4275366984649105, 0.42351205422700905, 0.41953612348401087, 0.41562995667009595, 0.41175025095384143, 0.40791765797871693, 0.4041411769032962, 0.4004161893516082, 0.39669564747356567, 0.3930804621541809, 0.38952727451368785, 0.386010463005218, 0.38259870174087685, 0.37917864336071644, 0.37581393447120315, 0.37248802424909583, 0.3692358456006362, 0.36597408343981935, 0.3628384649357852, 0.35975362860241056, 0.3567489570167489, 0.3537636899974846, 0.3507911677571354, 0.3479190319705097, 0.34509871119635993, 0.3423511773293386, 0.3396329969222635, 0.33703254891926154, 0.33441421787328496, 0.33185342996293726, 0.3292981859971452, 0.3268573503977621, 0.32451897398948903, 0.32217797720718533, 0.31989266287606466, 0.31763781143206915, 0.3154654220891265, 0.31330464698049687, 0.31124271568246215, 0.3092306621965576, 0.3073055416771823, 0.3053885520048557, 0.303463725407827, 0.30165751216596826, 0.29989889190540114, 0.29818788111908145, 0.2965244256262282, 0.29495573358352883, 0.2933809863687153, 0.2918559166257144, 0.29039014646827416, 0.2889611314381417, 0.2876071216080246, 0.2862704826348352, 0.2849821050481736, 0.28367313198554756, 0.2824870377843912, 0.28133028096668483, 0.28022879053355976, 0.2791675937578768, 0.2781237381351257, 0.277144984374374, 0.2762411841218199, 0.27533329295203457, 0.2744647642207714, 0.27359579771551396, 0.27280881013182645, 0.27208358253282205, 0.2713627969359997, 0.27067760018549347, 0.2700272430267724, 0.2694109600854719, 0.2688032786545415, 0.2682559126257012, 0.26773885587184265, 0.2672288552423199, 0.26677338955810564, 0.26636352696855903, 0.26595935656054137, 0.26558220053517073, 0.26529713617059664, 0.2649633545347769, 0.26454268465232694, 0.2642788095355441, 0.26403416100148913, 0.2638454525078902, 0.26363352594747563, 0.26350139478460743, 0.26332135026309367, 0.2631631304404507, 0.2630068947610409, 0.2628907525229285, 0.26277717394874855, 0.26269575396568745, 0.26262844488141646, 0.2625167511070863, 0.2624823135156584, 0.26251374097081004, 0.2624881104940989, 0.2624730975490107, 0.26245127095326887, 0.2624566817750256, 0.2624360005954916, 0.26245844494100845, 0.26248428590006734, 0.2625191648554974, 0.26254938996063276, 0.2626331104275745, 0.2626602675546868, 0.2626910123281956, 0.26272012023336666, 0.26275527505852375, 0.26275354256036604, 0.2627927246621973, 0.2628280914408786, 0.2628384623952831, 0.26286697996981, 0.26288457305023133, 0.2628995300690917, 0.2629064965569474, 0.2629708438458896, 0.2629520550848033, 0.2629336563632355, 0.262901462119717, 0.2628617681293334, 0.262708627310205, 0.26266424572395375, 0.2626838716704781, 0.2625968453583656, 0.26249799612072844, 0.262423591732027, 0.26229413307458754, 0.262119790869447, 0.26196960085461235, 0.26180372073692815, 0.26160304829339326, 0.2614064049272459, 0.26121810432110804, 0.26098089815034975, 0.26072605789288533, 0.2603995094774466, 0.2601144771609571, 0.25986685552991684, 0.2595296990657761, 0.2591734970618879, 0.25869478331023643, 0.2583117991601638, 0.257982626170973, 0.2575369780184707, 0.2570700507200188, 0.2565443946288806, 0.2560383874648828, 0.25547289026963776, 0.25492225453434625, 0.25434506648158767, 0.25374566662873693, 0.25311548684474516, 0.25248423345213317, 0.25179948216048886, 0.25109049474298395, 0.25038592443874963, 0.2496243686079794, 0.24879243459343578, 0.2479904100805459, 0.2471620179497176, 0.24637527372211426, 0.24548588376382102, 0.24451457067289975, 0.24358777242982904, 0.24263453215483144, 0.24167352113112892, 0.24066550808143458, 0.23967163867297614, 0.23860877719568013, 0.23752317992219718, 0.23638576744696826, 0.23525758628156296, 0.234110585268076, 0.2329317630961606, 0.23172856408283693, 0.2304290805249282, 0.2291865946587666, 0.22799428968850882, 0.2266866503789731, 0.22535685148048384, 0.22397405971678763, 0.22260397976888083, 0.22120404373414276, 0.2197877654038472, 0.2183482315867878, 0.21691057243631517, 0.21542271382726952, 0.21386901665425925, 0.21234597428565682, 0.21080030613092537, 0.20932936503643748, 0.2077281134654914, 0.20600657190607075, 0.2043876968591516, 0.20274726737900423, 0.20108608190183064, 0.1994049014003189, 0.19773120392852242, 0.19600880479376784, 0.19427001022279797, 0.19258933290600297, 0.1908096927675169, 0.18898210161945916, 0.18718518163698494, 0.18537507431141506, 0.18351916979111746, 0.1816878214943836, 0.17983423538623633, 0.1779765740838741, 0.17611604240810583, 0.17423146879438245, 0.17233570999030312, 0.17049726311481642, 0.16857232245694526, 0.16655123666756175, 0.1646265714727535, 0.16269136261131203, 0.1607465010258535, 0.1587928404046722, 0.15693614443630843, 0.15495404646969255, 0.15297141083145632, 0.15094491933749057, 0.14896643595889297, 0.14698285227339886, 0.14499900796796156, 0.14301295034032618, 0.14094905524621393, 0.13896974186752115, 0.13705958315264638, 0.13506220586454834, 0.13306629003790002, 0.1310948896588946, 0.12910030757637886, 0.12704802731794496, 0.12506959473066964, 0.12309231816160299, 0.121110858438022, 0.11913913945693187, 0.11721177841513418, 0.11524204406966494, 0.1132793496121068, 0.11130967332848325, 0.10936403775924532, 0.10737231088865638, 0.10544878405428966, 0.10353070625802017, 0.1017054399566101, 0.0997900859312332, 0.09786914653177427, 0.09598207609042211, 0.0941070869972402, 0.09221772500437256, 0.09037118107395974, 0.08850938878554039, 0.0866897717982951, 0.08488121635774466, 0.0830844379827726, 0.08130010679868321, 0.07953708184871464, 0.07777845004012654, 0.07603449831147988, 0.07436123922325351, 0.07264096297202945, 0.0709109734007998, 0.06923247365923331, 0.0675713779432563, 0.06588266180615866, 0.06426283361939289, 0.06265448705566627, 0.06106697807215995, 0.05949599614756085, 0.058034683278811, 0.056486636259438665, 0.05488156345781632, 0.05338978835957158, 0.05191614037103639, 0.050526892745319255, 0.04908241652467634, 0.04759920556209241, 0.046208325354519325, 0.044836608296835376, 0.043480300670675154, 0.042148481529405854, 0.040826291540696835, 0.039535907963149486, 0.03826543088142421, 0.03705221878295893, 0.035817791761441876, 0.03461854242290109, 0.03342813193975162, 0.0322610817227438, 0.031100756776219447, 0.02998200452709339, 0.028897560135473933, 0.027821169150751543, 0.02676742363999966, 0.025703284890583895, 0.024698651678220575, 0.02372888570251501, 0.0227635153106607, 0.021819699069377512, 0.020897415550881288, 0.019996629034257318, 0.019174906184086748, 0.018309667122980017, 0.017468970871081898, 0.016652266543480676, 0.015859048794960622, 0.015035351755473382, 0.014294511437308885, 0.013572860898777083, 0.01290132343320725, 0.012214292013511083, 0.011579131818579651, 0.010929932750576053, 0.010302925412281342, 0.00971817339782857, 0.009131441018228116, 0.008585131894230701, 0.008039276747598675, 0.007515230532653645, 0.006967067277793713, 0.006490446135063717, 0.006014812395055958, 0.005575016096018492, 0.005151425096611705, 0.004822189576360036, 0.004420966388584487, 0.0040257248400223395, 0.0036663473481451303, 0.003325109368925972, 0.003015889568730981, 0.0027075630754274664, 0.0024907720713065627, 0.002207432431441694, 0.0019446181096356909, 0.0016950634790023032, 0.0014709035709844138, 0.001331841475607565, 0.0011327108704604675, 0.0009531080277108462, 0.0007403976453388464, 0.0006028972210950934, 0.0004849794596514612, 0.0003730600297870783, 0.0002740147928039984, 0.00025736110113276785, 0.0001739139698588919, 9.367445909126137e-05, 4.196957214670224e-05, 3.3618094304459885e-06, 5.538630942149003e-05, 3.117038384602719e-05, 0.0, 8.8769525363645e-06, 3.00224971362567e-05, 0.0001326753016837605, 0.00016741277394560327, 0.00021226641933447943, 0.00027489396081291817, 0.000349454904328789, 0.0004659814246270328, 0.0005580971057813088, 0.0006883920611371004, 0.0007991466476091632, 0.0009212528807782575, 0.001060011446317958, 0.001201524648749491, 0.0013606431164875068, 0.0015192147997309107, 0.0016864010159511578, 0.0019130751049133896, 0.0020893461436944268, 0.0022735513423583886, 0.0024692674441634706, 0.002673361150750847, 0.0029222763205369647, 0.0031367334352725637, 0.0033497942203666344, 0.0035826489580332694, 0.0038225333197623207, 0.004171899247542708, 0.004411593894507701, 0.004652680184977366, 0.004915940817930936, 0.0051882593981579725, 0.005458611337118006, 0.0057482456138528365, 0.0060259422323250215, 0.006330715795386676, 0.0066403653913158864, 0.006998009433398709, 0.007311699266628095, 0.007603695612994993, 0.007934902629336119, 0.008270963417850474, 0.008626281634590493, 0.008970250270200398, 0.00942694666680471, 0.009768783256647696, 0.010122269984740863, 0.010461855600126867, 0.010839319635090853, 0.011249544313528296, 0.011639717008428628, 0.012038803797036726, 0.012495820693473955, 0.01290546547948902, 0.013278597423967422, 0.013715310173840495, 0.014159198629963747, 0.014626764403359622, 0.01508308216041381, 0.015533329603829027, 0.016008149547609582, 0.016537893424472105, 0.017022134685349202, 0.017517074150963857, 0.01795056250216573, 0.018475679978450555, 0.01909573068216635, 0.019623183125477058, 0.02016326595337277, 0.02070966426374306, 0.02127542941549921, 0.021832668235369376, 0.022425224189824736, 0.023028892790227514, 0.023629602151225497, 0.02425832669186501, 0.02496629418600719, 0.0256095921174514, 0.02626899937744386, 0.026911519342324153, 0.027607151903736898, 0.028333471881507893, 0.029055837358731646, 0.02979409160801877, 0.03050733586315174, 0.03128336460411669, 0.03217464473298454, 0.03296742968345097, 0.03378159161025862, 0.0345366859656283, 0.03540325048083376, 0.03630692365312159, 0.03720462386292453, 0.038121339018202124, 0.039063712205058734, 0.040019089601507365, 0.04095409226449071, 0.041956659739665995, 0.04297855891610337, 0.04405348447915023, 0.04511216179484071, 0.04624567025422872, 0.04734502754627708, 0.04847148184316502, 0.04958799950690468, 0.05077340238669682, 0.051975769427058977, 0.05321305580117817, 0.054475983368293, 0.05582474940049466, 0.057132977552258477, 0.05844293717017645, 0.059815909931076224, 0.061217904404777895, 0.06258754316241025, 0.0640564613256605, 0.06562405508554148, 0.06713806008007102, 0.06868447191029757, 0.07020175726855873, 0.07182140817844752, 0.07350976572197357, 0.07518445404550739, 0.07689242264970829, 0.07862991521090615, 0.08040604213534537, 0.08218954453652175, 0.08403769473966437, 0.08591924128688312, 0.08782037014960599, 0.08977226608923888, 0.09183455440195655, 0.09384594650588737, 0.0958970440073889, 0.0979239730741678, 0.10006233250096058, 0.10226960045900153, 0.10447629916139005, 0.10672185692971087, 0.10899823726902899, 0.11132313668900404, 0.11366232149736044, 0.1160685548113792, 0.1185128797244406, 0.12104511126186981, 0.1235606274369992, 0.12606468637373924, 0.12867098194345017, 0.13131619237907624, 0.13396984265288855, 0.13669791611601448, 0.13955476198736014, 0.1423483750502067, 0.1451862804755399, 0.1480537430958925, 0.15098109579573946, 0.15392840363488708, 0.15694367335103715, 0.16000002003656377, 0.1630810509336594, 0.16622182003606037, 0.1694255246828, 0.17264417542937296, 0.17590464604599035, 0.17922946234823853, 0.18257037393579473, 0.18589434504015873, 0.18932794633055802, 0.19280029854218275, 0.19629100052946563, 0.19984393011643917, 0.20349449827496785, 0.20711600090519186, 0.21077912945883995, 0.21446289029720275, 0.21821062651398962, 0.2219399765921371, 0.22577321100628298, 0.22964192590141203, 0.23358538955114477, 0.2375205578621411, 0.2414751650272818, 0.24548822941097087, 0.2495374651153239, 0.2535505926204448, 0.2576804585238934, 0.26190740389931466, 0.2660916145641599, 0.2703110586936765, 0.2745487491632468, 0.278839143068646, 0.2831951278743927, 0.28754623689088543, 0.29193091164771356, 0.296301034280391, 0.30075645529920075, 0.3051807449608492, 0.3097003871883538, 0.3142443558755685, 0.3188558387558604, 0.32344282165790256, 0.3280253202397696, 0.33266831690428855, 0.33733462468854153, 0.34203611973078335, 0.3467460178773379, 0.3514865646918758, 0.35623952260993735, 0.36101385637309885, 0.3657901806822884, 0.37060699000618574, 0.3754085555670332, 0.38026411351821876, 0.3851339212564305, 0.3900688457830114, 0.39495885867878017, 0.39984763799103096, 0.4047690292614342, 0.409702410821452, 0.41461384072149426, 0.4195722970915523, 0.42452957103244177, 0.4295023740589964, 0.43448013811267605, 0.4394558818810906, 0.4444418796471969, 0.4494752083351608, 0.45445872493079875, 0.45944504515528317, 0.4643340806883407, 0.4693345561508036, 0.4744312625557833, 0.47940493098217274, 0.48437665328460405, 0.48932436850161287, 0.49429037962041233, 0.4991419260124019, 0.5041053043855319, 0.5090527459775142, 0.5140558995246028, 0.518961142207295, 0.5238345517335522, 0.528714273771395, 0.5335771686273288, 0.5383501220574592, 0.5431851651715013, 0.5480515543295893, 0.5528305767998571, 0.5575872769061266, 0.5623019552920135, 0.5670127998018937, 0.5716370328561025, 0.5763004839927744, 0.5809314966779572, 0.5855952870871314, 0.5901511267996806, 0.5946472977823594, 0.5991436903411553, 0.6036048809561553, 0.6080112377810185, 0.6124010128924189, 0.6167017790974348, 0.6210175479838091, 0.6253382744134305, 0.6295582891320481, 0.6337352711399329, 0.6377630984544427, 0.641863746314404, 0.6459777780296899, 0.6499648373128223, 0.6539023541058775, 0.6577748675375916, 0.6616119370503595, 0.6653686992997389, 0.6691010673135787, 0.6727764194691789, 0.6763548724956877, 0.6799187395014572, 0.6834415090319341, 0.6868788591390417, 0.6902544982261045, 0.693584046190297, 0.6968316333622682, 0.7000117286501935, 0.7031320550007499, 0.706186724640211, 0.709148008634152, 0.7120718185141124, 0.7149749435976733, 0.7177516334837957, 0.7204595399882753, 0.7230954499970499, 0.725662627517806, 0.7280629147044413, 0.730496577631421, 0.7328507062044162, 0.7351086607455578, 0.7373052089355091, 0.7394638077060223, 0.7414923700478974, 0.7434417450480276, 0.7452680767889032, 0.7470626149667969, 0.7487695131568599, 0.7503972500502952, 0.7519406555294299, 0.7534261848953551, 0.7547966368219519, 0.7561141748495607, 0.7573126009444223, 0.7584278704446287, 0.7593995360879223, 0.760353769220785, 0.7612399078401237, 0.7620140524731486, 0.7627003807280461, 0.763273869841361, 0.7637867127695769, 0.7642690858273852, 0.7645940164785381, 0.7648319883370438, 0.7649248202930834, 0.7649945260402659, 0.7650013342413012, 0.764884060321476, 0.7646768413715012, 0.7643445334498891, 0.7639613898408615, 0.7634818259667076, 0.7629148026045489, 0.7622556576127534, 0.7614922805709956, 0.760651158032589, 0.759715864899643, 0.7586911116316067, 0.7575747926305301, 0.7563651908882909, 0.7550670202259183, 0.753665839692225, 0.7521882615257393, 0.7506200477604671, 0.7490028205760667, 0.7472495317877591, 0.7454031393551853, 0.7434769054496528, 0.741463711457567, 0.7393761794078874, 0.7371883682478698, 0.7348349756635902, 0.7324869346514751, 0.730049673844017, 0.7275200970895639, 0.724907936896211, 0.7222545456715109, 0.7194646159360722, 0.7165926124880868, 0.7135732343808108, 0.7105470761886608, 0.707438931053454, 0.7042455840451067, 0.7009705911327008, 0.6976211994044583, 0.6941853313127943, 0.6907186440342451, 0.6871214629885983, 0.6834507150779763, 0.6797069769260299, 0.6758908727401325, 0.6720277647535183, 0.6680658585157974, 0.6640351087296809, 0.6599052446423574, 0.6557425574859365, 0.6514824532988306, 0.6471872071474657, 0.6428237874103766, 0.6383708449446693, 0.6338777865884746, 0.6292841305883602, 0.6246657043510883, 0.619982555144984, 0.6153001446735986, 0.6104844466630497, 0.6056001190989247, 0.6006744306120264, 0.5956938229629165, 0.5906718095478517, 0.5855833161034374, 0.5804503078324662, 0.5752607628112341, 0.5700231106448195, 0.5647610893661604, 0.5594276984966761, 0.5540179391387015, 0.5486028210416174, 0.5431444553478664, 0.5375968654875639, 0.5320620461888618, 0.5265368329633114, 0.5209135804042603, 0.5152548247984692, 0.5095885663913685, 0.5038591889056107, 0.4980563961472842, 0.4922731569657863, 0.48645949074407635, 0.4805922077591232, 0.4747253068518687, 0.46881666431043234, 0.46289857871416124, 0.45695565168453317, 0.45097931447839257, 0.4449931220968482, 0.43906473897639453, 0.4330295771506069, 0.42698174785075294, 0.42091399628248777, 0.41484484405481076, 0.40873474960095707, 0.40265050534239594, 0.3965567910947389, 0.390444766111536, 0.3843377421619664, 0.37821262607098577, 0.3720971609181123, 0.36597821260474844, 0.35986555541917536, 0.3537431971780446, 0.347587369405616, 0.34147384151343607, 0.3353626109410619, 0.32928205564674246, 0.3231768677374231, 0.3171151889652506, 0.3110239008655679, 0.30494562313084894, 0.2987660801618114, 0.29273128343804966, 0.28672447773201143, 0.2807082170489606, 0.2747062325702266, 0.26875509240805406