0.027838923893165463, 0.027519199404326528, 0.027244097630806898, 0.027015171808196032, 0.026792873491320264, 0.02663310566910848, 0.026497321181117642, 0.026379451858083512, 0.0262814657094847, 0.026229840908787654, 0.02615444715765349, 0.02609127106224616, 0.02599146992661888, 0.025953885606709352, 0.02595605308007205, 0.0259244920067136, 0.025899565326843014, 0.02586731878155547, 0.025856425093755846, 0.025846774758203125, 0.02584704007270622, 0.025852771289202915, 0.02582441213599029, 0.025847339176391728, 0.025850850269404955, 0.02588675809813321, 0.025927566813544956, 0.025973499002172905, 0.02602723274708265, 0.026102340380181634, 0.02617084663540035, 0.026249669196377765, 0.026321941962592105, 0.02642571517754143, 0.02650012031554327, 0.02663255421247072, 0.0267755625846099, 0.02698926550110314, 0.027148892605177437, 0.027283663458337694, 0.02748221809759917, 0.02769574376480434, 0.027924081019671705, 0.028169523163054204, 0.028408513988561118, 0.02869083715728211, 0.02898958750238361, 0.029270262296918884, 0.029608195511083586, 0.030004709229331038, 0.03037056801620818, 0.030756559116681303, 0.03113104807604585, 0.03156228433755866, 0.031989609792866275, 0.03246282537700452, 0.03295503817170096, 0.03345252323168727, 0.033986456578478645, 0.034533998304955064, 0.03510936628099516, 0.03570558228076732, 0.03633122094247157, 0.03696983802574312, 0.03760022943594415, 0.03828904676082178, 0.038999832996537455, 0.03976515742238218, 0.040517646200263574, 0.04124289463456316, 0.04205325150180418, 0.042886611503330244, 0.043754825532589164, 0.04463473130273548, 0.0454882061192051, 0.04642610759507498, 0.04738745847973172, 0.04836349546887044, 0.04937535600828768, 0.05041719015221989, 0.05147952178396654, 0.052568676624225034, 0.05366045942965279, 0.054808054622183834, 0.055988260826826265, 0.05718984560526535, 0.05842002650236268, 0.05969049988475415, 0.060977961669643255, 0.06227930621741716, 0.06363053056579189, 0.06501210888071589, 0.06638613208277722, 0.0678345401823079, 0.06930917601019683, 0.07081750060388128, 0.07235634331951593, 0.07390871090550503, 0.0755125026237032, 0.07713703503444871, 0.0788049728952477, 0.08050456300972256, 0.08223396932268565, 0.0839987922084721, 0.08576230260018737, 0.08759796837251739, 0.08946555264442095, 0.0914088099948422, 0.09333656272680255, 0.0952531755618905, 0.09725894640320304, 0.09929821051779787, 0.10136980907777492, 0.10347752243222738, 0.10562538536420348, 0.10780180650854485, 0.11001365362781516, 0.11224272437581619, 0.11452822643329875, 0.1168277746078477, 0.11918576509957601, 0.12157782631783526, 0.12398590225336276, 0.12644932096776362, 0.12898091220699265, 0.13150794273897642, 0.1340712779249852, 0.13666603802327107, 0.13930231056282794, 0.14194475108446614, 0.14465611123152836, 0.14740132224747252, 0.15014773493660527, 0.15296504796132665, 0.15586327024584118, 0.15873902075341118, 0.1616500883439883, 0.16456582862392488, 0.16755049024952778, 0.1705439038563664, 0.17359695415685017, 0.1766811881071277, 0.17979664774855195, 0.18294331705588965, 0.18613310887772033, 0.18934042553241454, 0.19257927333350228, 0.19582618560025897, 0.1991300949926702, 0.20250079907408464, 0.20585827383724373, 0.20924668438682809, 0.21263909408113846, 0.21609098135327634, 0.21959136484458602, 0.22309571314994342, 0.22662819110748786, 0.23014906721233006, 0.23374097983847553, 0.23740896508382636, 0.24104232239043016, 0.24470211887035948, 0.24838117071628532, 0.2520922872098718, 0.2557872021680144, 0.25955013892932327, 0.263333158250717, 0.26715664283891477, 0.270976000832219, 0.2748009484070925, 0.2786613923241457, 0.28253964804080084, 0.2864143687326864, 0.29032911447269094, 0.29427786700291647, 0.29821937384465, 0.3021757782427852, 0.306132778670706, 0.31011851270448093, 0.3141529113870765, 0.31815717629406315, 0.32217407119146324, 0.326179419287331, 0.3302214818840196, 0.3342782665874987, 0.3383353912246756, 0.34242356843563415, 0.346490964445091, 0.3505650359332702, 0.3546127476933533, 0.3587009784838046, 0.36281086093825504, 0.3668991465753094, 0.37098864722192876, 0.37506559717590465, 0.3791561910339004, 0.3832523198682833, 0.3873361174457212, 0.39141613701310657, 0.3954546633367159, 0.39952885945905103, 0.4035990870362443, 0.40765446801295374, 0.4116999432898517, 0.4157259233829404, 0.41975026165401774, 0.4237609103678876, 0.42775875702953586, 0.43174201550139435, 0.43575216047009474, 0.439698277230867, 0.4435815929329986, 0.44750275441563125, 0.45140383670808365, 0.45528559847829586, 0.45914377609697443, 0.4629969419511966, 0.46680680110991507, 0.47059319316543713, 0.47436939786956717, 0.47810374568863795, 0.4817945768433968, 0.4854780610514969, 0.48913223570415515, 0.49276886099227235, 0.4963597379620039, 0.4998662388335873, 0.5033993507839464, 0.5068956197625603, 0.5103911211327847, 0.5138070089633111, 0.5171452536491086, 0.520491415671664, 0.5237962591387101, 0.5270782342912887, 0.5302958228153404, 0.5334829011028404, 0.5366130364071363, 0.5396994456025178, 0.542705933800891, 0.545706208449978, 0.5486936349275741, 0.5515910559633066, 0.5544402416285296, 0.5571938167317955, 0.5599492801171418, 0.5626636242018687, 0.5653090656880813, 0.5679000885404318, 0.5704463234033323, 0.5729249299529263, 0.5753234639345542, 0.577692040411702, 0.5800014887051258, 0.5822679581862056, 0.5844551419987345, 0.5865438918177737, 0.5886149595822308, 0.5906222352089961, 0.5925908372194445, 0.594465944184597, 0.5962916803252063, 0.5980367684930769, 0.599717526110249, 0.601324381193066, 0.6028752654080614, 0.6043143320810862, 0.6057360831149866, 0.6070870184139595, 0.6083725104033745, 0.609580426418504, 0.6107019407919778, 0.6117690074968605, 0.612763353652455, 0.6137279108111949, 0.6145707350338747, 0.6152986742962429, 0.6160045719979164, 0.6166359319650861, 0.6171902090865704, 0.6176723447184278, 0.6181073063614897, 0.6184355050047615, 0.6186898670382771, 0.6188716330926108, 0.6189770831819434, 0.6189870485391833, 0.6189454249921554, 0.6188274179162253, 0.6186098286525659, 0.618341896786677, 0.6179850377552459, 0.6175632272362755, 0.617063428524961, 0.6165162714369575, 0.6158574719062244, 0.6150792479229258, 0.6142750321549909, 0.6133929070134099, 0.6124468726386157, 0.6114084583190736, 0.6102797400202172, 0.6090915730422808, 0.607827244400272, 0.6065311073853737, 0.6051101561049271, 0.6036071814409513, 0.602042640475236, 0.6004053226894889, 0.5986818999483972, 0.5969015383658701, 0.5950109610436285, 0.5930904743685981, 0.5910961722515398, 0.5890712072055331, 0.5869263521169895, 0.5846661303737976, 0.5823895023009554, 0.5800421560205503, 0.5776569299896256, 0.575166754054582, 0.5725743344661286, 0.5699567149053607, 0.5672720218950194, 0.5645220078803951, 0.5617059206648627, 0.5588599960045274, 0.555912127226302, 0.5529038698099663, 0.5497951476972744, 0.5466732937298304, 0.5434804873063976, 0.5402399147761797, 0.5369403937800412, 0.5336078652006402, 0.5301908374711323, 0.5266901953007438, 0.523169739267401, 0.5195954897366786, 0.515962286291137, 0.5122849385596808, 0.5085978425963841, 0.5048156291340012, 0.5009877267382554, 0.49708869251072035, 0.4931755352920961, 0.4892252596369876, 0.48522381052336505, 0.4811809264481523, 0.47705705169561197, 0.4729400123508921, 0.46883556183132596, 0.4646331391422138, 0.4603966103520262, 0.4560815140359378, 0.45178577347149995, 0.447479839836504, 0.4431159757904472, 0.4387230779658474, 0.4343040415757134, 0.4298567741613403, 0.425397257838525, 0.4208996204327224, 0.41638029021980494, 0.4118309003977642, 0.4072730733255789, 0.4026935350285956, 0.3981004304678052, 0.39349133678089726, 0.3888692376221181, 0.38423212261071776, 0.37954652297915376, 0.3748919499662126, 0.3702263256694165, 0.3655760849168594, 0.3608902054493189, 0.35616762024604587, 0.3514776459099154, 0.3467838645219734, 0.3421270385332298, 0.33742551996381176, 0.3327127691796314, 0.32802056772086335, 0.32333312903226746, 0.3186661733162476, 0.3139904599204993, 0.3092979589862412, 0.3046459294427776, 0.29997325514930984, 0.2953476097396944, 0.2907335560444769, 0.2861646785277127, 0.2815746116915699, 0.2769962815936622, 0.2724445060560461, 0.26791294653943687, 0.2634212352269735, 0.2589315461278263, 0.25444286717470266, 0.25000721826504946, 0.24559732298861386, 0.24120564986107976, 0.23685211360716452, 0.2325011672905992, 0.228210116780502, 0.22394900753384675, 0.21972562932076567, 0.2155277360193964, 0.21141849422411027, 0.2072835870295235, 0.20318839992677937, 0.1991200285976855, 0.19510804350527833, 0.191110733427949, 0.187184981889001, 0.18330043907766794, 0.17944055920985968, 0.17564370505574894, 0.171922006078895, 0.16820858478630774, 0.16454224495126266, 0.1608845590137919, 0.157319460909394, 0.1538476816465126, 0.15037168813358756, 0.14694720206918932, 0.14353079693580945, 0.14021640219547166, 0.13694936711959563, 0.13373733200801896, 0.1305773112428265, 0.12749803168836607, 0.12444075894657713, 0.12143922456169154, 0.1184938267392997, 0.115604947539049, 0.11274898763768304, 0.10997725299495313, 0.10725534242318485, 0.10459734678935273, 0.10199616691079184, 0.09944667821837512, 0.09696119118708085, 0.09457500679962264, 0.09220017388001797, 0.08988614456045135, 0.08763526771784744, 0.0854423989578447, 0.08328316085179742, 0.0812152303361506, 0.07920640839720085, 0.07726481347403039, 0.07537355392533593, 0.07353015386086688, 0.0717600544717991, 0.07004902289314831, 0.06837070631066637, 0.06678113026295103, 0.06526902688763633, 0.06379204274466604, 0.062373846136970244, 0.061051816670811346, 0.05974592141068716, 0.05847237069945213, 0.057290054358519034, 0.0561653553766291, 0.05509475348053255, 0.05408469251591031, 0.053152586035437155, 0.052252196353318944, 0.051408626595847204, 0.05060529822866592, 0.04987557693660302, 0.049190371301071185, 0.048569573089560884, 0.04800133041602943, 0.047515535160257936, 0.04704714374571691, 0.04658439538877279, 0.04622670753712037, 0.045917546175384044, 0.04567725874980991, 0.04546121041490934, 0.04532300170797316, 0.045199057778754576, 0.045123585686489553, 0.04504126541663012, 0.04506661414307893, 0.045150392177888916, 0.0452580903785954, 0.04540801588902144, 0.04562417235271269, 0.0458531167833265, 0.046125719484770504, 0.04643585257325863, 0.04678532119124388, 0.04717148184079153, 0.04759668953460751, 0.0480364473550095, 0.04853559288139482, 0.04906759458848394, 0.049662751969097446, 0.050253941190517855, 0.05084195654471723, 0.05150036811341831, 0.052186454794812535, 0.052905743798359675, 0.05364375742856628, 0.05443350179122082, 0.05521793804411152, 0.05602724254819475, 0.05683702959361333, 0.05769535515505581, 0.05858401956309874, 0.0594799505833337, 0.06039442752081043, 0.06127842732633618, 0.06223277483981888, 0.06322126852232138, 0.06419734173730016, 0.06518575039668725, 0.06617514633313466, 0.06718663328106718, 0.06821013507173314, 0.0692379389222863, 0.07027288594168506, 0.07132837522320506, 0.0723728413988356, 0.0734350704732831, 0.07448676387438787, 0.07554192507268709, 0.07656340397684035, 0.07762645815883626, 0.0786954082729624, 0.07975241959142126, 0.08080607459872982, 0.08189058033265188, 0.0829302547128434, 0.08393296791275072, 0.0849671395549433, 0.08599285306171096, 0.0870315879404526, 0.08803489670440069, 0.08899879000171146, 0.08998505791927403, 0.09095771722501739, 0.09193517216003291, 0.092875884790259, 0.09383051135884818, 0.09473697539326743, 0.09562837960419744, 0.0964484916568899, 0.09731345209768034, 0.09818342357163048, 0.09900182075569079, 0.0997992728633885, 0.10058939252157267, 0.10134085759712884, 0.10205396775917054, 0.1027618716270889, 0.10344488626603658, 0.10413113984669707, 0.10475886837921984, 0.10536547573138931, 0.10594165700007814, 0.10649136948792394, 0.10697072274400421, 0.10747073309303135, 0.10795330296860442, 0.10838927636099234, 0.10879442838377687, 0.10918993201697175, 0.10952954324832406, 0.10981922933518996, 0.11009923251964907, 0.110346393939354, 0.11060914371810075, 0.11078358383296387, 0.11092866944074264, 0.11104036281692448, 0.11111997878522085, 0.11120054202983765, 0.11121024452530903, 0.11118675385299914, 0.11113284041250031, 0.11104607100613163, 0.1109116127123215, 0.11075965598719063, 0.11057607218243097, 0.11035392188699579, 0.11009688004172312, 0.10986796247103729, 0.10953292751086745, 0.10918955508985488, 0.10878810134996517, 0.10834279315868012, 0.10788032464802347, 0.10738520265452835, 0.10689638904283198, 0.10633054668122142, 0.10574750770235057, 0.10511810945951164, 0.1044582225336855, 0.10381396985176954, 0.10308671817457048, 0.10235359745556347, 0.10156672707480517, 0.10075235650981254, 0.09993657408234863, 0.09906317292178278, 0.09815529487491868, 0.09722976979498542, 0.0962771104670808, 0.09533419023222761, 0.09432308682493501, 0.09332269420478691, 0.09225834075493951, 0.09117175893837787, 0.09012523237539263, 0.08898636135829999, 0.08781544650734036, 0.08664115665403671, 0.08544737230358726, 0.08429897839329505, 0.08305867307875853, 0.08178737765631107, 0.08051901076228858, 0.07923476583359203, 0.07796613693565173, 0.07664731463724578, 0.07537078121568998, 0.07401968113702843, 0.07265964370043061, 0.0713362958262463, 0.06995304445461158, 0.06854491100205518, 0.06715275148711683, 0.06575412377859262, 0.06437350076815615, 0.06296052445406723, 0.06161531086633439, 0.060187244390986834, 0.05876104765911556, 0.05730971622046652, 0.05589129723534442, 0.0545020486396491, 0.05308326373624452, 0.05166881995819589, 0.0502913209654625, 0.04888355379281904, 0.047488101204910475, 0.046097078219710985, 0.04471590188412939, 0.04340601902920074, 0.042039141245009015, 0.04067514855499013, 0.039341652161147475, 0.03802407718148932, 0.03677428352768067, 0.03548436489488321, 0.03419567450629682, 0.0329511859270463, 0.031727887000034205, 0.03053062046684123, 0.02935179557738571, 0.02820906609936805, 0.027077907957743112, 0.025973482819721755, 0.024918285051374275, 0.023867415461591577, 0.02287053990642581, 0.021879245708641987, 0.020921817437491084, 0.020032545006511398, 0.019140879315481276, 0.018289730784722475, 0.017474611869179615, 0.016699031076410496, 0.01595810937581612, 0.015264501406663276, 0.014621189881700528, 0.01401038025763494, 0.013443379205984114, 0.012942619818177431, 0.012463128731441857, 0.012048894071399138, 0.011663296532273293, 0.011327901036629387, 0.01100663022219891, 0.010778327499097915, 0.010625041311476846, 0.010495174740846913, 0.010419056465205646, 0.0104110950637026, 0.01044324935025391, 0.010501263258409914, 0.01065211284676517, 0.01085969762580842, 0.011155370577364767, 0.011475554745334866, 0.01184510777137469, 0.012290181032969335, 0.01279727975663997, 0.013362382197248035, 0.013996436595392533, 0.014677740619286369, 0.015442727454973038, 0.01627229883169698, 0.017180086572977427, 0.01813972321587932, 0.019175082786038463, 0.020269810288500497, 0.02143395970935554, 0.022688819741706476, 0.023990729831383645, 0.02535355427555392, 0.026801376317329453, 0.028321275904335006, 0.029873706926136157, 0.03154398109347047, 0.03330919586095907, 0.03511906241569412, 0.03700253286542965, 0.038959174506926056, 0.04099102464669051, 0.04311901810781698, 0.04529758308827782, 0.04755248857998138, 0.04986941907201709, 0.05227900749266495, 0.05476430063676243, 0.05732545539679411, 0.05996260370277425, 0.06264709515819011, 0.06544016191367265, 0.06831024963963869, 0.07125252463443081, 0.07427002894554287, 0.07738446813517916, 0.08055007073660872, 0.08374845468261465, 0.08707287598807373, 0.09047119193866578, 0.09393875593580815, 0.09748584226677584, 0.10109482354491002, 0.10479118399187526, 0.10856070097953317, 0.1124393101232786, 0.11635049945347498, 0.12034143822140933, 0.12440145836245496, 0.128535735950256, 0.13269819253428913, 0.13698509215587523, 0.14132684288394917, 0.1457555016514481, 0.15025284414817008, 0.1548018858063148, 0.15943802116312453, 0.1641706298488789, 0.16893660067630528, 0.17377055268950162, 0.178678240750165, 0.18364540925231307, 0.18865335732229613, 0.1937556655660797, 0.19892130967536675, 0.2041368985520783, 0.2094289552679119, 0.2147784734561342, 0.22019161429364528, 0.2256639163961463, 0.23117151104621822, 0.23676290916798726, 0.2424570541562932, 0.24815308184544882, 0.25390602100856846, 0.25969715876246713, 0.26556272218870325, 0.27146240954679385, 0.27743427874065923, 0.2834555696753537, 0.28947904388727624, 0.29560227527766475, 0.3018038409868054, 0.30801005649710067, 0.31426082051292015, 0.32050953306246516, 0.3268519177896395, 0.3332282111514844, 0.33964781886983575, 0.34610421761978355, 0.35263487031129015, 0.35915730076239866, 0.3657070663875448, 0.3723014943548313, 0.378893680135584, 0.38555706076598756, 0.392248753949926, 0.3989717040851113, 0.40571632047118605, 0.4124526352388429, 0.4192507783234327, 0.42606983096800505, 0.4328904180221402, 0.4397505463986303, 0.4466113984413467, 0.4535059318895356, 0.4604141779310349, 0.4673391282136908, 0.4742712222172412, 0.48119967901411004, 0.4881538643939679, 0.49511552323810054, 0.5021098432441686, 0.5090795497606281, 0.5160273949204038, 0.523009622208666, 0.5299925984411045, 0.5369382771802598, 0.5439234643530024, 0.5509057461475606, 0.5578789430570905, 0.5648447497054322, 0.5717771951683966, 0.5787276882364342, 0.5856784418023461, 0.5926011619379513, 0.5995097959167552, 0.6063790649134041, 0.6132585870645874, 0.6200978912246456, 0.6269399530557962, 0.6337589842539557, 0.6405674703870556, 0.6473353912605243, 0.6540233000867823, 0.6607453706848734, 0.6674360165131026, 0.6741118826741763, 0.6807346052679638, 0.6872839744861737, 0.6938436793011371, 0.7003652199862851, 0.7068500256717635, 0.7132919767692695, 0.7196920359486235, 0.7260507684076277, 0.732366063149162, 0.7385927981335284, 0.7448231871396196, 0.7510008503578477, 0.7571316918006624, 0.7632109880180773, 0.7692537494549012, 0.7752249951369616, 0.781134585430013, 0.786998304089891, 0.7928054940273107, 0.7985398267001897, 0.8042324154272087, 0.8098449740861111, 0.8154172226350656, 0.8209254277869236, 0.8263558900502117, 0.8317348427994244, 0.8370366204559173, 0.842280727520201, 0.8474549246675724, 0.8525176263559238, 0.8575545918338602, 0.862550304500863, 0.867432845056573, 0.8722412605787687, 0.876948249627719, 0.8816089237150921, 0.8861560194395648, 0.8906635492207323, 0.8950892014589314, 0.8994548627702335, 0.9037124456553696, 0.9078686641928054, 0.9119635095453612, 0.91597353129634, 0.9198797321171726, 0.9237205399408336, 0.9274623929779291, 0.9311285610006118, 0.9347052864826837, 0.9382304535327475, 0.9416220467107408, 0.9449057387936095, 0.9481214777832868, 0.9512458037015467, 0.9542461602554932, 0.9571899003097838, 0.9600522394530803, 0.962803994750645, 0.9654609038983994, 0.9679969640303054, 0.9704660973344335, 0.9728320591119589, 0.975106532189549, 0.9772826843301393, 0.9793547410020114, 0.9813343998641109, 0.9832316248814641, 0.9850105890277653, 0.9866909693537241, 0.9882517003704726, 0.9897366687105044, 0.9911578014337538, 0.9924368922816642, 0.9936173267345929, 0.9946915563206377, 0.9956745529720766, 0.9965407663045063, 0.9973256925712424, 0.9980093519115025, 0.9986053486939017, 0.9990848458001096, 0.9994839281766164, 0.999760094091361, 0.9999369553676415, 1.0, 0.9999797206508679, 0.9998303222185061, 0.9996130824468086, 0.9992941509018605, 0.9988963110804653, 0.998372417951346, 0.9977173874289884, 0.9969994071046391, 0.9961809619576316, 0.995292962037286, 0.9942714101855892, 0.9931439645890809, 0.991929615395432, 0.9906183098575321, 0.9892248676988861, 0.9877191773149765, 0.9861195273243278, 0.9844246123756929, 0.982635807314959, 0.9807471808996683, 0.9787728162884657, 0.9767056840424645, 0.9745463955026749, 0.9722955867223391, 0.9699659001891217, 0.9675325406396262, 0.9650000006214925, 0.9623909963304348, 0.9596939159153925, 0.9569207276046066, 0.9540484565934627, 0.9510735806670646, 0.9480342266847794, 0.9449104007478967, 0.9417126478195029, 0.9384215545033336, 0.9350222783065643, 0.9315734885142222, 0.928044004853029, 0.9244653590333853, 0.9207741734900768, 0.9169611790681492, 0.9131258147275652, 0.9092142389668111, 0.9052637462032602, 0.9011992263995907, 0.8970253581999867, 0.892826383173959, 0.8885570476087548, 0.8842346999238738, 0.8798267235554231, 0.8753493598459141, 0.8708123052538432, 0.8662120473589942, 0.861553032324442, 0.8568297210689791, 0.8520311765774733, 0.8471926121952236, 0.842296385499184, 0.8373502755682449, 0.8323420758869483, 0.827276727511306, 0.822164047078735, 0.8170006394094034, 0.8117559170675918, 0.8064991913543688, 0.8012427724040342, 0.7958846718572645, 0.7904841120251663, 0.7850366835512408, 0.7795554858006729, 0.7739936017193633, 0.7684406612527135, 0.76284885989193, 0.7572126734300448, 0.7515490263997551, 0.7458845789171231, 0.7401496359688149, 0.7343695165130197, 0.7285795194802002, 0.7227620904060191, 0.7169171095136719, 0.7110494461203295, 0.7051379087318098, 0.6992281367090339, 0.6932970386416166, 0.6873773992075725, 0.6814045775701196, 0.675381050643375, 0.6693845674810952, 0.6633739419311507, 0.6573811510916763, 0.6513432428902141, 0.6452857029574727, 0.6392353158150496, 0.6331792267763005, 0.6270749207774271, 0.6210172368021775, 0.6149835874345841, 0.6089162782052975, 0.6028500798183483, 0.596748886374775, 0.5906939578047213, 0.584640709656575, 0.578594239618362, 0.5725543090810137, 0.5665608788474507, 0.5605339891263159, 0.5544813749693409, 0.5484874576646116, 0.5425071422128919, 0.5365459323667534, 0.5305968070579613, 0.5246970803367421, 0.5187818784518606, 0.5128893888555139, 0.5069831386028838, 0.5011440419114289, 0.4953359744603775, 0.48954503893289175, 0.48378109227592997, 0.47801823910389457, 0.4723154727112876, 0.4666355014930651, 0.46099332697533973, 0.45538275562128466, 0.44984270097974643, 0.4442946481014836, 0.43874033524621925, 0.4332741169731477, 0.4278449654171786, 0.4224485655311037, 0.4170980353258106, 0.41181670136504306, 0.4065445969966787, 0.4013168673345967, 0.3961239916591231, 0.390988904207958, 0.3858993657355185, 0.3808579855947632, 0.3758647063786004, 0.3709315821823661, 0.3660356797276468, 0.36118465819562273, 0.3563928189724622, 0.35165330636233916, 0.3469397017196509, 0.3423104801928143, 0.33772543960077955, 0.33320416621243504, 0.32873712353808526, 0.3243427663094751, 0.31998455478861765, 0.31567047334565157, 0.31142999403666405, 0.30724762791888705, 0.30312323032587474, 0.2990591159020798, 0.2950645053393238, 0.29111956625281965, 0.2872361511758723, 0.28342425269577576, 0.2796638720081039, 0.2759044000422803, 0.27227859294250345, 0.26871301937323927, 0.2652515533582103, 0.26180313097074753, 0.2583778154118071, 0.25506411291183345, 0.2518130609031873, 0.2486259318940651, 0.24550144036170513, 0.24244168617010647, 0.23944526756709733, 0.2365133770275317, 0.23368055885868463, 0.2308739250869716, 0.22809187105528808, 0.2254242225260723, 0.22282071021035182, 0.22028626061393144, 0.2178107685161305, 0.21543908587217944, 0.21308794223683172, 0.2108035528792145, 0.2085807054055827, 0.2064291799460813, 0.2042893819789791, 0.20227475469645487, 0.200321638459646, 0.19846523730804147, 0.1966308080967144, 0.19486305081885172, 0.19315477677338505, 0.19150935665018973, 0.18990397614620402, 0.1883857381007598, 0.186951686612888, 0.1855505603727278, 0.18421036133473037, 0.18290736098905455, 0.18169024901693945, 0.18054463186510014, 0.17944123140097906, 0.1783956723377993, 0.17738661113413606, 0.17645762162941042, 0.17556596290960316, 0.17474854948957322, 0.17398410755670488, 0.17326825833644632, 0.17260906042703544, 0.1720500375256326, 0.17148708230199433, 0.17097728328764947, 0.17048133092234555, 0.17007980395204908, 0.16971842545230903, 0.16941355138409045, 0.16915507261731247, 0.16898230119118177, 0.16880964142213312, 0.1686524742046295, 0.16857599670959686, 0.16854233021292597, 0.1685626795032616, 0.16861076508193765, 0.16867437333599927, 0.16880692303985165, 0.1689772420813896, 0.169212544696796, 0.16945260345263238, 0.16973766478848684, 0.17004968748088498, 0.1703970671464003, 0.1707435445715567, 0.17116275873469153, 0.17160007230960914, 0.17208016481903685, 0.17258803920261767, 0.17316607526809857, 0.1737217567749405, 0.17425974054553106, 0.17487565189692464, 0.1755144677453589, 0.17616261091273624, 0.1768464326996927, 0.17758031971355911, 0.17829894870201043, 0.17903740638988694, 0.17980579213945078, 0.18057924470476108, 0.18134994209366853, 0.18215918745545168, 0.18298221776974796, 0.18381965893816124, 0.1846671360679532, 0.18550318938409596, 0.18637438171821513, 0.18725326358257113, 0.1881318259895651, 0.18902451543996374, 0.18994593495874326, 0.19084430838718253, 0.19174713738756446, 0.19265976512205932, 0.19356756492388844, 0.19448745084199268, 0.1953962720752058, 0.1963052573231653, 0.19717334743740922, 0.19808438168079034, 0.19902920301691435, 0.19992385730404705, 0.20081389382923479, 0.2016535124483288, 0.20253679731475124, 0.20342341586304205, 0.20428386389573322, 0.20515512031576655, 0.2059905481855347, 0.20681487854311945, 0.20759521249188054, 0.2083985727966205, 0.20918068318455937, 0.20995281460361775, 0.21070772524253814, 0.21149035578815298, 0.2122032826344121, 0.21287018474620314, 0.21355293052839022, 0.21421563005338645, 0.2148759957309217, 0.21549430768498518, 0.21610203552986595, 0.2166763184355036, 0.21722868791643846, 0.21770082589233183, 0.21821426776304134, 0.21870825780543224, 0.21916557672654277, 0.21959541318332354, 0.21998943644738858, 0.2203642812775958, 0.22074768784645604, 0.22105952390846587, 0.2213438817133285, 0.2216121296110538, 0.22183820844806174, 0.22200618485457294, 0.2221782963553192, 0.22231902210574916, 0.22240889943831893, 0.22248841300144448, 0.22253541765480106, 0.22254810708869355, 0.22252731074234783, 0.22251763571310434, 0.22242383117366377, 0.22230026771559064, 0.22214306434482398, 0.22195367588329712, 0.2216749858099887, 0.22142724106636513, 0.22116382858200984, 0.22084076795760801, 0.22048278559897902, 0.22008507275646663, 0.21965781460176978, 0.2191945481140172, 0.2186970251536666, 0.21816436135242973, 0.21763577348380145, 0.21702811250019136, 0.21636219710698923, 0.21569217242755542, 0.21498764937058307, 0.21423913435107447, 0.21346712187134786, 0.21269954775834696, 0.21185340479936482, 0.21097521484374412, 0.21003455242441865, 0.20909594398600584, 0.20810035221130624, 0.20709734875447036, 0.2060598602732543, 0.204984410280567, 0.20387999673348364, 0.20275996491596432, 0.20158746392473537, 0.2003837849926493, 0.19913970273781723, 0.19787597313800526, 0.19662877526874875, 0.19529836478156393, 0.19394095335414693, 0.19253827147595542, 0.1911295427864802, 0.18969244521860276, 0.18822907330477487, 0.18673890139267776, 0.18523595653804792, 0.1836918292295892, 0.18210868568691405, 0.18051749571074285, 0.17890168064902265, 0.17721867315699355, 0.1755607790178399, 0.1739326966351238, 0.17221816924439567, 0.17048329269992826, 0.16867738629246223, 0.1669096343581646, 0.16516241596909303, 0.16334663882293637, 0.1615132756522943, 0.15966127021979998, 0.15779458126365273, 0.15589991736530795, 0.1540033679042026, 0.1520913873979242, 0.15016550815393284, 0.1482247650596653, 0.1462540613485107, 0.14428979558749727, 0.14231285877747094, 0.1403472808581159, 0.13834465039096855, 0.13629724994324768, 0.13428215304737584, 0.13225749760202987, 0.1302202355140558, 0.12817977913010792, 0.12616824678912783, 0.12411010554734155, 0.12204874568256688, 0.11997595109544122, 0.11791099375211424, 0.11585367000329, 0.11378428165228553, 0.11171485246420379, 0.10962362883527287, 0.1075587964897122, 0.10549054514163687, 0.10342818956885953, 0.10136781265844094, 0.0993198237365499, 0.09726464510204422, 0.09526233046143717, 0.09321165909805812, 0.0911700014755792, 0.08915443440135498, 0.08712963130266511, 0.08508306087444259, 0.08308464784823, 0.08109598896441954, 0.07917123560602667, 0.07719721389100292, 0.07520669678137054, 0.07326613627567298, 0.07133894925380532, 0.06944805680730214, 0.06754646090532189, 0.06570032371673318, 0.06382680807690694, 0.061972622230704995, 0.06014348540137394, 0.05832769158948398, 0.056576821003285566, 0.054795983351694055, 0.053038354452072244, 0.05132066283678968, 0.04960726724142205, 0.047936474820088205, 0.04626923795532438, 0.044627371744974574, 0.04305401160372019, 0.04145750066241241, 0.03992252903022516, 0.0383775892834456, 0.03686227905726227, 0.03537153526364835, 0.033915379642842344, 0.03253119806352877, 0.031127297783933566, 0.029754784108120155, 0.02846697819982015, 0.027149960866807255, 0.025906929118716258, 0.024652553227810844, 0.023433777228161614, 0.02223890525147599, 0.021091329484486405, 0.02001508928677945, 0.0189302542706847, 0.017881198824471995, 0.0169267704740801, 0.015941095616320976, 0.015018742952285813, 0.014106548441175301, 0.013233404982601742, 0.012407610497974716, 0.011610103580134418, 0.01087815649536368, 0.010153752018415348, 0.009468826044567804, 0.008838226260441135, 0.008229436237976033, 0.0077233431345716625, 0.007185530974074364, 0.006690472004776116, 0.006231972648495538, 0.005821434957143074, 0.00549579203074718, 0.005161361635820251, 0.004869910219666575, 0.004628143962992195, 0.004420385770845909, 0.004257225651927724, 0.004133271778712301, 0.004062312625736802, 0.004020376706794007, 0.0040205492312301895, 0.004092998286915035, 0.004173036192554685, 0.004334003035458518, 0.004495751720249968, 0.004702425843733374, 0.004950322638927969, 0.005245807968321997, 0.005612701701222064, 0.005991277071564645, 0.00641436959370006, 0.006864793202084483, 0.0073778701117992364, 0.007939059207767125, 0.00853635561147547, 0.0091762797037855, 0.009893860126658877, 0.010614257923090169, 0.011374959508699597, 0.012184103828931432, 0.013036657563771483, 0.013929984205429754, 0.01486896799583445, 0.015896918491621566, 0.016915167146749975, 0.01797836912429275, 0.019066058866178646, 0.020220261617745157, 0.02143374412855322, 0.02267064561220314, 0.02395063057832401, 0.025285387105308203, 0.026649169536336264, 0.02802475135868629, 0.02947806036600781, 0.03097196584307385, 0.03253521076524239, 0.034106620749228704, 0.035731352704545624, 0.037385351425421355, 0.03908158649507961, 0.04083330884068537, 0.04261133819026807, 0.044431451884608085, 0.04629327839302976, 0.04819647636413819, 0.05012315709154744, 0.0521103986912627, 0.054113981993790916, 0.05618305432692604, 0.05829010570352005, 0.06046635770019592, 0.06264560549074591, 0.06486950025897008, 0.06712759471476082, 0.06942531166427247, 0.07174160751849028, 0.07412038469457366, 0.07650967202331276, 0.07896714836006313, 0.08146060893642501, 0.08399177108870663, 0.08655731934253567, 0.08918634993282835, 0.09182111289884871, 0.09449370277114663, 0.09719346933816168, 0.09994223449909291, 0.10270829110052573, 0.10553223876511626, 0.1083912323713965, 0.11130282054012569, 0.11422958413294267, 0.11717625791535566, 0.12017658246059199, 0.1232114329770429, 0.1262687238487457, 0.1293738152676734, 0.1325179959832659, 0.13568932602125408, 0.1388943450900666, 0.14211294431726823, 0.1453874376579781, 0.14873558402913623, 0.15206904200026664, 0.15543689121574042, 0.15882195514942754, 0.16225952180362505, 0.16568385494764812, 0.1691915597373567, 0.17272857202495354, 0.17634456200257878, 0.17993431109904642, 0.1834973281930677, 0.187158927754654, 0.1908488368188522, 0.19461110895844072, 0.19835239181881562, 0.20212147533716937, 0.20592479281269152, 0.20975821427328512, 0.2135679025159291, 0.21746735354903843, 0.22140335345470738, 0.22535394688357155, 0.229331491187946, 0.2333111716702513, 0.23734556381876176, 0.24140926846240057, 0.24549385747308236, 0.24960407208065327, 0.25373506295752885, 0.25789693122209206, 0.26209986393663964, 0.26630977826863345, 0.27054542729982556, 0.27478894254754593, 0.27907739136909876, 0.2833960728640872, 0.28773122395915374, 0.2920902048222266, 0.296467154813774, 0.30087368316786356, 0.3052661398258297, 0.30972240422592817, 0.3141987507303442, 0.3186784140722418, 0.3231970261847215, 0.32775863041509873, 0.33231227924007456, 0.3368862702295907, 0.34146194853273637, 0.34607808104975823, 0.350686261232749, 0.3553423565598243, 0.36001497394727117, 0.3646944899886586, 0.3694011973504156, 0.37416276328567827, 0.37889585009961047, 0.3836465916669853, 0.3883753341302844, 0.3931647975314168, 0.3979506074185641, 0.40276993452707127, 0.40760175806723503, 0.4124683115083502, 0.41732185009279327, 0.42220057759500723, 0.4270785657038886, 0.4319695206575972, 0.43680976338203886, 0.44173291220631494, 0.44665338238571256, 0.4515931892593463, 0.4565399219101823, 0.4614806943208517, 0.46644251653272945, 0.47143720894004015, 0.47640684454747423, 0.4813833081468348, 0.48633733750432667, 0.49132955674643924, 0.4963158272681555, 0.5013162004692141, 0.5063189639738903, 0.5113062039462482, 0.5163149040893505, 0.5213006889300953, 0.5263124942942132, 0.5313225495418996, 0.5363681624164294, 0.5413691960094572, 0.5463097772878687, 0.5513165879872184, 0.5563180543705838, 0.5612995445083784, 0.5662913122261625, 0.5713063260097835, 0.576279715632701, 0.5812469910772002, 0.5861922869823598, 0.5911471679378221, 0.5960610049144239, 0.6010011196068008, 0.6059290727528258, 0.6108212749033879, 0.615726506057267, 0.620606456265742, 0.6254828175959967, 0.6303428557004641, 0.6351869414424289, 0.6400128864129548, 0.644794729196238, 0.6495879230744673, 0.6543606499099291, 0.6591108401812867, 0.6638413584184606, 0.6685736927003733, 0.6732562617988006, 0.6779167380423755, 0.6824943114083576, 0.6871154685094129, 0.6917172284096044, 0.6962804602855948, 0.700830220579475, 0.7053335937404738, 0.70980784258542, 0.714252121089367, 0.7186655643442512, 0.7230193327849048, 0.7273719833131463, 0.7316895467787552, 0.7359337872440095, 0.7401838122856269, 0.7443816830571237, 0.7485540916744324, 0.7526853760300757, 0.7568237636151021, 0.7608650769396166, 0.7648447556478861, 0.7688076074888698, 0.7727270785955016, 0.7765639579530249, 0.7803988975967852, 0.7842192114395158, 0.7879529630118218, 0.7916391879205261, 0.795227411109491, 0.7988219974858137, 0.8024025714567206, 0.8058853505478876, 0.8093160258370351, 0.8126624918705148, 0.8159900468442192, 0.8192513203981348, 0.822466008458957, 0.8256220630978449, 0.8287372010343681, 0.8317716711119651, 0.8347464946807567, 0.8376607997984759, 0.8405137174961558, 0.8432660400983862, 0.8459984423833976, 0.8487118588616078, 0.8513055340475254, 0.8538346357935633, 0.8562614489466922, 0.858663166722241, 0.8610002103958235, 0.8632617903431733, 0.8654529640848407, 0.8675930436496055, 0.8696389032973773, 0.8715839431259814, 0.8734901938902553, 0.8753219091236414, 0.8770953301224369, 0.8787742456053185, 0.8803635704781192, 0.8818931997460794, 0.883345467064303, 0.8847541920916707, 0.8860458087248142, 0.887235653977272, 0.8883755970764596, 0.8894356090475906, 0.8903992087038551, 0.8912998781245556, 0.8921086634955628, 0.892845617370652, 0.8934990736250847, 0.8941135151578341, 0.8945935636831204, 0.894945530839108, 0.8952673206325249, 0.8955035750075105, 0.8956581368996134, 0.895722359100501, 0.895713591472916, 0.8956044717900528, 0.8954099386061419, 0.8951153450218777, 0.8947510224773618, 0.8942949553530891, 0.8937572565789034, 0.8931321900705388, 0.8924333180911662, 0.89163175529406, 0.8907339767279445, 0.8897602708209897, 0.8886992340178852, 0.8875564944862477, 0.8863202160905033, 0.8849906937729273, 0.8835815640903052, 0.882085343371546, 0.8804862062440669, 0.8788182958474742, 0.8771204250661928, 0.8752706339661908, 0.8733372840631706, 0.8713026947483865, 0.8692041966138936, 0.8670330143101469, 0.8647638945595868, 0.8624112725564449, 0.8599354149844929, 0.8574215090804557, 0.8548122404195799, 0.852130358499461, 0.8493642525523363, 0.8465474312529083, 0.8436110042465987, 0.8405832704382266, 0.8374885004268762, 0.834313995180427, 0.831065198458105, 0.8277325922582808, 0.8242881921669483, 0.8208057201165317, 0.8172452652243517, 0.8136134312423489, 0.8098993323907319, 0.8061409361458526, 0.8022746481678317, 0.7983373245861327, 0.7942785650014786, 0.7902078445207877, 0.7860822820270984, 0.7818674545685743, 0.7775844316744741, 0.7732175228998465, 0.768803491350427, 0.7643611444454652, 0.7598118923874128, 0.7552013733409592, 0.7505129485486631, 0.7457849595121464, 0.7410080154558921, 0.7361612158575644, 0.7312580372575133, 0.7262860274447784, 0.7212752160949931, 0.7161979408953209, 0.711082690291468, 0.7059156697398341, 0.7006823352116558, 0.6954180887936887, 0.6901318269922886, 0.6847690525476013, 0.6793624817633799, 0.6738886709948394, 0.668401614076719, 0.662859001319052, 0.657292975717202, 0.6516880920528456, 0.646075572825824, 0.640394215258169, 0.6346294761794004, 0.628891444232038, 0.6231210557823645, 0.617369657697125, 0.6115337200836164, 0.6056232389089394, 0.5997465548635088, 0.5938455075510706, 0.5879258705620455, 0.5819809012957272, 0.576013053621547, 0.5700324903404536, 0.5640361415239429, 0.5580504413065808, 0.5520243865779868, 0.545933782549976, 0.5398972612352638, 0.5338510817773068, 0.5278107178710242, 0.5217491419958351, 0.5156962038036202, 0.50962808655256, 0.5035606027164328, 0.49747610921314533, 0.4914168967549874, 0.48536500828319373, 0.4793153179335809, 0.47327324915999863, 0.4672132394559373, 0.46119462172474673, 0.4551916341392278, 0.4491958507093803, 0.44321466295197665, 0.4372457230212202, 0.4312991389628466, 0.42538615192238033, 0.41947777717751666, 0.4135925791695488, 0.40775833623101804, 0.4019203994808056, 0.3960969574709501, 0.3903197556681147, 0.38457297497702264, 0.37884434706989806, 0.37316405448524165, 0.3675221304097169, 0.36190978373223964, 0.35629971159697565, 0.35076627236551244, 0.3452701466110108, 0.33982647282454076, 0.33440788085086937, 0.32904067380579244, 0.323707468413201, 0.3184199268184692, 0.3131760245618375, 0.30798370677685616, 0.3028099702067453, 0.2977204976856959, 0.292680503568652, 0.287693714716485, 0.2827563110123071, 0.27788672899453304, 0.27305554900244416, 0.2682808858254203, 0.2635612962141383, 0.25890280281634104, 0.25430506982299916, 0.2497655935486147, 0.2452871283030576, 0.24085372286468107, 0.23650184558037454, 0.23220763661755464, 0.2279821663227987, 0.22382060182856348, 0.21970540182276174, 0.21567642045233099, 0.21170308700038598, 0.20780663198438176, 0.20397650727457162, 0.2002167163412515, 0.1965212097052216, 0.1929367883709118, 0.18937402853800203, 0.18588354937693252, 0.18243755736992567, 0.17909566570502045, 0.1758002041333456, 0.17260420216437272, 0.16947871014872187, 0.16647534855658214, 0.16348584130371357, 0.1605382727589803, 0.15770219969638996, 0.15493880407494015, 0.15224666044378588, 0.1496292998447102, 0.1470609650027113, 0.14459268736136827, 0.14219616303280624, 0.13986599194750474, 0.13761419664705893, 0.1354334416488785, 0.13332549288441572, 0.13128941662444016, 0.12934195189668485, 0.12744734017973394, 0.12560371487344363, 0.12385662146891194, 0.12218020976456193, 0.12059744681145279, 0.11905882588835806, 0.1175906506291615, 0.11619409796810005, 0.11486768348334435, 0.11357730522420764, 0.11239373397670854, 0.11128229511826093, 0.11023075659474284, 0.10924533560132127, 0.10833113312099163, 0.10747572613457919, 0.10668116066301085, 0.10595527471068704, 0.10529265963024528, 0.10472538435993294, 0.10418309109626317, 0.10369178349838282, 0.1032759042341238, 0.10292025193902803, 0.10262469301034029, 0.10238658566119065, 0.10216518063864814, 0.10204613512865503, 0.10198028824878373, 0.10199732646503205, 0.10203198100687236, 0.10208423060681826, 0.10222775532596623, 0.10241991939756127, 0.10268548387679437, 0.10296924495803494, 0.1032861614638128, 0.10366567204184643, 0.1040896250592572, 0.10457854492173851, 0.10508550029639306, 0.10565168008366202, 0.10624012700233187, 0.10686939426230185, 0.10748214706598438, 0.10819588852324383, 0.10894310815155533, 0.1097228831276606, 0.11053424639120236, 0.1114105395823765, 0.11227767805887384, 0.11314884383328987, 0.11407870875879927, 0.11503472420529232, 0.11604289310142644, 0.11704428566555912, 0.11805464813277163, 0.11910482628795853, 0.12017545722406926, 0.12124848569589336, 0.12235829925503044, 0.12348457307289203, 0.12462445544090858, 0.12577772020001085, 0.12693279021957898, 0.12811054272261288, 0.12930387264312349, 0.13049805083934826, 0.13169947734987644, 0.1329197104708957, 0.1341303441895834, 0.13533887070353842, 0.13655754274617987, 0.13777747922774686, 0.13900940228541586, 0.1402265788936785, 0.14146190265926997, 0.14267157348596646, 0.14387789391966568, 0.14506982471303764, 0.1462663359571917, 0.1474698938459308, 0.1486469619078979, 0.1498142502758737, 0.1509464582687906, 0.1520932465429549, 0.15324178898310165, 0.15435537958321213, 0.15545282983342112, 0.15650582895963122, 0.15757100624108217, 0.158640708219521, 0.15965972527030012, 0.1606574303272141, 0.16157924185833228, 0.16253793395580446, 0.16346441547444976, 0.16436832706347962, 0.1652434217818739, 0.16614025994379134, 0.16694954251640876, 0.16771754105207692, 0.16847210100072846, 0.169196172675086, 0.16990249336203012, 0.17056136825496193, 0.17117608044097268, 0.1717712311892247, 0.1723318111566274, 0.1728219663630011, 0.17331575412568345, 0.17379411777441728, 0.17420744616576547, 0.17458277247876977, 0.1749091576212756, 0.17520814868760545, 0.17549331142507424, 0.17570818106589844, 0.1758835321104937, 0.17600758364100547, 0.17610355965324564, 0.17616730372670264, 0.17617804354490496, 0.17614675227652019, 0.17608340130468944, 0.1759655314192616, 0.17580188588576073, 0.1755988683434303, 0.1753523534139601, 0.17504608602669897, 0.1747137973411287, 0.17433479181971512, 0.17391242523359465, 0.1734447850234619, 0.17293667244274294, 0.17237792188959364, 0.17178143511232974, 0.17113194957413908, 0.17043801648746262, 0.16965731467977468, 0.1688799184332614, 0.16810057288709584, 0.16722460294301866, 0.16630534354598733, 0.1652997246878543, 0.16429957612542337, 0.16327160168905974, 0.16217895428005907, 0.16105011897851498, 0.15987017450398863, 0.15864800319304914, 0.15738314395742461, 0.1560776559226103, 0.15473577046776216, 0.15334770790158295, 0.15191956964588582, 0.15042461242804805, 0.14892103168943113, 0.14741631879162287, 0.1458279514402978, 0.14420292440012578, 0.1425240554042444, 0.14082914556123288, 0.13906992313213254, 0.1373064853987221, 0.1355064310570945, 0.13370900471023814, 0.13183356169071367, 0.1299327149946204, 0.1279934397307332, 0.12602389012381415, 0.12397751296219664, 0.12195513931549963, 0.11991685800878617, 0.1178314502039635, 0.11571790099599608, 0.11355634059169373, 0.11139183446604402, 0.1092598379102162, 0.10703572684702214, 0.10479046221419286, 0.10251183091790093, 0.10022762563466685, 0.09791540158308845, 0.09559294473957865, 0.09325163169005805, 0.09087719359215178, 0.0885028245087216, 0.08611150708274062, 0.0837043039321436, 0.08128227145085001, 0.07885125333767806, 0.07640210366156115, 0.07396709362231707, 0.07149286603336626, 0.0690106494101409, 0.0664996712123594, 0.06400661582584892, 0.06155075752875602, 0.05903971121133304, 0.056526468598014676, 0.05399733128033597, 0.051483595318944995, 0.04893386624232711, 0.04642378773807175, 0.04391271322080249, 0.04144019724181596, 0.038925891693313244, 0.03638754390399972, 0.033887135072455665, 0.031391505360344504, 0.028919321074464797, 0.02643428782064224, 0.02395984421685993, 0.021493494617060207, 0.019038031874900104, 0.016611122446735016, 0.014177987658426795, 0.011813676581885871, 0.009403439024456416, 0.007012281488195134, 0.004678094302610257, 0.002321452002604762, 0.0