0.03502697659920259, 0.034670914533196345, 0.03432824997147351, 0.0339075369954809, 0.033653964219719425, 0.033422875582743365, 0.03319366567893934, 0.032999904011906875, 0.032812351247561544, 0.03264273778009317, 0.0324818264565511, 0.032386294264158066, 0.03223190886314601, 0.0320971477025917, 0.031958148689822316, 0.03182679422645338, 0.03159079448000637, 0.03148697083592879, 0.03135511762693107, 0.03125527811127486, 0.031155185977828872, 0.031113747944212924, 0.03100867413662449, 0.03083213031226224, 0.03074881814903802, 0.030667799437675454, 0.030611606071924504, 0.030535605650633898, 0.030502607629169926, 0.03043574008006289, 0.030378827070072025, 0.030310757175742876, 0.03027752237587796, 0.030277706086207005, 0.030261633714785664, 0.03025772666555017, 0.030246959490850753, 0.030270698082163122, 0.030214105077185336, 0.03027386875703162, 0.03034127847982894, 0.03045611164444921, 0.03053725484609044, 0.03062274154461473, 0.030731359210200135, 0.030853444443924877, 0.031019562760387132, 0.031166296460193664, 0.031297421279705875, 0.03148155478640205, 0.03168078733249173, 0.03192558590597857, 0.03215244706130796, 0.03234361051598726, 0.0326132685951413, 0.03289807840581607, 0.03315137181598538, 0.033474056430171026, 0.03383436966021293, 0.03418292075696118, 0.034548361780094045, 0.034918291065316166, 0.035320529656575866, 0.03583468876091275, 0.036260443995182086, 0.03670991374191115, 0.03713553635251278, 0.03763743683205072, 0.03809732196863629, 0.038647760473113565, 0.03921537333256259, 0.039869567804308954, 0.040464974461599565, 0.04098041237793148, 0.041634965834978326, 0.04230686044955778, 0.043042070721545415, 0.04374558222341028, 0.04449505563405026, 0.04524061756467065, 0.046010502592105366, 0.04682628938989551, 0.04764247181477715, 0.04838155756870272, 0.049262593811855875, 0.05017021285412892, 0.05109159963963994, 0.05203516846576953, 0.05296725956339189, 0.05396151699058129, 0.05500365987680646, 0.056039726021899945, 0.05710089924029708, 0.058204801596298046, 0.05931533945491492, 0.06040813089654676, 0.06157923245071072, 0.06277555360340112, 0.06401482578481038, 0.06526104793364135, 0.06654142445011844, 0.06784254459570298, 0.06917228123675218, 0.07060379294668581, 0.07198208746489435, 0.07341723196856718, 0.07485859553942209, 0.07633373156340548, 0.07777561089699019, 0.07932528934961797, 0.0808887107169104, 0.08249806185060027, 0.08413580358449772, 0.08580227036027172, 0.0874977684863275, 0.08925047848686557, 0.09100132602366486, 0.09278353651239556, 0.09451124590158538, 0.09636699582842805, 0.09832223146940164, 0.10022247200631969, 0.10215461365812506, 0.10404347889619894, 0.10604874157264907, 0.10816521533545069, 0.11021545828781594, 0.11229892248721787, 0.11431660884891685, 0.11647819687071294, 0.11864523725487118, 0.12086393628268584, 0.12310939457615154, 0.1254015010085323, 0.12769965959551735, 0.13007002818481372, 0.13242148860807307, 0.13480490622218197, 0.1371770688520187, 0.1396289630201, 0.14207734450290394, 0.1445907221481849, 0.14713103235401126, 0.14973283821836447, 0.15232327269256699, 0.154964495630099, 0.15761062450514868, 0.16028677613447992, 0.1630397141735144, 0.1657685882685008, 0.16849659935938843, 0.17129138623786655, 0.17411411083983266, 0.1769127996948774, 0.1797965263844822, 0.18275758233769362, 0.18568184015181202, 0.1886326692160039, 0.1915279566834758, 0.19454058153105927, 0.19758214925189627, 0.20063453368164982, 0.2037079407828877, 0.20684950334939242, 0.2099586801647994, 0.21309326613103038, 0.21624808474149693, 0.21942506669417597, 0.22256779015240113, 0.22579429813411844, 0.2290358444951659, 0.23229683271482895, 0.23557451037029992, 0.23883429120338948, 0.24214890086709734, 0.24552460889300037, 0.24886090911292355, 0.2522134638437419, 0.25552156081646477, 0.25891235547701863, 0.2623999901463317, 0.26580174484311525, 0.2692189021170468, 0.2725453063121366, 0.2760036193323077, 0.2794513701407465, 0.2829249977768324, 0.2864040413067692, 0.2899506443513371, 0.2934322733653246, 0.2968407117437142, 0.3003485478320504, 0.30385849867114734, 0.30745622739759787, 0.31095891417362787, 0.31439047230902284, 0.31791409603465265, 0.32143733923238316, 0.32506278601468064, 0.32857088471505946, 0.33207004231774434, 0.3355862276550668, 0.3391028611416835, 0.342575827269515, 0.3460952487909729, 0.3496285632051501, 0.35313395501171274, 0.35663351055120107, 0.3601112822334037, 0.3635982998041026, 0.367032962763666, 0.3705057629959777, 0.3739651463956907, 0.3774449944755684, 0.3808717778624324, 0.38429198853430885, 0.38769106272821435, 0.3910757390889516, 0.3943892864526065, 0.3977494376058463, 0.4010935749444596, 0.4044121016526081, 0.40770957247283307, 0.41097894622416314, 0.41423327409002625, 0.41745997590537975, 0.42066752751556763, 0.4238501684377463, 0.4270029273940593, 0.4301342234032356, 0.43327902392605017, 0.4363498947019017, 0.43939431209770785, 0.4423467957137034, 0.44534318799975275, 0.4483599546418333, 0.4512824906069913, 0.4541736916146305, 0.45703038657762823, 0.45985613395974884, 0.46267531007682267, 0.46542763501611606, 0.46814516794842037, 0.4708095952370378, 0.47345632603480653, 0.4760060471982249, 0.4785810943010089, 0.481112071434745, 0.4836436618432989, 0.48607959720031124, 0.48842549365549487, 0.4907808944315051, 0.49308912038810815, 0.4953175319332968, 0.49753410858291147, 0.499796856010344, 0.5019001373262544, 0.5039578462742362, 0.5059516760881957, 0.5079170585608909, 0.5097811567681753, 0.5116526667243493, 0.5134698718323215, 0.5152066565729544, 0.5169174017440322, 0.5185991476042603, 0.5201923517310445, 0.5217297567000169, 0.5232773864138751, 0.5246932555793193, 0.5259332031011114, 0.5272563279073789, 0.5285169982009339, 0.529760369808304, 0.530890629170623, 0.5319610486633976, 0.5329711952893826, 0.5339206428257345, 0.5347767802423434, 0.5356076560818513, 0.5364499204088635, 0.5371437152637601, 0.5377777273623664, 0.5383232941483158, 0.5388390474891132, 0.5392870641511678, 0.5396761165242467, 0.5399213895111887, 0.5401914734825185, 0.5403922128066826, 0.5405755265283816, 0.540632235611715, 0.5406128226559203, 0.5405399504268413, 0.5404007873263694, 0.5402725574726177, 0.5399909316319771, 0.5396236452886713, 0.5392202641187459, 0.5387523226259454, 0.5382238382230075, 0.537625461702888, 0.5369234660559279, 0.5361998411116831, 0.5354087935851574, 0.5345462790938439, 0.5336216786109587, 0.5326666619170946, 0.5316039477343535, 0.5304769905633979, 0.5292106945727348, 0.5279648577165382, 0.5267237279815297, 0.5253328880015861, 0.5238793446620622, 0.5222966616853053, 0.5207264586136975, 0.5190601957794758, 0.5173625277542484, 0.5155986563690698, 0.513848944004443, 0.5119454347750335, 0.5100172369457326, 0.5079915185289751, 0.5059091257951844, 0.5036627569738499, 0.5014806880986461, 0.4992833945079291, 0.4969715627070618, 0.49460207445267057, 0.4921927269549086, 0.48970765182573006, 0.4871678098455719, 0.48457373479596927, 0.48192599304492856, 0.479165088128659, 0.4764194328071573, 0.4735885705825725, 0.4707375590151469, 0.46783199594073976, 0.464890392799785, 0.46187752562804446, 0.45889219992928637, 0.4557711774467879, 0.4526068657087957, 0.4494039596491626, 0.4461537992457577, 0.4428662809700431, 0.4395328270026959, 0.4361591196538846, 0.43274363687660994, 0.4292916194186209, 0.4258141322953592, 0.42228458095482063, 0.4187190211400463, 0.4150194876122043, 0.4113967206681906, 0.4077412584213499, 0.40404108962145624, 0.4003054447523683, 0.3965272464018122, 0.39272621216234604, 0.38897516837456175, 0.3851021474236586, 0.3812050102158861, 0.37719004873518974, 0.3732588442350924, 0.3693799540797096, 0.365386139563746, 0.3613728724896531, 0.35726591195940893, 0.353225900566511, 0.3492400662142076, 0.3451502499033088, 0.34104680650539043, 0.3368705183114256, 0.33275008224452146, 0.3285745983397415, 0.32443223219213807, 0.32027618050317164, 0.31617898350270207, 0.3119916825843672, 0.30780390839534577, 0.30360749122515013, 0.29940848458201913, 0.2951778021488577, 0.2909803174779938, 0.2868372982922347, 0.2826313423300285, 0.2784296782575591, 0.2742137671006503, 0.27002550160714134, 0.26575275453056774, 0.26158824804580216, 0.2574264377470826, 0.2533334939596022, 0.24917420291560793, 0.24497052603566738, 0.24084215545317622, 0.23672413565781664, 0.2326136539509703, 0.22852125932715667, 0.2244561207687257, 0.22039220840372364, 0.2163460532443621, 0.21236817158303667, 0.20835472052615558, 0.20427288395364243, 0.2003195780282809, 0.19638636607654092, 0.19257558102802771, 0.18867411242449064, 0.18475534987001227, 0.1809201425811649, 0.17711314318145416, 0.17327945628646518, 0.1695386315361709, 0.16589638200236223, 0.16220341343512443, 0.15854472061115785, 0.15495739505172934, 0.1513644691060204, 0.14779898288759938, 0.14428409280387677, 0.14080748640483143, 0.13729669085916893, 0.13390739129109666, 0.1306139200588902, 0.12728962009305175, 0.12400661988683229, 0.12069890709607128, 0.11750848178329446, 0.11434860360489654, 0.11123858340666562, 0.1081692542515521, 0.10525749977637126, 0.10225779429628559, 0.09930589808168531, 0.09640623631442478, 0.09355619146101656, 0.09072999819522934, 0.08798245330764728, 0.08527243687249147, 0.08262307224038024, 0.08002197283629385, 0.07749742588661472, 0.07499047267434711, 0.07244861233391364, 0.07005450686663128, 0.06770675500217507, 0.06541690250230321, 0.06316286164105708, 0.06097299913431315, 0.05881586252617259, 0.05670965448698451, 0.05468039122801238, 0.05267353312459096, 0.050794845106625394, 0.048884546404374174, 0.047031413440566834, 0.04515966367927489, 0.04342843053395166, 0.04179985135620056, 0.04016450837295952, 0.03858339522925096, 0.03706687924884922, 0.035591799085249336, 0.03423490585641604, 0.03285888814965679, 0.03153950935041505, 0.03029306117136702, 0.0290822326171431, 0.027935179488792834, 0.026832834216454247, 0.025784604218397577, 0.024839097515144484, 0.023890651683774695, 0.022930464118664274, 0.02209901392268974, 0.021316709898392364, 0.020591833419172343, 0.019905823863549832, 0.01928998522335847, 0.01869829354352452, 0.01815574243838395, 0.017719717613776793, 0.017266451492399453, 0.016872522430137978, 0.016518685567359276, 0.016214166905031527, 0.01598592739609605, 0.015773754435772665, 0.015682778701492654, 0.015556814732941073, 0.015453301138815182, 0.015430082502019658, 0.015452800478644375, 0.01562987867429459, 0.01572759779815087, 0.015900242869264652, 0.016091310619128607, 0.016329671840901935, 0.016585768828704887, 0.01691741933847285, 0.01733960962727605, 0.01774632878017397, 0.018194979900034318, 0.018671380597500363, 0.019201711866526774, 0.01993274698293336, 0.020516711820281412, 0.021145626359266645, 0.021757265713350685, 0.02247748965063966, 0.02322275919228015, 0.02401479523878419, 0.02483989372943048, 0.025735831956352262, 0.02661966026799976, 0.027553476342961992, 0.028499741609704636, 0.029477802921147746, 0.030529551223334266, 0.03156274884734344, 0.03267018072736401, 0.03375938124381616, 0.03488001118358866, 0.03605646051533811, 0.037232712866864595, 0.038373688011858614, 0.03961503148448832, 0.040879439454195414, 0.04217923624078069, 0.043486504223726546, 0.04493399306198543, 0.04627008385678281, 0.04763377984720228, 0.048948447086016804, 0.05037243604721658, 0.051912234733602486, 0.0533619247767358, 0.054835191390641885, 0.05627495087316281, 0.0577986925788668, 0.059418770716333905, 0.06096579848268792, 0.06253318228146978, 0.06405971319534645, 0.06567216192490609, 0.06732429317343343, 0.06896098012830536, 0.07061233029485511, 0.07231643101369331, 0.07399062565576951, 0.07565222161006421, 0.07735979053326293, 0.07907964574633083, 0.08078347721327998, 0.0825302302174562, 0.08440459159434724, 0.08615543903097032, 0.08792224166803751, 0.08960734314472088, 0.0914151491964629, 0.09329711947892859, 0.09511178428251142, 0.09693781817172731, 0.09872745590632567, 0.1005806100648567, 0.10244959160543439, 0.10431613613910562, 0.10619038407486836, 0.10814307839468139, 0.11002354089619829, 0.11188970691902522, 0.11379571667811482, 0.11571056854071403, 0.11768336013798797, 0.11960890095217172, 0.12146382439119112, 0.12342100787267216, 0.12538354266393034, 0.12743325147796253, 0.12939696506768603, 0.1313241556400796, 0.13331480649338773, 0.13531273597036897, 0.13734165502594872, 0.13935148033739814, 0.1413058769252222, 0.14334171562315368, 0.1453828502806342, 0.14746202018002932, 0.14951128227136173, 0.151586361686549, 0.15365094982699418, 0.15572556321487502, 0.15782745664585776, 0.15992023289725318, 0.1620178967267204, 0.16413416534864453, 0.1662614908803658, 0.16837427394681917, 0.17052746296358948, 0.17276592814455446, 0.17493037770497177, 0.17711007998602132, 0.1792834049433213, 0.1814958963140274, 0.18374360932648168, 0.18598111341691448, 0.18823403049761508, 0.19037798083831012, 0.19267781355934677, 0.1950294422408611, 0.197342826534165, 0.19966987416706775, 0.20205208604907843, 0.20440344452078496, 0.20678571762999004, 0.20917184040550116, 0.21157737887301029, 0.21397683137374804, 0.21642524573225547, 0.21883452719246366, 0.2213284378298276, 0.22383898678785719, 0.2264058031279577, 0.22894767442690098, 0.23152404206972804, 0.23410804216659578, 0.23671541451900105, 0.23937016923172474, 0.2420225136093535, 0.24462566360099, 0.24733958206275797, 0.2500756967650176, 0.25283918707355946, 0.25562175931418, 0.25837991201948673, 0.261219318415991, 0.2640822738067031, 0.2670084429589755, 0.2699166309002583, 0.2728684259193873, 0.2758323856384797, 0.27882675898591264, 0.28182613390874867, 0.28488561509584726, 0.28794074291469224, 0.29106507709469936, 0.2942185188503075, 0.2974705049608677, 0.3006756929508472, 0.30391594350150497, 0.307191298929363, 0.31050182449384345, 0.3138197047202191, 0.3172043711661404, 0.3206250927279368, 0.32407765883615963, 0.32756494256884927, 0.3310464660079456, 0.33460922571414375, 0.33820097633481505, 0.34183142727404464, 0.34549602827491477, 0.34918455635645845, 0.35292028547926035, 0.356671615264144, 0.36048006533054716, 0.3643231850648514, 0.36823795656021563, 0.37214722599735617, 0.37610524010805635, 0.38008919956948634, 0.38411179802744333, 0.38812572021996034, 0.39223126536877595, 0.39640897235912126, 0.40058151890819316, 0.40479225803218044, 0.40897237271228204, 0.41326775336559846, 0.41765282150503824, 0.4220092942790039, 0.426403453388283, 0.4307320492137285, 0.4352138963671304, 0.4397140300581891, 0.44426038208349894, 0.44883815399072974, 0.45346064636684197, 0.4581007860310192, 0.46282336904617954, 0.467523434438019, 0.4721777315955748, 0.4769591490148761, 0.4817706920165727, 0.48657596572354805, 0.4914525487630034, 0.49640441736617286, 0.5013312864302206, 0.5062889995423608, 0.511274936848986, 0.516293143013958, 0.5213426650414, 0.5264183562144142, 0.5315221332361365, 0.5366640529216054, 0.5418205910595687, 0.5468921002044662, 0.552115048134686, 0.5573565932287315, 0.5626146059937899, 0.5678935401268266, 0.5731670233463515, 0.5784849426564611, 0.5838189664486104, 0.5892245824537193, 0.5945827131290964, 0.5999309310267789, 0.6053275143297283, 0.6107383942220238, 0.6161326516411556, 0.6215732593159305, 0.6269786503545919, 0.6324439010125683, 0.6379148827221742, 0.6434382831971308, 0.6489130700425793, 0.6543600201454074, 0.6598509719084443, 0.6653441074727758, 0.6708191524615387, 0.6763161654954656, 0.6818412844949278, 0.6873296585328553, 0.6928158007639336, 0.6982983955056599, 0.7037761074824948, 0.7092754847178521, 0.7147358299284368, 0.7201887555524435, 0.7255875729568382, 0.7310265202439293, 0.7364657366715708, 0.7418720663422081, 0.7472620338717473, 0.7525569844279294, 0.757919811508614, 0.7632899268694145, 0.7685980731471667, 0.7738814350180995, 0.7791387916797622, 0.784368885831176, 0.7895253572669483, 0.7947027267008738, 0.7998463515879947, 0.8049123034188145, 0.8099907888904679, 0.8151071848298893, 0.8200963630770408, 0.825048772817484, 0.8299627959179398, 0.8348368226678775, 0.8396842760359784, 0.8444716190085213, 0.8492150377709075, 0.8538398715498201, 0.8584996255898827, 0.8630591525235716, 0.8676178279612823, 0.8721187382508803, 0.8765783119478049, 0.8809592130549232, 0.885289430173882, 0.8895496043884218, 0.8937487441888057, 0.8979220889852343, 0.9019907891201967, 0.9059967107168972, 0.9099382695832022, 0.9138139108977906, 0.9175899158653191, 0.9213332444783877, 0.9249485569252971, 0.9285533304628053, 0.9320803915052811, 0.935574072818661, 0.9389377435333226, 0.942200256383019, 0.9454105747744058, 0.9485395554467431, 0.9515647159004984, 0.9545306664942471, 0.9575097221934215, 0.9602910918674993, 0.9629906498918079, 0.9654994054845206, 0.9680439579283147, 0.9705023402886104, 0.9728602992271377, 0.9751248553030097, 0.977312507702798, 0.979386062659234, 0.981371571092862, 0.9832545077949152, 0.9850416700393898, 0.9867515242772855, 0.9883421744322115, 0.9897841599227867, 0.9911860916373922, 0.9924861864504863, 0.9936797432636727, 0.9947754764900254, 0.9957464343470886, 0.9966378786128841, 0.9974240552653129, 0.9981648626566795, 0.9987323072277199, 0.999197238747331, 0.9995589571032236, 0.9998168240598229, 0.9999487991899311, 1.0, 0.9999724830941422, 0.9998066827392095, 0.9995353885831386, 0.9991066953614848, 0.9986297985016153, 0.9980757021615987, 0.9973761439130175, 0.996569391909138, 0.9956103216634697, 0.9945947602608786, 0.9935273861083176, 0.9922854097292988, 0.9909377861763131, 0.9893814599937544, 0.9878355162614125, 0.986261914635564, 0.9844836348618339, 0.9826005789906905, 0.9805206667410494, 0.9784403983035449, 0.9762745543444865, 0.9739740304970086, 0.9715677972442911, 0.9690073170932283, 0.966398375700582, 0.9636533679023022, 0.9608374007907046, 0.9579161116509358, 0.954948822585577, 0.9518136267786657, 0.9485846088298178, 0.9452534002705003, 0.9418258611579624, 0.9383757388078869, 0.934748673414866, 0.930956682260714, 0.9271597868287265, 0.9232695524754481, 0.9192334236197222, 0.9151666128488308, 0.9111033870708295, 0.9068399666171533, 0.9024921216207629, 0.8980563176496078, 0.8935425170596506, 0.8888585562350563, 0.8841925594881335, 0.8794415368140748, 0.8746717067216506, 0.8697479534756786, 0.8646601916804338, 0.859596763290732, 0.8544548810240863, 0.8492515894553161, 0.8439569157838358, 0.8385733892328943, 0.8331392970968605, 0.827636097679567, 0.8221558212409139, 0.8165086536631471, 0.8108223520690899, 0.8050569462815169, 0.7992364597754268, 0.7932267790453603, 0.7873166052409432, 0.7813730589902345, 0.7753437948515549, 0.769261619963041, 0.7631543713296622, 0.756969337281299, 0.750773342143094, 0.7444951657109284, 0.7381793700872847, 0.7318229306233321, 0.7254299663698993, 0.7189312546054837, 0.712479039445385, 0.7059805083820547, 0.6994607533538847, 0.6929093143034809, 0.686300567812849, 0.6796960742474745, 0.6731766319385902, 0.666507300931049, 0.6598223734130196, 0.6530480946971302, 0.6463456206977167, 0.6396039908511519, 0.6328755379279094, 0.6261344436552199, 0.6193636528399915, 0.6126064496462271, 0.6058764949863599, 0.5991030447195943, 0.5923289249595967, 0.585571047368609, 0.5787993387638365, 0.5719819151522724, 0.5652300313845747, 0.5584845003513922, 0.5518247250376458, 0.5450884964831608, 0.538334882676867, 0.5316382766847328, 0.5249594778184409, 0.5182336672989609, 0.5116040271952694, 0.5049871353229174, 0.49839890196545017, 0.491833853849099, 0.4852919646591525, 0.47877984402785556, 0.47235702491915044, 0.4658976519907855, 0.4594746586423167, 0.45303142545351954, 0.44669250856792875, 0.44039071875684654, 0.4341278597736936, 0.42790567594267, 0.4217559025592701, 0.41561628225492175, 0.4095475412110972, 0.40350077459272293, 0.39750518224201553, 0.3914824301035437, 0.3856024599626918, 0.3798497136092946, 0.3740616182963222, 0.36833118423345074, 0.3626336006796223, 0.357024581650771, 0.3514145271166546, 0.3459323781059407, 0.3405081946769233, 0.33517145431847467, 0.3298643136876856, 0.32467267661728405, 0.31948810872835826, 0.31437257147638364, 0.3092772912279305, 0.30430783098710834, 0.29944933972830806, 0.29461153758829245, 0.2898461280556193, 0.28513648874397074, 0.28051967080377543, 0.2759179541446217, 0.27145521870906064, 0.26706356448971325, 0.26282346176622884, 0.25856702143663657, 0.2543525509336173, 0.25025780289471916, 0.24623980333648712, 0.2423054568161781, 0.23844149854245228, 0.23464734536862641, 0.23094154980784573, 0.2273142255072557, 0.2237935760588402, 0.22032053463942813, 0.21682315348192355, 0.21352501609698757, 0.21030170634267967, 0.20724199725607567, 0.20415943201116582, 0.20107276723630074, 0.19816428878726955, 0.1953322010389498, 0.19266490236783884, 0.18997558302509931, 0.1873019827017594, 0.18478499900997383, 0.18234538147415494, 0.18000885188813348, 0.1777205472622531, 0.17554295824192556, 0.17340720484534425, 0.1713509054614799, 0.1692982038192249, 0.16740809733656048, 0.16562536108324236, 0.16387684350225695, 0.16220294343328623, 0.16055803176819358, 0.15903735490678073, 0.1576663981744472, 0.15627600613791376, 0.15495971433182734, 0.15369283481369259, 0.15252450345293117, 0.15148154868343802, 0.15044445538261159, 0.1494783373954068, 0.14856039164554452, 0.14773495276196238, 0.1469410303733677, 0.14625057396450108, 0.14562190562094546, 0.14498769846390874, 0.14448859828914576, 0.14413520073166736, 0.14373546186861189, 0.14339551538473816, 0.14310335273627645, 0.14288052281605143, 0.14262293017968045, 0.1425210788533831, 0.1424671885218369, 0.14254663959217823, 0.1425763140200334, 0.14256693464544645, 0.14270875067276118, 0.14289374623341974, 0.1431727448462687, 0.1434354482270724, 0.14371187989560757, 0.14406460932824097, 0.14445677123558773, 0.14486151095609082, 0.14533245600145703, 0.14590021859018026, 0.14643145440149297, 0.14699871894795263, 0.1475510553212015, 0.14819185671629734, 0.14891699551292079, 0.14960667362965577, 0.150325707656642, 0.15109176493460905, 0.15186215409385123, 0.1526280821256853, 0.15345172561420717, 0.1542958806303867, 0.15511623395595206, 0.15600268007252296, 0.15689879294485964, 0.15781267981876654, 0.15873820953999854, 0.1597086704207155, 0.1606499603404007, 0.16153719315968268, 0.16250587532012142, 0.16347847421901482, 0.16452066281618408, 0.16549005533782216, 0.16639140785528742, 0.16737836562797775, 0.16836314726746016, 0.16937922292137314, 0.17035266185556874, 0.17131883454293442, 0.1722856173902297, 0.17324669271097612, 0.17424593462684937, 0.17518631537082066, 0.17613283173208116, 0.17705657092018692, 0.17797128825653097, 0.17883253734282292, 0.17973013548591468, 0.18062265499606517, 0.1814862799361349, 0.18233271356127903, 0.1831651865494187, 0.18397353273568012, 0.184686695168617, 0.18546337871938762, 0.1862137521517252, 0.1869503222980285, 0.1876452871488026, 0.18828551277635966, 0.18892972786933715, 0.1895443208131671, 0.19019541838976328, 0.190741101323313, 0.1912509912702256, 0.19174231232633707, 0.19225758425871506, 0.19268184437592834, 0.19307771124288947, 0.19333235437340615, 0.19368195103663793, 0.19401278326673163, 0.19428369427039185, 0.19451740430900138, 0.1947736974004841, 0.19492447041535765, 0.19501900460609925, 0.1951021328852596, 0.19514773232741212, 0.19515529167763013, 0.19512433431373477, 0.19503295546358826, 0.19492638352431854, 0.19477886154973126, 0.1946460189148691, 0.19440903565288736, 0.19405648693337377, 0.19375208373684505, 0.19340394229750993, 0.19310452144011386, 0.1926577355520577, 0.19205482374467633, 0.19154619017537233, 0.19099172734364972, 0.19046921241572995, 0.18981482110413261, 0.18914611305918883, 0.18840810896186133, 0.1876311041389806, 0.18677829551485756, 0.18592702337566594, 0.1850640131009521, 0.1841255541313858, 0.18314738495451488, 0.18208656960969663, 0.1810344250119278, 0.18004759259657982, 0.17889836700546438, 0.17771413475118444, 0.17641082018823223, 0.17516614906315173, 0.17398399781166027, 0.1726459134813561, 0.17127433302963957, 0.16991411565007583, 0.1684693193647939, 0.16697821605045188, 0.16547247800149983, 0.16393419326976033, 0.16234199149388712, 0.16074169337687716, 0.15915754741053986, 0.15748510049823483, 0.15578328811704945, 0.15411455771861612, 0.15234685567170075, 0.15047904342363738, 0.14867080171338504, 0.14683337574708355, 0.14508130941514397, 0.14317354626803616, 0.141144579300622, 0.13920886468896387, 0.1372472077430576, 0.13527994759240364, 0.13326704089367883, 0.13129889915488988, 0.129234931896183, 0.12715472783412096, 0.12515740888398535, 0.12303352249972006, 0.12088320573305206, 0.11874280180411921, 0.11659199940536419, 0.11450619053440549, 0.11232602959937121, 0.11010649480175849, 0.10792057901117455, 0.10572780050020329, 0.10356947769800405, 0.10135952795866565, 0.09915975853012723, 0.09694323569761037, 0.09472573775990467, 0.09249921603135085, 0.09028255337083121, 0.0881242537935946, 0.08590194350922419, 0.08368505058484421, 0.08154058938481025, 0.0793276619766732, 0.07720072954462902, 0.07500026598778158, 0.07281544077788822, 0.07060318219969094, 0.06845479675005567, 0.06636263766703543, 0.06423610418965232, 0.06212671258176876, 0.060030651400901726, 0.05795763214804103, 0.05596334651274064, 0.053920795136261926, 0.05190189213858955, 0.04990491165722474, 0.047934943055472204, 0.04593855651571289, 0.04402599648459435, 0.042137130104869185, 0.040301107690676, 0.03845984540759036, 0.036673330059071065, 0.034887800235296404, 0.03313473186125525, 0.031464311656938276, 0.02977242948304672, 0.028133366903521168, 0.026515685775898447, 0.024937726279995402, 0.023412875509849274, 0.021914323811003927, 0.020423587059515625, 0.01901425513859845, 0.017646340268360462, 0.01637658362983605, 0.015087268522754799, 0.01386893210541063, 0.012671860713411285, 0.011524509763639414, 0.010457315433286617, 0.009406832588479689, 0.008394067859540413, 0.0074512663244554606, 0.006561025681684396, 0.0057732493515337295, 0.004983543711685269, 0.00429166118313486, 0.0036111144387827475, 0.0029904158665961557, 0.0023802210740581915, 0.0018856036556424598, 0.0014655420117865585, 0.0010841716772796322, 0.0007624495172194873, 0.0004751385957338411, 0.00027753817910517657, 8.178957145152979e-05, 1.1873732663606501e-05, 0.0, 0.00020187323755322677, 0.00028999698194041433, 0.00042451909931416696, 0.0006553458274342657, 0.0009543500282613486, 0.0013022721344792994, 0.0017402844323162686, 0.0022242159873564356, 0.0028000219757430235, 0.0034426434258869975, 0.004201937556874467, 0.0049734083181785325, 0.005721443680954451, 0.006646875215174019, 0.007638079351742843, 0.008736661336388424, 0.00985665691921027, 0.011119932705185848, 0.012371596026406247, 0.013698191089992928, 0.015060727038331594, 0.01654104158374803, 0.018024503030533386, 0.01965722934864667, 0.02135807164307086, 0.023230656999603142, 0.025056452695740226, 0.026876181559168866, 0.028862823212886937, 0.03091952638173473, 0.033102373341071044, 0.03529293212377837, 0.03749083367341366, 0.03983723308451101, 0.04225313948822725, 0.04479673004570856, 0.04734495040884692, 0.04994282885785891, 0.052640157445527844, 0.05540861589411904, 0.05820936511322843, 0.06112432499614509, 0.06410541624282536, 0.06715724403106606, 0.07027725310816714, 0.07350831315258016, 0.0767590412155364, 0.08006716393692516, 0.08345951675826278, 0.08698685713557137, 0.0905072636664593, 0.0940989560267466, 0.09768151618625237, 0.10142284746370818, 0.1052689099766325, 0.1091327586160005, 0.11306233757836558, 0.11703768299470838, 0.12109922208870041, 0.1251805412383342, 0.1293724220428914, 0.1336235875054415, 0.13802183885021269, 0.14237980407788037, 0.14672825501462308, 0.15122128265429277, 0.155771554195678, 0.1603335780868239, 0.1650027277821192, 0.16980460710683912, 0.17457017236165737, 0.17939306568869745, 0.18419719298612675, 0.18914132119296811, 0.19418717281692457, 0.19922487288328367, 0.20431492099772042, 0.20942423438660962, 0.21462037404210405, 0.21987295266489112, 0.22516306585712012, 0.23050017811012483, 0.2358298422926822, 0.24126533698414793, 0.24671661888818136, 0.2522380254473046, 0.2577985995694033, 0.2634666598530169, 0.26909571954290745, 0.2747729106238664, 0.2804833965812533, 0.28623365178110094, 0.29201390506012836, 0.2978412363789914, 0.30369789003905584, 0.30959647061116724, 0.31552827705444586, 0.32146008072785337, 0.3274592960642765, 0.33346534215841184, 0.3395230612432914, 0.345606240100447, 0.3517098918600401, 0.3578423975589324, 0.3639206239399086, 0.37010806521121037, 0.37631250797115895, 0.3826173922655156, 0.3888443572383102, 0.3951155205361898, 0.4013794448631236, 0.4076628161479358, 0.4138440283723498, 0.4201772623566013, 0.4265855560796616, 0.4329270565588793, 0.43927996869827385, 0.4455873947170178, 0.4519668841319141, 0.45830411245165487, 0.4646988029445903, 0.4710943761302324, 0.4775612371406788, 0.4839482645796684, 0.4902828084337686, 0.4966822773878825, 0.503079435447279, 0.5094649018631507, 0.5158560841414094, 0.5222612529914746, 0.5286384705028122, 0.5350096717872306, 0.5413394174823044, 0.5476996145670797, 0.5540292144487933, 0.5603684341725538, 0.5666935338744458, 0.5730037356302993, 0.5792982115412205, 0.5855846748097043, 0.591843960639545, 0.5980852785735837, 0.6042432025069467, 0.6104535903879615, 0.6166885963876104, 0.6228426931547384, 0.6289736231670922, 0.634970837731456, 0.6410659909920959, 0.6472337052399092, 0.6532501298065382, 0.6592392927315632, 0.665090459807803, 0.6710351247403562, 0.6769769471776241, 0.6828425639281721, 0.6886721495663113, 0.6945185691591576, 0.7002669015690879, 0.7059067684132997, 0.7115920229114366, 0.7172350886738125, 0.7227923745010315, 0.7283544451304551, 0.7339213004627739, 0.739382973658886, 0.7447998708779013, 0.7501431095586817, 0.755471034699429, 0.76079259206441, 0.766015748165233, 0.7711904815432269, 0.7762469668774057, 0.7813301252628347, 0.7863855469791897, 0.7913533864264016, 0.7962660776156146, 0.8010498270254792, 0.8058589759828817, 0.8107115664869022, 0.815383730041013, 0.8199995153792805, 0.8244160508513381, 0.8289333743143201, 0.8334987475089407, 0.8378657852764761, 0.8421715007130726, 0.8463246939799924, 0.8505160230394385, 0.8547065855525765, 0.8587501158839118, 0.8627275497108666, 0.8666337128072703, 0.8704768772955918, 0.874259722419752, 0.8779632234070242, 0.8815967833248088, 0.8851274115375386, 0.8886227961547882, 0.8920183716255216, 0.8953684481428823, 0.8986421081119157, 0.9018541167463717, 0.9049722418958116, 0.9079903326634913, 0.9109581421300564, 0.9138473032314234, 0.9167004827163242, 0.9194261275411375, 0.9220296341354306, 0.9246061907215729, 0.927101881161294, 0.9294499495325295, 0.931791635375143, 0.9340737659943303, 0.9362418542048047, 0.9383265628613343, 0.9403106593158987, 0.9422305621239985, 0.9441109222536936, 0.9458559041770498, 0.9475187784500522, 0.9490647894180793, 0.9505665649731063, 0.9519981515959979, 0.9533275342157839, 0.9545724002814627, 0.9557754679559792, 0.9568452672007293, 0.9577529670449598, 0.9586669146026017, 0.9594927480073928, 0.9602736288891633, 0.9609184912761873, 0.9614375042476806, 0.9619172027407019, 0.9623092157762367, 0.9626695518289042, 0.9628797465480817, 0.9629587561629019, 0.9630067132177464, 0.9629675627281391, 0.9628093216551783, 0.9626006561726195, 0.962290829639954, 0.9619076976928502, 0.9614364780780597, 0.960912037174512, 0.9602618507370255, 0.9595334363983733, 0.9587132767720873, 0.9578091777313797, 0.9567976894743068, 0.9557291974032053, 0.9545180444340271, 0.9532878757086337, 0.9519984891943766, 0.950591447950949, 0.9491005851408493, 0.9475736861156935, 0.9459109051375909, 0.9441428736143287, 0.9423245220218772, 0.9404256041953964, 0.9384337027533611, 0.9363766753512678, 0.9341861291964735, 0.931976768793668, 0.9296857570887485, 0.9273914074112243, 0.9249304266683541, 0.9223951463505418, 0.9197858740845544, 0.9171029658427864, 0.9142523899788189, 0.911435397318196, 0.9085772856379637, 0.9056017531217013, 0.9025531707155799, 0.8995075367289179, 0.8963059926874118, 0.8929502438362197, 0.8896276680428863, 0.8862345437331444, 0.8828256395007968, 0.8792879503615373, 0.8756216099567935, 0.871964153171643, 0.8682401007774896, 0.8645064706285922, 0.8606457921029621, 0.8566737077344914, 0.8527004419297816, 0.8486658140764541, 0.8445087656353284, 0.8403628097192914, 0.8362628027526513, 0.8319821923912765, 0.8276494446588899, 0.8232351518757699, 0.8188038974387777, 0.8143466417809654, 0.8098096436783925, 0.8052243949162186, 0.8004908634459258, 0.7958244233489943, 0.7911667919799534, 0.7863919362084342, 0.7815726020023788, 0.7767099241983187, 0.7718050409881688, 0.7668140239900583, 0.7618338587712977, 0.7568123975749355, 0.7517983747001651, 0.7466928648373214, 0.741542415952461, 0.736370878919429, 0.7311666153377656, 0.7259629748915586, 0.720692664252711, 0.7153391223370243, 0.710021925221308, 0.7046760405329917, 0.6992943229791103, 0.6938964433130687, 0.6884564739290893, 0.6830123689067162, 0.6775452420360577, 0.6720201403377569, 0.6665161424300078, 0.6609980004852088, 0.6554537452040797, 0.6498926483122843, 0.6443935214048905, 0.6387935710079712, 0.6331663118363736, 0.6275536223820344, 0.6219335093952123, 0.6162447772332719, 0.6106208369645927, 0.605012771029043, 0.5993719683811066, 0.5937278877155548, 0.5880002781237708, 0.5823638500526885, 0.5768135695958033, 0.5711596681282349, 0.5655105570727179, 0.5598371929836964, 0.5542044836052594, 0.54864660028398, 0.5430187774048622, 0.537403484738824, 0.5317820870943682, 0.5261963887013941, 0.5206157368855409, 0.5150593554550169, 0.5095180761885628, 0.5039800873584533, 0.4984738389393825, 0.49301521751628846, 0.4875415007128435, 0.48208937663009244, 0.47662111319063594, 0.47121977344936766, 0.4657933837471689, 0.4604435944670785, 0.45511578469648983, 0.4497643023725975, 0.4444910387582958, 0.43932742327829455, 0.4340926364823435, 0.4288898235186802, 0.4237348439763942, 0.4185965832155451, 0.41347002580504977, 0.4084060734422979, 0.4033775163780157, 0.39837238168148065, 0.3934189368320051, 0.38856720574719245, 0.38368122568699675, 0.37883805682284777, 0.37393076101379225, 0.36918793510020437, 0.36456896476196493, 0.35989262537799827, 0.3552616788277567, 0.3505735789443754, 0.3460478710704639, 0.3416104397627053, 0.33716220894794324, 0.3327602430753996, 0.3283945681993863, 0.3240887229782715, 0.31988221069927364, 0.3156662376548034, 0.3115024106431011, 0.3072922439690762, 0.3032459244011909, 0.2992276497913785, 0.29527955704837683, 0.2913797724920672, 0.28763235085672595, 0.2838191678847722, 0.28006933292657304, 0.27636908847359626, 0.27272600794230356, 0.26905202584604276, 0.26553421035323393, 0.26216290923141944, 0.2587380133575477, 0.25537181833131933, 0.2519975863082691, 0.24875661900616144, 0.24550140866485667, 0.24237840098627936, 0.23930673405910716, 0.236306583162623, 0.2333376204239908, 0.23052634822333776, 0.22765409662315048, 0.22484301376029017, 0.22206463107098107, 0.21937775427582545, 0.2167338809525239, 0.21416473053547097, 0.21165231060658715, 0.20913642061318002, 0.20674472177975453, 0.20441673793850912, 0.20212997236332086, 0.19989735918684745, 0.1977232762874945, 0.19559862529835526, 0.19350699693615658, 0.1914939223780234, 0.18953387344721187, 0.18771697687417357, 0.18585148248127684, 0.18405888627602207, 0.18230634430408738, 0.18061077012044197, 0.178838164696826, 0.17727059732074826, 0.17581210862416238, 0.17433061350253612, 0.17289987850954947, 0.171489428146814, 0.17016270406433529, 0.1689738419272737, 0.16773091113924546, 0.16654020724702503, 0.16530622548583643, 0.16422874799090753, 0.16320585044722682, 0.16221452691789123, 0.16126507182278169, 0.16036165565048835, 0.15950130471688273, 0.15875224021201986, 0.15796792552099556, 0.15722475408326161, 0.15653073839174114, 0.15587972608880515, 0.15517198395034176, 0.15461646399724085, 0.1540890191752188, 0.15360319401718409, 0.15315114566858062, 0.15272832976566345, 0.15234354717262671, 0.15206859082158192, 0.1517387431100208, 0.15144489137348535, 0.15120948761414157, 0.15098120248210267, 0.1507396357094402, 0.15058392226655423, 0.15045700226701267, 0.1503494872768958, 0.15027881811260096, 0.15024045727963145, 0.15021994957302556, 0.15022412868177373, 0.15025214765044007, 0.15030315266674235, 0.15036126039667086, 0.15045755212758238, 0.1505733919703946, 0.150693003535872, 0.15084756208911376, 0.15099061331904673, 0.15118080526553035, 0.15138443495596562, 0.1516031396218067, 0.1518317970783822, 0.1521538990574255, 0.1523953638022351, 0.15265194622903713, 0.15284071736174137, 0.15313378504417186, 0.15350212022703907, 0.15379912319412767, 0.15410541554702945, 0.1544391344704172, 0.15475806826233954, 0.15502815806156398, 0.1553668426672668, 0.15570696623139657, 0.15601351847690761, 0.15635883736627923, 0.1567509853200834, 0.15708457167548578, 0.15741750707166377, 0.15775104209416013, 0.15807973611387988, 0.15836449046910517, 0.15869115857849844, 0.1590106788467662, 0.1592796340251834, 0.15958878371218482, 0.15989541680132147, 0.16018107120908598, 0.16045563576705157, 0.1608024311812215, 0.16104305448737347, 0.1612374121349084, 0.16146651052293076, 0.1616835870143542, 0.1618085229985936, 0.16200948574431145, 0.16222623162378833, 0.16238571856250883, 0.16252847060181674, 0.16271202038793306, 0.16281271768306393, 0.1628106562459437, 0.16289203995172843, 0.16295195210317104, 0.16309116405139326, 0.1630950373506992, 0.16303332091161188, 0.1630099667004572, 0.1629656617327463, 0.1629299823121367, 0.16283858198616222, 0.16276304253978777, 0.16262512001523274, 0.16246734913889418, 0.16224594618163685, 0.16205140626938214, 0.1618687472811611, 0.16162009044742442, 0.16134830759714627, 0.16100563387398925, 0.16069197955784575, 0.16037682128130623, 0.16000537955728364, 0.15960809393837067, 0.15913323062129683, 0.15869012143616845, 0.15822626449860927, 0.15772366793248796, 0.15719271818181413, 0.15669794224709585, 0.15610255530307504, 0.15546564741679103, 0.15482332356240386, 0.15415493385856024, 0.15340452435805282, 0.15269063492264853, 0.15196006798943829, 0.1511858333548546, 0.15038352460802917, 0.14959845112177803, 0.1487350060465172, 0.1478467160090416, 0.14693344461298952, 0.1459950997924728, 0.14507240908782065, 0.14407864938817375, 0.14310070045140222, 0.14205614696391183, 0.14099047957505698, 0.13988609216434597, 0.1387791594015021, 0.13765771855705727, 0.1365034932366279, 0.1353266738823269, 0.1342496185895691, 0.13301227505147414, 0.1317422779149344, 0.13047534089869628, 0.12919053060675578, 0.12787463002344482, 0.12655480190809187, 0.12522858369238712, 0.12386868205611096, 0.1224904894593439, 0.12116925156791195, 0.1197454379711803, 0.11840258074901115, 0.1169395977657057, 0.11546801467306446, 0.11397201757287717, 0.11248296062197755, 0.11099124839321703, 0.10947849228739959, 0.10795483910317995, 0.10642032894556035, 0.1048751122634933, 0.1033709466818342, 0.10179863717501884, 0.10021950893428253, 0.09865509072525874, 0.0970599224968598, 0.09551116994616134, 0.09389949386526458, 0.09228609697221636, 0.0907181596330945, 0.08909537113119974, 0.08752313767918037, 0.0858964214764922, 0.08427366313303017, 0.08262031441513545, 0.08100934385017981, 0.07944959351869592, 0.0778365837674727, 0.07622925140588079, 0.07463641224295178, 0.07304014792803207, 0.07151328059810523, 0.06992390347502017, 0.0683461420625092, 0.06680369734113958, 0.06524658331030374, 0.06372021205974536, 0.06218830345611435, 0.060671499176437535, 0.05918726289887701, 0.057699478261144216, 0.056237515728125194, 0.05478354012124942, 0.05334820697307089, 0.05189768405280654, 0.050505570343754136, 0.04912331285984352, 0.047770135759427915, 0.046436866743063236, 0.045203971495111725, 0.043903641617216944, 0.04264799865222046, 0.0414009314052634, 0.04018321307872149, 0.038948019183807435, 0.03779621504701545, 0.03667677985825667, 0.03558154161418819, 0.03460023265164788, 0.03355578190066781, 0.03254808783568308, 0.031532320477867436, 0.030604638805000476, 0.029797982118355052, 0.02893061199548391, 0.028104870449248306, 0.027320894467599645, 0.026578909949601624, 0.02582341961271008, 0.025173454397710186, 0.024563458080317145, 0.024002947834316595, 0.02347458948497546, 0.02302378288283663, 0.022578333516708595, 0.02217966997644965, 0.02177252778722401, 0.021476127652411536, 0.02124008783104906, 0.02103351039796265, 0.02087516738807544, 0.020793804154131335, 0.0207309126672016, 0.020819011051246367, 0.020848717248663003, 0.020937338253470886, 0.021080350394405083, 0.021286750582847465, 0.021469865182712704, 0.02180318899295258, 0.022190412667072605, 0.022662429782430174, 0.023156160796065185, 0.023757281900251014, 0.024361334487729154, 0.025027200958243737, 0.025718504463158043, 0.026512982746885752, 0.027384850895960947, 0.028298115971331306, 0.029273589929735187, 0.030240806602680834, 0.03135073408142449, 0.03251998275434912, 0.03374948592793801, 0.035040102947614504, 0.036499934662797356, 0.03790151820172889, 0.03929301082456214, 0.04084301962354937, 0.04245743930397741, 0.044226897513422896, 0.04596016399671581, 0.0477363468073825, 0.049614427650413656, 0.05156112133197709, 0.05355709435252423, 0.055643417554890794, 0.05774360113941741, 0.05997190988028774, 0.06226504867498574, 0.06464075809074568, 0.06706302882231054, 0.06953972330613876, 0.07209846057812898, 0.07472420871857306, 0.07750307776936066, 0.08025272936467386, 0.08300831874713864, 0.08591075684743799, 0.08888084366437583, 0.09197657908881263, 0.09507476042395457, 0.0981430300892092, 0.10139537718601369, 0.1047120345051372, 0.10819852057585932, 0.11163148371590816, 0.11506251454071487, 0.11864606580363375, 0.1222951696572907, 0.1261192293046075, 0.12988539610772104, 0.1336886340055472, 0.13760091049420745, 0.14158063798996331, 0.1455413296510911, 0.14966492054165995, 0.15389436239255344, 0.15813392248655517, 0.1624369314903513, 0.16681801380602898, 0.17124480471004802, 0.17571746333374724, 0.18027192290409907, 0.18488729844514123, 0.18955884959615651, 0.19429523255160636, 0.1990179058136307, 0.20388155547671535, 0.20879938000771212, 0.2138615724162424, 0.21887640905872316, 0.22392459827650732, 0.22905996526724035, 0.23425112859262925, 0.23950382111636948, 0.24480363019542645, 0.2500672924473907, 0.25548568301682173, 0.2609513928356786, 0.26649437205511195, 0.2720505317785375, 0.27770233432859187, 0.28334876588526114, 0.2890450068829616, 0.29474705600969675, 0.30054512053819127, 0.30630796911999364, 0.31220375090626323, 0.3181378097382308, 0.3241700925546979, 0.3301725545130055, 0.33619014482110793, 0.34227669260955207, 0.34840078156873394, 0.3545015428621617, 0.3607059415174971, 0.3669098572394591, 0.3731813289989892, 0.3794817741410054, 0.385855923878084, 0.39220749033778984, 0.3986085408354894, 0.4050170035730744, 0.4114546884056455, 0.4178409672039255, 0.42434347320552956, 0.43086277354784985, 0.43740739421086267, 0.44397157319458136, 0.45062970066938884, 0.45722124520288526, 0.4637375944330506, 0.4703825933656026, 0.4770405293860832, 0.48368709032558155, 0.4903716975973213, 0.49715143295211417, 0.5038430257165171, 0.5105471996025619, 0.5172087430599689, 0.523940218168397, 0.5305994007578674, 0.5373495286830269, 0.5440981407188705, 0.5508597583700167, 0.5576018293006283, 0.5643113736135745, 0.5710513809278751, 0.5777853561615369, 0.5845618881567297, 0.59127515966938, 0.5979032172289858, 0.6046135455818249, 0.6113108589367076, 0.6180180224619184, 0.624684011451486, 0.6313294114041197, 0.6379667671098916, 0.6445872863106611, 0.6512263011086995, 0.6578050445945306, 0.6642688760648405, 0.67082164355557, 0.6773476327311293, 0.6838053564641129, 0.6902807386468582, 0.6967998165739007, 0.703202266626617