0.035041344762071, 0.03455998989793603, 0.03422396181700595, 0.033816834403717966, 0.033449436557343, 0.03301726278626409, 0.032724998267222104, 0.032547442811073725, 0.032277880034692875, 0.032027154752563916, 0.03172761656244132, 0.031514753052427624, 0.03134378870719911, 0.031141758816150035, 0.030947877380583837, 0.03078668873771783, 0.03060366841004948, 0.03033824389277187, 0.03018179449191706, 0.030027440719293794, 0.029873019720708747, 0.02972522346829115, 0.029539173209299018, 0.0294055431917102, 0.029275125669541362, 0.029258970600853675, 0.02912442919715184, 0.028934887617479206, 0.02883429797260246, 0.02874284824428937, 0.028568307115012473, 0.02850920583335545, 0.0285464769812986, 0.028489790323016986, 0.028447135979375683, 0.028320369352498, 0.02831974299561471, 0.028422088749070443, 0.028430887649988777, 0.028457274489015305, 0.028524094817593573, 0.02858370150290706, 0.028493950553687104, 0.028614552314509854, 0.02874566599239869, 0.028945175560640374, 0.0290945795985172, 0.029191302380828572, 0.02938582355769639, 0.029595412435265322, 0.0298662747673915, 0.030103515916498933, 0.030341629866280615, 0.03062301190125167, 0.03092473863300332, 0.031244527314403504, 0.03158886145650884, 0.032022501671947035, 0.032402050563136185, 0.032807908399732154, 0.03326809866937907, 0.03372257386895158, 0.034221502351445374, 0.03472866700456953, 0.035263874494228256, 0.035714121546639783, 0.0363189449409965, 0.03704072740206386, 0.03767654132816701, 0.038340493982388237, 0.03892545065418774, 0.039659170792157465, 0.040465796277086005, 0.04123841474122699, 0.04203791704025189, 0.042859094374715606, 0.04371435653824189, 0.04447344534640682, 0.045400523380723194, 0.04634939091958118, 0.04740604032775304, 0.04839198260508035, 0.04935202751195671, 0.050406442551246336, 0.05148895904304025, 0.05269341871412421, 0.05382281290586549, 0.05500756824976033, 0.0562056418045172, 0.057440319985310885, 0.05863534370547157, 0.0599524263004387, 0.06133816499613567, 0.06271525354217708, 0.0641275920043752, 0.06560924722664438, 0.06708855380119486, 0.06850712179750539, 0.07007470725632012, 0.07167468646301695, 0.07336146572596432, 0.07502196008042954, 0.07673712937341827, 0.07847124828172083, 0.08024454865349286, 0.08190211332913333, 0.08377368157791747, 0.08568170022030737, 0.08761556132595014, 0.08958316188307433, 0.09172083848488499, 0.09374185125203953, 0.09566890868545434, 0.09779532481021126, 0.09995747675926489, 0.10214775360146737, 0.10438487854918621, 0.10666232267589355, 0.10897472843391691, 0.11135980101646993, 0.11374607293658205, 0.11617392397279436, 0.11859549182739262, 0.12111269060595069, 0.12371396371879653, 0.1263037947314336, 0.12893582135379703, 0.1316578456420926, 0.13436786249894575, 0.13718440982372054, 0.13997511563293893, 0.142812825048902, 0.1455246706462397, 0.14847539007593988, 0.1515144559698584, 0.15452868591673197, 0.15758198909665672, 0.1607110602259401, 0.16383800657752395, 0.16705687465339505, 0.17025944671683366, 0.1735053841461943, 0.17668685191567932, 0.1800309125877456, 0.18347792305248373, 0.18688431526209762, 0.19033027921907505, 0.19375058027492817, 0.197282658756706, 0.20087764109371037, 0.2044757187491476, 0.20811028120710937, 0.21171909660477412, 0.21543376259581304, 0.2191496713170845, 0.22293294167484734, 0.2267470180911462, 0.23061190655921684, 0.23448582749809735, 0.2383696421980846, 0.2423111290233598, 0.24628339689959208, 0.25030889238748516, 0.25433949590648947, 0.25850309508643987, 0.26258345231273245, 0.26670004116372803, 0.2707444026219338, 0.2749429950478748, 0.2792186791399685, 0.2834632782302146, 0.28773643300481755, 0.29207115435371384, 0.2963947179373234, 0.3005913030088142, 0.3049894649683119, 0.30940485210356716, 0.3138997072072462, 0.31834228736941295, 0.3227692688358913, 0.3272579486744676, 0.3317643475089902, 0.3362401624522379, 0.34078682174172836, 0.34544015534059663, 0.35000219792589293, 0.3545826504434746, 0.35924803184167586, 0.36385339342200634, 0.36840434712306225, 0.37305508326555836, 0.3777173870106108, 0.3823593552039783, 0.3870460011244855, 0.3917904703889461, 0.3964841996748458, 0.4011864562370032, 0.40575514634093346, 0.41048877537144135, 0.4153773847697477, 0.4200853555425337, 0.42479920602725724, 0.4294385055359004, 0.4341696007494077, 0.4389653927748096, 0.4436813010843764, 0.4483965321766833, 0.4531209933765065, 0.4578293783379669, 0.4624998938867456, 0.46720309089341494, 0.471897640656825, 0.47653741798931015, 0.4812172782741349, 0.48586030405447034, 0.4905137552156268, 0.4951502312204612, 0.49980013318197664, 0.5043968695414623, 0.5089820157901057, 0.5135425599383473, 0.5180841263503126, 0.5225126053235073, 0.5270246650815582, 0.5316050299568115, 0.5360495580358662, 0.5404711016286629, 0.5447358683415984, 0.5491242318081452, 0.5534613398424304, 0.5577829398542206, 0.562068704362109, 0.5663014233827627, 0.570516645607968, 0.5748770619537046, 0.5789926508448113, 0.5830794998657675, 0.5870650372054735, 0.5910970925759104, 0.5950312544085238, 0.5989921396589278, 0.6029085301655797, 0.606740232745395, 0.6105703735241895, 0.6143232889370398, 0.6180583775354088, 0.6217417079537928, 0.6254404880641902, 0.6290103657788981, 0.6324828343099814, 0.6359585891197933, 0.6393797946212869, 0.6427033994402768, 0.6460184953873371, 0.6492657993062928, 0.6524627756068835, 0.6555988505730297, 0.6588200251166896, 0.6618140416642887, 0.664700011120822, 0.6675899371488341, 0.6704187415619287, 0.6730809281989256, 0.6757970787314046, 0.6784314753978781, 0.6810078469569992, 0.6835125533233863, 0.6861003357656625, 0.688441235339364, 0.6906815447144254, 0.6928975069131349, 0.695044243797517, 0.6970135102427876, 0.6990319703734688, 0.7011100580947179, 0.7029540077470883, 0.7047269863535299, 0.7064051441549665, 0.7080352255333501, 0.7095049055155432, 0.7109931408237912, 0.7123991599446856, 0.7137116405768115, 0.7149544738338722, 0.7160775782461833, 0.7171588232665549, 0.7181548076162675, 0.7190600913294247, 0.7198868011379047, 0.7206509102711811, 0.7213045686493125, 0.7218744958201936, 0.7223351671571512, 0.7227403584728729, 0.7230627270620851, 0.7232963211898692, 0.723444494960239, 0.7235748742591591, 0.7235435974010268, 0.723509544660089, 0.7233043353387122, 0.7230207941530662, 0.7224802947048589, 0.7220594888039542, 0.7215250617982029, 0.7209257181993299, 0.7202354880195366, 0.7195679278036168, 0.7186840570544204, 0.7176079635937304, 0.7165731134442714, 0.7154493189928798, 0.714319061360583, 0.7130092351346525, 0.7116143359482516, 0.710140324664851, 0.70858389044514, 0.7069084906532945, 0.7051921817219058, 0.7034961075218531, 0.7015990476998469, 0.6995177571711628, 0.6974796847419612, 0.6953579977371904, 0.6931985779597881, 0.690906311754784, 0.6885663021456804, 0.686113031476126, 0.6835836156987983, 0.6810008499460529, 0.6783171086742839, 0.6754382508658884, 0.6726222554630474, 0.6697261559731202, 0.6667710819291446, 0.6637164299206313, 0.6606432042473511, 0.657432648207503, 0.6541525163125169, 0.6506512450659059, 0.6472531501002511, 0.6439114447819067, 0.6403464411298798, 0.6367166721497239, 0.6330397693113627, 0.6292805398142223, 0.6253526906235456, 0.6214846791941452, 0.6175506225607661, 0.6135240184568043, 0.6094664223631748, 0.6053827156452845, 0.6011967389770239, 0.5969535063813912, 0.5926092546019984, 0.5882611918466908, 0.5839615774095397, 0.5794903199435217, 0.5749723466206722, 0.5703210106393524, 0.5657228925672895, 0.5610839768277676, 0.5563878935217815, 0.551646216477956, 0.5468181457192351, 0.5419950384535854, 0.5371283438078218, 0.532219832748351, 0.5272712238527125, 0.5224194747683205, 0.5173785428715344, 0.5121888153875878, 0.507108480898138, 0.5019948095272361, 0.49685509871937744, 0.49167899151208244, 0.48654803537522817, 0.48130793908307856, 0.476046877283601, 0.4707065778000446, 0.46541387484694463, 0.46006034978026283, 0.4547314655558657, 0.4493821043826721, 0.4440535725845954, 0.4386637620573353, 0.4332413561208826, 0.4278296989588081, 0.42240685238296316, 0.4169771866584424, 0.41153624093732166, 0.40609731792360665, 0.4006439130133889, 0.3951874874657568, 0.3897829740545983, 0.3843178809879332, 0.37885409279425647, 0.3733985454128942, 0.36794889815438053, 0.36245547787909504, 0.35702725713865563, 0.3515433619407373, 0.3461372024567666, 0.340736983809232, 0.3354912664052409, 0.3300903160780426, 0.32461345360882393, 0.31926502983112776, 0.3139323821919425, 0.3087043795831147, 0.303396694145795, 0.2980661636232855, 0.2928153681324427, 0.2875883990691385, 0.28229625260547164, 0.2771318928397944, 0.272082846750729, 0.26695322763430707, 0.261854813801795, 0.25684774325314075, 0.2518071167573001, 0.2467418848371819, 0.24178438925623935, 0.2368618544867921, 0.23194719543511622, 0.22710142558149, 0.2222415454464821, 0.21747670195039123, 0.21274812158820292, 0.20817294156441118, 0.20350692572936485, 0.19886557678361327, 0.1942972286071683, 0.1897756447768308, 0.18531555941464622, 0.18088765369658708, 0.17640495990383204, 0.17208976340937404, 0.16781929084309238, 0.16355547559607178, 0.15938351375180243, 0.15538477074769674, 0.1512909787087439, 0.14725342883917072, 0.14326666185136194, 0.13934286631199924, 0.1354671431392707, 0.1316577554634181, 0.12790499433286093, 0.12422613188982758, 0.12058556272133913, 0.11688243631814507, 0.11337465895997209, 0.10991911406675278, 0.10662125997972535, 0.10326040071352556, 0.10004535002722495, 0.0967963094795175, 0.09361327477132336, 0.09045048315023094, 0.0874032454860519, 0.08437827138419352, 0.08145938999062706, 0.07859987572743826, 0.07586199567237191, 0.07311412565864096, 0.07043823952868031, 0.06781601933683908, 0.06525715514524577, 0.06280920769389496, 0.06036996702046862, 0.057916874628679144, 0.05561707052115736, 0.05337662155998032, 0.05115332713801691, 0.04903712659366738, 0.04698930520021609, 0.0449862015169001, 0.043041382848180286, 0.04131275545043666, 0.039464716875988695, 0.037669787946975106, 0.03595658407309882, 0.034307200893690756, 0.032768524176574734, 0.031237714205623945, 0.029753629727295363, 0.028351009084397572, 0.027008728587687453, 0.025714607977991428, 0.024491769550873267, 0.023373992109125365, 0.02225871917966547, 0.021201962583809263, 0.02017734058114977, 0.01923783781319349, 0.018352555851527164, 0.017520841850468188, 0.01674205562996693, 0.016097300711161416, 0.015412147950183053, 0.014886913489112705, 0.014298569558693193, 0.01376923839121299, 0.013223675448879053, 0.012815905280376369, 0.012530898067656298, 0.01221189775109265, 0.011944672454549011, 0.011724962029371646, 0.011557421531278892, 0.011550208737706161, 0.011462450665700886, 0.011426390159100956, 0.011268179046239833, 0.01135164380143486, 0.011669147962366181, 0.011801059634529262, 0.011980523516361521, 0.012081724927301179, 0.012366707844892959, 0.012695747498272304, 0.013050445595429781, 0.013440359539402926, 0.014053792734591822, 0.014488653268771596, 0.01489723029819082, 0.01542726440379372, 0.015948420722592192, 0.0165553980676732, 0.017193745516012444, 0.01798113805158824, 0.01866516998098622, 0.019283679659267507, 0.020050794836198104, 0.020845021793042387, 0.02170805491275749, 0.02254940996743439, 0.023581961477883023, 0.024457169101499, 0.02536745099411648, 0.026251446775654007, 0.027233035352617344, 0.02829397094594564, 0.029319212084810243, 0.030370998372692876, 0.03131823877967406, 0.03243529880761283, 0.03357328273494508, 0.034720126112340266, 0.03588237344350964, 0.037203558673614905, 0.038377790236151205, 0.039602970078478565, 0.04081772244497362, 0.042054055513017455, 0.04328234739651136, 0.04456122120071907, 0.04578851145384689, 0.047107193738286104, 0.04843648119927729, 0.04983818764632868, 0.05118025710482574, 0.052439971424017455, 0.053820375078306705, 0.05520747426577824, 0.05669160446651916, 0.05808107624292937, 0.059572783170423235, 0.060974225533846356, 0.06239139732857518, 0.06382578232895415, 0.06527019022572264, 0.06675788533625084, 0.06822196262013554, 0.06969821268954697, 0.07117997539208427, 0.07267833414296833, 0.07413509727109284, 0.0756574935455187, 0.07718496439665967, 0.07864696785322138, 0.08019327221585754, 0.08185042692568832, 0.0833852328412701, 0.08492815755415237, 0.08636883092503947, 0.08794060356537875, 0.08965408628854461, 0.0912102310396998, 0.09277624132156226, 0.09436276141014802, 0.09594528377745865, 0.09745213926776022, 0.09906266552819672, 0.10067649763918286, 0.10229401548940772, 0.1039155840510493, 0.105507734126117, 0.10714272552640777, 0.10878089435596999, 0.11049611613778972, 0.11213312353575391, 0.1138354648700789, 0.1154831791322693, 0.11714287696668078, 0.11874082135447352, 0.12043247589669615, 0.12223519410107989, 0.12392762530457212, 0.12563348982521344, 0.12733262305700882, 0.1290666488571504, 0.13069926704138624, 0.13247022138886524, 0.13424626728943492, 0.13607635256451317, 0.13785956316981435, 0.13963938109846732, 0.14144624963778785, 0.143263982642719, 0.1452143669707342, 0.1470402761085119, 0.14887432673319959, 0.15074008221081664, 0.15262391509195897, 0.15443271517086551, 0.15636423935527285, 0.15841001773767355, 0.16035516272042716, 0.16232049756169814, 0.16422427871501938, 0.16624037505047973, 0.16839345503614347, 0.1704266583128236, 0.17248412355541312, 0.17441065780517864, 0.1765358067465337, 0.17873263029964162, 0.18088259158074857, 0.1830535920800244, 0.18530834822976197, 0.18751570453698832, 0.1897834889598877, 0.19203995226183102, 0.19432530873943935, 0.19649580824267338, 0.19885716756355307, 0.20123953066435454, 0.20364423423859626, 0.20607252073860596, 0.2085114538239971, 0.21099207594205216, 0.21362837388771128, 0.2161457092042181, 0.21869837395117026, 0.22131723622872587, 0.22393630297654257, 0.22652458682737284, 0.22922572189055168, 0.23195959129392107, 0.23470695308542844, 0.23751024044986416, 0.240295863661075, 0.24317232382823706, 0.2460802212295062, 0.24916990681601175, 0.2521246360244917, 0.25510497158306944, 0.25814643300020346, 0.26122867133908917, 0.2642444493568387, 0.26742142561285775, 0.27072309845591513, 0.2739585456612075, 0.2772352101946628, 0.28040089092311987, 0.28377924266190946, 0.28732561153965425, 0.2907536042961456, 0.2942243471305988, 0.29762503168750093, 0.3011953343537849, 0.3049456381623689, 0.30857116710462, 0.3122426774611433, 0.3158751396336369, 0.31964792883292087, 0.32346631850319946, 0.3273186681982054, 0.3312119402108853, 0.3351998889587026, 0.3391688082951109, 0.34316242374791717, 0.34722235014106223, 0.35132493810374354, 0.355348849796247, 0.35955164063100525, 0.36387156392096703, 0.36813561490692354, 0.37244111529932244, 0.3767174899422433, 0.3811144237595255, 0.38562451385994373, 0.3900863032977952, 0.39459004381547197, 0.3991127467396783, 0.40370190857544747, 0.4082345799468602, 0.41291424276707694, 0.41762725403242473, 0.42234866313705144, 0.42713269724088243, 0.4321130005469355, 0.4369422343554522, 0.44181385695067116, 0.4467096778542464, 0.45166443740075746, 0.45658369299819007, 0.4616222862976616, 0.46669260177614263, 0.4717322844390925, 0.47687277915016085, 0.48206566705211584, 0.4872569981752025, 0.492476649945164, 0.4976734677061445, 0.5029548406816176, 0.5082094932354472, 0.5135451041535257, 0.519059210140069, 0.5244162017075492, 0.5298026006829344, 0.535064694571747, 0.5405246458170756, 0.5460292259252404, 0.5515183282811108, 0.557024987219177, 0.5626049395207808, 0.5681376166820826, 0.5736099924735373, 0.5791885952567027, 0.5847788214663119, 0.5904899454198607, 0.59608750862963, 0.601717614895589, 0.6073425652246592, 0.612980670122205, 0.6185737846783814, 0.6242400565015366, 0.6299618941338312, 0.6356302561042947, 0.6413039589468822, 0.6468686674061879, 0.6525625510849398, 0.6581915777193846, 0.6638810142966781, 0.6695601906162777, 0.6751780931911131, 0.6808421870217546, 0.6865483149391417, 0.6921763796847564, 0.6977926601177146, 0.7033539126782187, 0.7089490050434434, 0.7145606761716554, 0.7201162087341351, 0.7256547129506493, 0.7311608619400325, 0.7366633521219446, 0.7421526738393408, 0.7476096344437904, 0.7530429836722075, 0.758538744905836, 0.7639097618444571, 0.769139601424742, 0.7744778846883253, 0.7797826101321261, 0.7851457929486209, 0.7903686118843012, 0.7954754123050713, 0.8006441150366448, 0.8057729137741159, 0.8109086392575262, 0.8159482907551814, 0.8208459207587152, 0.8258157320729277, 0.8307362116008974, 0.8357306865460001, 0.8405346953925885, 0.8452771529622034, 0.849992139231271, 0.8546578509146651, 0.8592726874895059, 0.8638350960578336, 0.8682251941450287, 0.872693231654832, 0.8770977978008945, 0.8814074527452083, 0.8856876026258753, 0.8899968198049869, 0.8941309284939672, 0.8982027582226985, 0.9021743328587045, 0.906122258627329, 0.9099230150699017, 0.9137434614063163, 0.9174893160803622, 0.9212476229043605, 0.9248321847974068, 0.9282641136292087, 0.931715976365939, 0.9350899169456581, 0.9385150772396338, 0.9417152174205885, 0.9447134175580283, 0.9477837055119491, 0.9507712089256272, 0.9536670569910841, 0.956488776520359, 0.9593498966622093, 0.9619862761221577, 0.9645441002772219, 0.9669993395658399, 0.9693985670480596, 0.9716884824866515, 0.9739220314543029, 0.976068291026951, 0.9781294213340626, 0.9800988064949461, 0.9819453708046614, 0.983740457798941, 0.9854435338207979, 0.9871304673062414, 0.9886392142747412, 0.9899242585152834, 0.9912724498701437, 0.9925230661432934, 0.9936314401998586, 0.9946938318706663, 0.9956656858464579, 0.9965296584541874, 0.9972963036270198, 0.9981154160675638, 0.9986697213245117, 0.9991023705879525, 0.9994843732098118, 0.9997749464024288, 0.9998806805239877, 0.9999990238719438, 1.0, 0.9999261152038181, 0.9997545618750969, 0.9995085448854818, 0.999140737284532, 0.9987629436612551, 0.9981957489138714, 0.9975395279618786, 0.9966812564852859, 0.9958604709200309, 0.9950283010042229, 0.9940058343220405, 0.9928939103640763, 0.9917208566785305, 0.9904269467214822, 0.9890373204366283, 0.9875700536410791, 0.9860153261969068, 0.9843199119070337, 0.9825980703773672, 0.9807981974669812, 0.9788972561046586, 0.9769095143778649, 0.974869641822576, 0.972706583976559, 0.9703794827912096, 0.968062768389325, 0.9656604623559681, 0.9632387719817131, 0.9606612006644548, 0.9579324450257536, 0.955209100659253, 0.9524053258368413, 0.9495817540652535, 0.9466139405997179, 0.9434661621900474, 0.9403670474244411, 0.9371908687481898, 0.933998637160507, 0.9306662477492748, 0.9272710207046488, 0.9238021307878798, 0.9202674174650306, 0.9165947425652464, 0.9129410905071336, 0.9092378941191253, 0.9054509813027793, 0.9016020828234314, 0.8977660277948059, 0.8937885178762621, 0.8897633530481903, 0.8856794476773459, 0.8815444288476421, 0.877260622970225, 0.8730388222638424, 0.8687719100226359, 0.8644438300051218, 0.8600664510074794, 0.8555879768927337, 0.8511239992292866, 0.846731256324118, 0.8421601272080372, 0.8375526155816945, 0.8328815370086994, 0.8282078816371374, 0.8234543355775844, 0.8187181762977661, 0.813947478000789, 0.8091383826415015, 0.804304623937203, 0.7994666207604286, 0.7945721726878319, 0.7896529865650402, 0.7845724391218182, 0.7796256803712482, 0.7747889810500909, 0.7697712665351347, 0.7647383091975402, 0.7595475914137249, 0.7545060159382595, 0.749470237509199, 0.7443887623523071, 0.7392939065085745, 0.73422431084356, 0.7291039862636891, 0.7240373007214508, 0.7188998899694474, 0.7137688555308331, 0.7086331880889293, 0.703500571982269, 0.6982592794153949, 0.6931500872777353, 0.6880069361819668, 0.6829037603296204, 0.6778024915645109, 0.6727503434968978, 0.6676534351629213, 0.6624965451772058, 0.6574309635336207, 0.6523747872334246, 0.6473440606195636, 0.642310666252951, 0.6372873862319618, 0.6322877613137371, 0.6273066146257887, 0.622305962336368, 0.6173711229403581, 0.6125328897446239, 0.6076310679202618, 0.6027571830087857, 0.5978359810198701, 0.5930301255434468, 0.5882955687327367, 0.5835378774544605, 0.5788117602102522, 0.5740899795385994, 0.5694333934316326, 0.564871582871053, 0.5602738082124888, 0.5557144584720931, 0.5510925901783028, 0.546624499240685, 0.5422189380747027, 0.5378173566881204, 0.5334543745350526, 0.5292098855013001, 0.5249170055767771, 0.520638933496806, 0.5164417935007419, 0.5122891572304324, 0.5082407256035251, 0.5041711487688249, 0.5000269082622809, 0.4960717216041692, 0.4921590012136586, 0.4882813920326761, 0.4844578840267754, 0.48084287419254934, 0.47708967151204446, 0.4733924236289525, 0.46974212130035525, 0.4661562829615418, 0.46252870276419755, 0.45906290916666337, 0.4556453922030519, 0.45231623567568713, 0.44899210161113334, 0.44572580002778145, 0.44250548564548936, 0.43933795400622566, 0.4361950916963099, 0.4331368927171446, 0.4300117031139278, 0.4270715017471958, 0.42417652345293294, 0.42145190842166297, 0.41863492468187075, 0.41576594655480825, 0.4130724101048147, 0.41042735571327216, 0.40796380217245665, 0.40540050950293216, 0.4028860126304687, 0.4004374741239783, 0.39804412445021264, 0.39561792969455756, 0.39334404392268574, 0.391231268468393, 0.3890399804266384, 0.3869035327658235, 0.38466033534742833, 0.3826511129937687, 0.38080341461296163, 0.37886600682412247, 0.37697922864990857, 0.37515645784304397, 0.3733670244858253, 0.3714775204609161, 0.36980478359389896, 0.36817138026624485, 0.36663410768207744, 0.3650733918681227, 0.3635786046489867, 0.3621013973541618, 0.3606679826851, 0.35926359182100187, 0.35791749601974415, 0.35652776503892886, 0.35527358036951506, 0.35405430766797014, 0.3528502245580673, 0.35170318037804293, 0.35075029248234246, 0.3496498125131528, 0.34859148508059556, 0.34744686379607936, 0.3464841057589842, 0.3455404860137014, 0.34463959325196886, 0.3437676425371455, 0.34293266450699317, 0.3421161873948212, 0.34129947290358104, 0.3405417779132681, 0.33980905665322575, 0.33915715218781967, 0.3384656140456128, 0.33778355155863093, 0.3371457839532742, 0.3365311872101506, 0.33586832340376116, 0.3353060421752462, 0.33480231160383317, 0.33426681328065727, 0.33374905057992016, 0.3333044979288809, 0.332812382388612, 0.33233562522563787, 0.3318788378154678, 0.3314373545136961, 0.33102964000321294, 0.3306125168289934, 0.33011230065063424, 0.32973144838868934, 0.3293553770079488, 0.3289526384585007, 0.3285886602217328, 0.3283389722284752, 0.3279635081873768, 0.3275951829360159, 0.3272579931914338, 0.3268966910759888, 0.3263821877124989, 0.32604869846458456, 0.32570824385855796, 0.3254820187720963, 0.32511222021637276, 0.32467152530578325, 0.32430853499254336, 0.32393874858737504, 0.32349678143610067, 0.3231198930264938, 0.3227815514956722, 0.3223737771252211, 0.3219563833261711, 0.3214638888330231, 0.3210334703681121, 0.32075690098770515, 0.32027442851058535, 0.3197858066977325, 0.31930348671628445, 0.31879598060821657, 0.3182559939904998, 0.3177300493213415, 0.31719016725215915, 0.31663531265166966, 0.31606451925148205, 0.31541769725329133, 0.3148198608288346, 0.3142002283999564, 0.31360926898965213, 0.3129388296784042, 0.312102060792086, 0.31140991073682106, 0.3106884102746748, 0.3099127583252764, 0.309137351570877, 0.30832128150077376, 0.3074890020419195, 0.30662756210705483, 0.3058669929771876, 0.30493190059254777, 0.304015277177591, 0.30303232610883407, 0.30202888951200024, 0.30090807159445104, 0.29987267641861287, 0.29882542331156936, 0.297730341341677, 0.29660740344638886, 0.29543952823328756, 0.29426251430958333, 0.2929744793107433, 0.2917492248513791, 0.29049008835672574, 0.28925126878934665, 0.2879194623120386, 0.28658949480811097, 0.2851954452652966, 0.2837514335174858, 0.2823051634893756, 0.28082976516208424, 0.2794267121207465, 0.27788026939459853, 0.276239997198632, 0.27465495897337233, 0.2730411790025517, 0.2713789498086991, 0.2697102736035618, 0.2680513544067751, 0.26631854845401404, 0.2645587845813373, 0.2626367344571638, 0.2608400765208463, 0.25902578545755867, 0.25715907620695544, 0.2552610237089384, 0.2534536757226898, 0.25148011882446325, 0.24940549810079055, 0.2473973484018825, 0.24536215258368074, 0.2432496943674811, 0.24116835825660476, 0.23910374511777793, 0.23696086539185246, 0.23479389516432048, 0.23270755602364376, 0.23048054224340353, 0.22826480786204584, 0.22600003923756395, 0.2237192967880411, 0.2213658185143406, 0.21905919769954907, 0.21677207275873184, 0.21442093225434938, 0.2120528672676033, 0.20956655882904565, 0.20717797684682385, 0.20478150222724462, 0.2023483159727369, 0.19989617939898385, 0.19743166666163128, 0.19494370110431208, 0.19243701523701418, 0.18991841964186815, 0.1873853842067304, 0.1848556321183171, 0.1822940021831644, 0.17974664361797751, 0.17716025557937695, 0.17456547993643512, 0.17214032637576784, 0.1695077014114802, 0.16673716963861615, 0.16412750139421745, 0.16151135773190664, 0.15895982309766665, 0.15632371301546935, 0.15363910457169172, 0.15100799992957517, 0.14837394081489017, 0.14593488153656972, 0.1432719801242973, 0.140610791551493, 0.13796842784719404, 0.13533423250430845, 0.1326119775412495, 0.13000519208485103, 0.12746809997556607, 0.12485766349130713, 0.12225469120922516, 0.11967638102985959, 0.11708713850171493, 0.11461449531086525, 0.1120310656666693, 0.10946392832062433, 0.1069211637969406, 0.10438457656079857, 0.10185281719625787, 0.0993498411768464, 0.09686241788128439, 0.09430347180327997, 0.09185916893829135, 0.08955346175617727, 0.0871178612946431, 0.08470352137214357, 0.08227109886484402, 0.07990470531761217, 0.07753541749758097, 0.07521185317346846, 0.07290804041611795, 0.0708108846505776, 0.06852571011666957, 0.06613243602193594, 0.06393008006306337, 0.061751520079889356, 0.059724396213134114, 0.057579817233242556, 0.05546574448419241, 0.05338793817150819, 0.05134294751521969, 0.04934768966119605, 0.04736629825035192, 0.04537384457633995, 0.04346631828399551, 0.04159056283110605, 0.03990500765412061, 0.03807463853908909, 0.03612888223088571, 0.03440270685904669, 0.032708970192932035, 0.03106831293560493, 0.02943965934470078, 0.027996560351910994, 0.026422025932701876, 0.024893342382824955, 0.023314107488512457, 0.021887650110202356, 0.020559514399649523, 0.019204395660219614, 0.017892836291115922, 0.016624905223407257, 0.015400723063265967, 0.014251457536727605, 0.013111385628254214, 0.012017404163420663, 0.0110878989571341, 0.010071218390067907, 0.008927076468736639, 0.008038236142748787, 0.0071907332515658996, 0.006357311697218617, 0.005598769078715939, 0.005017866507562703, 0.00432790506866371, 0.003689762687731914, 0.0030975354481252654, 0.002563007994097213, 0.0020511852125012333, 0.0016219494978308218, 0.0012419583541081046, 0.0009142754742310043, 0.000633151226832622, 0.0005571731381592236, 0.0003569268523902065, 0.00021593653478845897, 7.961279585310755e-05, 6.093732575886846e-05, 0.0, 0.00010036220593222484, 0.00024854516251456065, 0.00047902599112006265, 0.0007204831546195762, 0.001067004805752682, 0.0014049381861556082, 0.0017978135958777752, 0.00222847873877257, 0.002732689336622375, 0.0034058327234636346, 0.004002179731268924, 0.0046583827251690585, 0.005311512815807428, 0.006092615887848237, 0.006969942912279391, 0.007853486564585673, 0.00879315292775811, 0.009794167102725444, 0.010844185985560414, 0.011873468755632704, 0.013043519378937076, 0.014264074740864665, 0.01550732339049834, 0.01683352337460723, 0.01828854234365053, 0.019705035262255803, 0.021176722930184265, 0.02268639521189866, 0.024269732430169243, 0.025852924304801794, 0.027549729795877772, 0.029296704054257158, 0.031181523978237397, 0.03301864406985741, 0.03485802482990219, 0.03681297251638201, 0.0388196349345163, 0.040914591100914166, 0.043019845326777904, 0.045130707330854926, 0.047348641477273606, 0.04961658361171922, 0.05198244309805797, 0.05434429542055399, 0.05678127626992474, 0.05924495217906143, 0.061761519214836406, 0.06427115854000877, 0.06689913372392672, 0.06968481031890912, 0.07239439619289256, 0.07518315407526799, 0.07799614205327025, 0.0808624357621174, 0.08364006127795375, 0.08662771833603308, 0.08962687385992972, 0.09270377530811261, 0.09582200411123218, 0.09914827012839561, 0.10232929860232869, 0.1055366073955032, 0.10882295820511462, 0.11215727052719908, 0.11557820682792437, 0.11900111650998928, 0.12248323447584568, 0.12599961016602537, 0.12956267255354253, 0.1330615754885595, 0.13672919805339456, 0.14036429832171463, 0.14411684975545852, 0.14790360866145313, 0.15177589634487784, 0.15562630069694047, 0.15967300175557925, 0.1635802232542811, 0.1675344149996964, 0.17136778635144126, 0.17543255805567995, 0.1795984579347136, 0.18372181474030153, 0.18788270929222453, 0.19199888252636027, 0.19624361706571966, 0.20051691943245498, 0.20482492219868634, 0.20916435077930742, 0.21365358719974906, 0.218040854100108, 0.22238427725315138, 0.22685652800621006, 0.2313598845808718, 0.2358291742746466, 0.2404018652637853, 0.24500089782192153, 0.24962636844745967, 0.2542782878947044, 0.25896222620652515, 0.26366605999948206, 0.2684638977704108, 0.2732116001202434, 0.27798881151655247, 0.28276923533974707, 0.2876059116005723, 0.29244824433518046, 0.29733754628613634, 0.30224984555069156, 0.30722411686971923, 0.3121759514099818, 0.3170753911875326, 0.32208339824237403, 0.3271091517306861, 0.33224828195879136, 0.3372967670462412, 0.34232534954438704, 0.3474228109921095, 0.3525380950717433, 0.3575972502504029, 0.36275543114299974, 0.36804650644272613, 0.3732126915691121, 0.37839715784118183, 0.38351416761847446, 0.38874239633587027, 0.39391878435837724, 0.3991748483128477, 0.4044368895373411, 0.4097557295727997, 0.4150234858888364, 0.4202803334831836, 0.42556765098952376, 0.4308615148793352, 0.4362713935421512, 0.44156306607120827, 0.44673635466022493, 0.4520655215149482, 0.4573959083578542, 0.4627160184906021, 0.4680495418130631, 0.47346736237961334, 0.47878938789851516, 0.48411525721256066, 0.4894297989781673, 0.49476194032783954, 0.499998186843451, 0.5053414518571258, 0.5106775733332699, 0.516082592324527, 0.521394552037571, 0.5266947732331537, 0.5320003427187868, 0.5373003842422651, 0.5426645639300943, 0.5479422613617279, 0.5531624659217887, 0.5584377030248355, 0.5637033751191647, 0.5688713375165938, 0.5741266148180162, 0.5793735812077022, 0.5845942058830659, 0.5897983545233128, 0.5949350196633317, 0.6001117450633177, 0.6053047894988742, 0.6104362135877558, 0.6155492253157551, 0.6206884209139047, 0.6257573715744367, 0.6308201077358956, 0.6358516935997908, 0.6408645173350592, 0.645868836607117, 0.6508396909939196, 0.6556654399798666, 0.6606087583197566, 0.6655220013719712, 0.6704982112000838, 0.6753395495328627, 0.6801699496747298, 0.6849584748062647, 0.689720843958158, 0.6943742865611607, 0.6990916062166866, 0.703701899994361, 0.7083607114345376, 0.7129810487600352, 0.7175377519970711, 0.7220848498681427, 0.7266825210561244, 0.7311390783281606, 0.7355611648598456, 0.7398746681344414, 0.7442345833081291, 0.7486830779534942, 0.7529442357310329, 0.7571710803922801, 0.7612100238546992, 0.7653833869395262, 0.7695719537063284, 0.7736439219990735, 0.7776725760974578, 0.7815389218953813, 0.7854940458712494, 0.7894029633968039, 0.793253997137396, 0.7970540004111567, 0.8008030066935617, 0.804500958558573, 0.8082266346492509, 0.8118120164617364, 0.8153501577853839, 0.8188006435474993, 0.8222464547966726, 0.8256682219119094, 0.8290054681480012, 0.8322909693990047, 0.8355605786580729, 0.8387356216560912, 0.8418051384679899, 0.844881991370068, 0.8479019043714199, 0.8508982351667206, 0.8537985999193345, 0.8565861606396574, 0.8593800469226561, 0.862112900990356, 0.8648634285535246, 0.8674635853668011, 0.8699951677733093, 0.8724812455187032, 0.8749076495512388, 0.8773413372040436, 0.8796378315946897, 0.8817356055209918, 0.8839332201003813, 0.8860630307237269, 0.888246462350273, 0.8902259851640778, 0.8921365941610102, 0.8939953868061007, 0.8957915673726458, 0.8975357593176746, 0.8992034032543621, 0.9007142948211699, 0.902265646198676, 0.9037469656570428, 0.9050429965168303, 0.9063997184530265, 0.9077173390981466, 0.908919061910206, 0.9100491869386084, 0.9111589942149594, 0.9121410754856198, 0.9129712719811369, 0.9138293132358899, 0.9147109675191717, 0.9154130753126912, 0.91604948623619, 0.9165409707627717, 0.9170550591474648, 0.9175968255940661, 0.9179569249221581, 0.9182523814044743, 0.9184038154899968, 0.918578638239056, 0.9186155442861074, 0.9186587217718187, 0.9186285037578087, 0.9186807509432543, 0.9184865977670855, 0.9180637578864591, 0.917765209520519, 0.9173937832291896, 0.9170884861081181, 0.9165564725383907, 0.9158659831477006, 0.9152203682011189, 0.9145059714416186, 0.9136810296566557, 0.9128359320837044, 0.9119014274150281, 0.9109202657388221, 0.9098698603908636, 0.9088835348851335, 0.9076804057306561, 0.90629104073763, 0.9049847753003616, 0.9036113609484497, 0.902335110316056, 0.9008092153073277, 0.8990360962430266, 0.8974227089794595, 0.8957419636727417, 0.8940599018340184, 0.8922398201349434, 0.8902636235624881, 0.8883355752812271, 0.8863428603284508, 0.8843234079528689, 0.8822005139919888, 0.880007369194456, 0.8777687247954419, 0.8754720087370558, 0.8731011461022745, 0.8706929094138517, 0.8683126488576244, 0.865781483901996, 0.8632002924358813, 0.8604847074572602, 0.8578147774101573, 0.8551133729746071, 0.8523335967510351, 0.8495031293292835, 0.8466340530060024, 0.8437032029475826, 0.8407049911091493, 0.8376820909850118, 0.834611907341229, 0.8314192508541155, 0.8282668416407255, 0.8251078648610605, 0.8218539298339804, 0.8185564617527971, 0.8152643964038142, 0.8118768527185412, 0.8085219408222325, 0.80505042120782, 0.8015462475291089, 0.7978770516932353, 0.7943247171818563, 0.7908653565563006, 0.7872187338461666, 0.7835428905947018, 0.7798183767281226, 0.7760875128552612, 0.7722344083080577, 0.7684575197140735, 0.7646475849434637, 0.7608399399804043, 0.7569641250955925, 0.7529910833643068, 0.7490717360276582, 0.7451238410166938, 0.7412138633518519, 0.7372055224720719, 0.7330698698724563, 0.7290355577940499, 0.7249768499675703, 0.7209575359382029, 0.7168474476082333, 0.7126651333916063, 0.708531469080734, 0.7043807939853212, 0.7003329234693672, 0.6961375172193501, 0.69194151361673, 0.6877332390244744, 0.6835197432916892, 0.6791633258364516, 0.6749581214535024, 0.6707497933611168, 0.6665220463522025, 0.6622864716985111, 0.6579853226900058, 0.6537458297208668, 0.6496543254411443, 0.6453829130222813, 0.6411165275012837, 0.6367483451188757, 0.632506450673084, 0.6282843209268034, 0.6240413172193116, 0.6198020245743624, 0.6156604928521564, 0.6114199572019519, 0.607135021620724, 0.6029257630786425, 0.5987258042659709, 0.5945274874334706, 0.5903495892442747, 0.5861378112107657, 0.5819889059965091, 0.57785039526686, 0.5737262973357636, 0.5696117621126737, 0.5655816744366777, 0.5614872236747283, 0.557412712763672, 0.5533528788245597, 0.5493201170171329, 0.5451898258021123, 0.5412142308513992, 0.5372538735055388, 0.5332905152115748, 0.5293674911958746, 0.5254542988636655, 0.5215702690186885, 0.5177066506676986, 0.5138336623667266, 0.5100183560745604, 0.5062392008765629, 0.5024674399825383, 0.4987208441569271, 0.49497776427862433, 0.4912869727635445, 0.48771839397380223, 0.48406914107650967, 0.4804533416826274, 0.4768822366269417, 0.4733318526757086, 0.4698296427310766, 0.4663456046984538, 0.4628964014775765, 0.4593579362408187, 0.455993865297188, 0.4528322700420805, 0.44950258618523303, 0.44621237684101356, 0.4429187909913988, 0.43971124542285933, 0.4364153348729251, 0.4332947744871818, 0.430202947955176, 0.4272085464200936, 0.4241686712725541, 0.4211106014932105, 0.41814840989421337, 0.41521895325264463, 0.4124073805070461, 0.409534419649515, 0.40671461171077256, 0.403917710575219, 0.4011601300150414, 0.39832033749624696, 0.39565573706588036, 0.3929945513356381, 0.3903974364152474, 0.387831686329835, 0.3853121514364837, 0.3828095109220809, 0.38046780171902395, 0.37801766358267935, 0.3756093439206673, 0.37326175103243814, 0.3709321785949047, 0.3684967045804666, 0.36626617722595617, 0.3640665482739427, 0.36192368614924336, 0.3597840594489658, 0.3577625389776823, 0.3556793654933082, 0.35363451865463336, 0.3515088914008649, 0.3495535107032952, 0.34761364936711253, 0.34571960837473203, 0.3439930726827859, 0.3421406528344311, 0.3403258558016009, 0.33836448462237767, 0.336645165541794, 0.33493910532386606, 0.333270923795302, 0.3316277982511328, 0.33005247981445923, 0.3284554196085817, 0.3270024048108701, 0.3254475078778838, 0.32392712600557616, 0.3224400314586847, 0.32098507201810095, 0.3195329795647865, 0.3181426646492083, 0.31677983173671626, 0.3154804316953085, 0.31416588104230264, 0.3127238379849721, 0.3114829925737411, 0.31025914137321475, 0.3090667748126157, 0.30787620808379923, 0.3067578317234128, 0.30559774049384136, 0.304459154432898, 0.3033978402372873, 0.30229332604631626, 0.30118347543926666, 0.3001271528188023, 0.29909001405523283, 0.29810232280393645, 0.29709743061874255, 0.29613383985087094, 0.29516266158986476, 0.294209660392855, 0.29311032594254094, 0.2922112827851298, 0.2914422993529405, 0.29054010402518526, 0.2896516578961333, 0.2887057050859235, 0.28785130714948415, 0.2869423882028818, 0.2861106407631694, 0.28528252974469953, 0.28461049373002395, 0.2837710386952237, 0.28283991150026744, 0.28203760497152486, 0.2812396207961531, 0.2805133330588163, 0.27971459765995693, 0.27893152129170184, 0.27814521161495714, 0.27736479722088414, 0.2764991889674637, 0.2757393158028208, 0.27489597438354657, 0.27414291721456124, 0.273383381352551, 0.27273906042359475, 0.2719526212227846, 0.2711817378327935, 0.2703956348669033, 0.2696102007094025, 0.2686949284634787, 0.26792469140696595, 0.2671623085144561, 0.26637212510244174, 0.2655743497172597, 0.2647717920023406, 0.2639583927299754, 0.2630838183452588, 0.26226175759867976, 0.2614286662376408, 0.2607791994573767, 0.25989992931415484, 0.25899268344381765, 0.2581158091274493, 0.25723453453670786, 0.25620685321235037, 0.2553314341359406, 0.2545731874957488, 0.25365073431329294, 0.2527209588397763, 0.25178860779313605, 0.2508408839421352, 0.24967515088268297, 0.2487341913007657, 0.24777071554932042, 0.24691827792189971, 0.24589613264159382, 0.24493219087341103, 0.2438762369365651, 0.24281123498776522, 0.24154462862300594, 0.24048314807421606, 0.2394501589855559, 0.23833867752722154, 0.23720947221504426, 0.23600925330902459, 0.23485210821124164, 0.23373407486694217, 0.2325298695067739, 0.2313099766597053, 0.2300687035999448, 0.22881797648260657, 0.22761025423756212, 0.22631966214750157, 0.22501617229880602, 0.22356963908789104, 0.22225531302700263, 0.2209730447684012, 0.2196096732145974, 0.2182291536926779, 0.216811883507407, 0.21539993142771288, 0.2140715391333488, 0.2126112126314173, 0.21113917896325504, 0.20966893665731032, 0.20817001234751845, 0.20652617658683659, 0.20501864330874792, 0.2034903758872697, 0.20193367064960838, 0.2003671944425807, 0.1988999526666102, 0.19728087688602164, 0.19565054635142612, 0.19404237906936866, 0.19238413058131987, 0.1906394442876289, 0.18896967656572772, 0.18728446989151956, 0.18554187709481615, 0.1838321274948113, 0.18225775501984762, 0.18049580029115705, 0.17872687981560703, 0.17692500595251665, 0.17514361732705908, 0.17324804440197047, 0.17145994942356332, 0.16965598954017183, 0.16802023684393846, 0.1661639538886135, 0.164304560664011, 0.16244132069147704, 0.16057364348800296, 0.15866161246787747, 0.15678879359369938, 0.15501539420583244, 0.15311385384857606, 0.15121105568179538, 0.14921058490705053, 0.1473157680060145, 0.1453566012472794, 0.14345352114714677, 0.14154044769416566, 0.13967196914966898, 0.13773519957132235, 0.13593532459496804, 0.13397314536488014, 0.13201578620204005, 0.1300597831540413, 0.1281106341531288, 0.12615619064974845, 0.12421421583493703, 0.12227459982307028, 0.12037967039095981, 0.11843965573036873, 0.11649347017687756, 0.1145649993977791, 0.11264091822893381, 0.11064249090935756, 0.10873777052194006, 0.10701129265884, 0.10508646298727825, 0.10317420110838761, 0.10131626439985106, 0.09942237981408993, 0.09742674051929115, 0.0955745987414519, 0.09372897643247564, 0.09202025259954162, 0.09017346832307915, 0.08834830410028366, 0.08653245417063635, 0.08473238888708749, 0.08302407535372043, 0.08124566902303416, 0.079394215815308, 0.07766702543105304, 0.07595378920546611, 0.07418178431098822, 0.07250741310749527, 0.07091225632819578, 0.06925367387090418, 0.0676127909277257, 0.06597604591950525, 0.06437394715924345, 0.0628129280021653, 0.061245712474120834, 0.05972780822797095, 0.05819975026074849, 0.0566953466533793, 0.05536987222779386, 0.05389399501285057, 0.05237243842457558, 0.050972119683698545, 0.04959899930656824, 0.048343343870322034, 0.04701350962918598, 0.045719165229427136, 0.04445383618880599, 0.04322050624667957, 0.041925912299112564, 0.040767682873199235, 0.039802063894864285, 0.03867623142535866, 0.03758758783500862, 0.036386156402834186, 0.035389124197269896, 0.034436428973175316, 0.03349310029370885, 0.032580076206318, 0.03171784355545965, 0.030865179977309178, 0.03013912814390131, 0.0293424301554837, 0.02858558718541314, 0.02777816788981416, 0.02711179897745137, 0.02664321296755465, 0.026025511529728883, 0.02545268432058122, 0.02478032393096354, 0.024313551602568362, 0.02400316393232272, 0.02359229802456273, 0.023225067876436706, 0.022949162378024815, 0.022662548961042975, 0.022421808371621183, 0.022226535349327902, 0.02207642442564011, 0.02196843993473125, 0.021908435576353358, 0.02184509337170179, 0.021880308470499456, 0.0219574788146943, 0.02216446093220644, 0.022315937081780556, 0.022493140908382264, 0.02274376095557925, 0.023040948467637143, 0.023249477660380758, 0.02365711496509942, 0.02411245090512247, 0.0245987324585125, 0.025127067499486528, 0.025875950564431933, 0.026468650332694178, 0.027096174101459435, 0.027799730470042423, 0.028555351875581583, 0.029396477314622606, 0.030250871643724656, 0.03111599581364112, 0.0320812695526946, 0.03309629802169032, 0.03420054826305348, 0.03531014292399893, 0.03647742395104646, 0.037690143742913365, 0.03895475618686821, 0.040265409785833275, 0.04163391896151693, 0.042994295169375404, 0.044472337417353215, 0.04599801514920938, 0.04754359825508607, 0.04916942752082803, 0.05079744336113416, 0.052524088160621527, 0.05429651820865604, 0.056233892461127186, 0.05808517790203907, 0.059889485128983545, 0.06186212355003231, 0.06388269943765117, 0.06596574910943856, 0.06808168049361642, 0.07038557221720045, 0.07258389496536456, 0.07484006479042005, 0.0770769391659079, 0.07945539612261546, 0.08187050872216274, 0.08435209499160051, 0.08688334177761373, 0.08957413227116422, 0.09219067902394708, 0.09478680385698655, 0.0975233601759933, 0.10030948977864641, 0.10306328703186787, 0.10595838476120817, 0.1090614243313057, 0.11202528146417162, 0.11504366763709876, 0.11798312460492184, 0.12112443498007383, 0.12431576901266289, 0.12754546097292033, 0.1308204301450009, 0.13411827481996128, 0.13748703479563437, 0.14096491647874518, 0.14441425873258204, 0.14791183996966412, 0.15155021021799156, 0.1551311466583267, 0.1586937407673558, 0.1623866491481257, 0.16612547343446882, 0.16984215278745302, 0.1736801158995888, 0.17755051457692314, 0.18147147594301238, 0.18543308469301706, 0.1895594451526211, 0.19358688614906694, 0.19767894350478346, 0.20179858404708803, 0.20596480844828627, 0.21019909992424368, 0.21445252672959983, 0.21857045638897749, 0.22293541996822536, 0.22733314821820771, 0.23182620523707703, 0.2362831783783754, 0.24086227506761704, 0.24538342906610577, 0.24994633112557468