0.04868477595812549, 0.04818866703164221, 0.04768600699085774, 0.047222949166344036, 0.046800318251602496, 0.046353146279128454, 0.04591531800881576, 0.045464379788927485, 0.045043866890693555, 0.04456649918143841, 0.04416208548621218, 0.04375748153230926, 0.043403572623853845, 0.0429922995982126, 0.04256285694286812, 0.0421597078054928, 0.04175776076724497, 0.04137106729510395, 0.04096985602223629, 0.04050417016903896, 0.04011569533049518, 0.03972566623339963, 0.03942410436624968, 0.039021401393371596, 0.038586999304977575, 0.038198955477604636, 0.037813534627061794, 0.03744667124987248, 0.03706496583917934, 0.036629377597995574, 0.03626298778469235, 0.035897420513410036, 0.03559282448122091, 0.0352229104526481, 0.034846347673258005, 0.03448916011853574, 0.03416658879709475, 0.033815313578301386, 0.033470658355693225, 0.03308336478901548, 0.0327577075453416, 0.03240396706121389, 0.03208958332457224, 0.03177753120636692, 0.031454312706281996, 0.031150233844132055, 0.030863162695995164, 0.030563768470795876, 0.030269084951677558, 0.029967122357626986, 0.029684236554150072, 0.029437704371761023, 0.029160715457219953, 0.028890866846210162, 0.02864743680675323, 0.028389406508148442, 0.028120299429090462, 0.027880983838055814, 0.02764852880454923, 0.02741597714549548, 0.02719830226332136, 0.026959215491832354, 0.026758494894811788, 0.0265630784737461, 0.026331219812647196, 0.026152711651643994, 0.02605872503774214, 0.02587833348145049, 0.025707448616220242, 0.02551082257965436, 0.025362878842685607, 0.025185200517369256, 0.025056272896727683, 0.024932722147993136, 0.024811497490833848, 0.024700465817444433, 0.024625656813020935, 0.024524042417560166, 0.024431195506751536, 0.024334891479829614, 0.024261281018942912, 0.024152063416574592, 0.024100605307195284, 0.02405520678537894, 0.024000568687110767, 0.02397067835594698, 0.02398583236662243, 0.023964467832521964, 0.023952617199895845, 0.02393455503887748, 0.02394389049685337, 0.024005846008597783, 0.024027377807508684, 0.02406047992393566, 0.024029539814871232, 0.024094705205638726, 0.02427011025372103, 0.024336239691166706, 0.02441585665258384, 0.02446642119550097, 0.024577024551447328, 0.024667750573825815, 0.02480203238368437, 0.02494466776952276, 0.025143290489100432, 0.025297489268826412, 0.025461733576925032, 0.02563958447400369, 0.02582882671379308, 0.025967984416586834, 0.02618747401762529, 0.02640763677395749, 0.02664382504877037, 0.026888133356452324, 0.027128687805398496, 0.027391941247791533, 0.02775486771850804, 0.02802394596011524, 0.02830732201773387, 0.02858174447003521, 0.028895280864997624, 0.02922763030149703, 0.029563744999154453, 0.029911800787352238, 0.030236566338234495, 0.03061247056393572, 0.031011941640585183, 0.03140531815052777, 0.03180933337199909, 0.0322047096661878, 0.03263246664566079, 0.033076807530963655, 0.03352296569095999, 0.033979358365313676, 0.034409206144453384, 0.034890839369185134, 0.035405276822724346, 0.03590061626797306, 0.036406137962738915, 0.03694289220172368, 0.03746612836511004, 0.037958624802550446, 0.03850966500219578, 0.03906928787887942, 0.03967972729445347, 0.04025161128863367, 0.04083303558996834, 0.041427444796319136, 0.04203249683457275, 0.04263743038982394, 0.04326438737949251, 0.04385686897683705, 0.04450796299370914, 0.04516569811336786, 0.04589867645583003, 0.04656165087029222, 0.04717073949008036, 0.0478634401041223, 0.04856260113337817, 0.049345496863445616, 0.05004815075430255, 0.05067066875654104, 0.051406337034882024, 0.05214677446986835, 0.052885188091932274, 0.05363666098046531, 0.054401787037349755, 0.05516205703911303, 0.055927926579895974, 0.05672567305661864, 0.057499313246762565, 0.05827811755423865, 0.05906549985647273, 0.05985907686471432, 0.060698887455048624, 0.06149888478733376, 0.062253871480233, 0.06307509907120709, 0.06389979472148717, 0.06475590925025483, 0.06558366157923606, 0.06638452705470732, 0.06722524094394458, 0.06806811263891036, 0.06894635807420224, 0.06978901294434639, 0.07059676031639006, 0.07145120692359852, 0.07230632850008945, 0.07318484056948156, 0.07403816706509643, 0.07490716650325406, 0.07576168089911785, 0.0766179747016239, 0.07748613601487842, 0.07834337809047272, 0.0791543997736952, 0.08001940488336813, 0.08088196040629593, 0.0817893647441178, 0.08264087074849222, 0.08339767763811803, 0.08426062711357762, 0.08511726629149031, 0.08597315942661818, 0.08681735004643273, 0.08764745355045162, 0.08848217182796142, 0.08931114582173341, 0.09017123280770754, 0.09098411689999648, 0.09179153147185277, 0.09259681172941156, 0.09339749249324936, 0.09417215676232157, 0.0949651733960463, 0.09583194527612988, 0.09660075214988934, 0.0973667569018373, 0.0981132918367929, 0.09887309432818112, 0.09958465870927354, 0.10033689348050756, 0.10107948766990184, 0.10177193518624353, 0.10249980391850118, 0.10321695114211446, 0.10391975668208617, 0.10461035177019139, 0.10532029668359848, 0.10598243458639221, 0.10666382253857963, 0.1073007126677367, 0.10792799881432712, 0.10855911639368063, 0.10916367816880926, 0.10971916974436269, 0.11030701043847506, 0.1108669833581706, 0.11142869393427722, 0.1119753247810348, 0.11249974165138373, 0.11301672103145836, 0.11352307525428222, 0.11400750719790327, 0.11447610729496788, 0.11494446738016315, 0.11537883093335448, 0.11577135137560342, 0.11617761793121481, 0.11656619673796915, 0.11701062452554516, 0.1173541730283243, 0.11766801166041942, 0.11798495442469617, 0.1182856585758488, 0.11852929837331994, 0.11880117339058188, 0.11909875620446345, 0.11932503220519312, 0.1195338328126702, 0.11976853675284803, 0.1199355072674105, 0.11999326325421332, 0.12013871443647865, 0.12026132504309434, 0.1204033545275465, 0.12047545850788302, 0.12059239447898928, 0.12061595170281604, 0.12062262040900236, 0.12054678626858814, 0.12052575388399824, 0.12051904227856612, 0.12044835703892297, 0.12035724638948099, 0.12026294890829098, 0.12012791632051542, 0.11999369546480745, 0.11981519991998243, 0.11961701371050423, 0.11943027125017329, 0.11918748662368722, 0.11892566620506183, 0.11864428589705531, 0.1183428963538427, 0.11803163677741607, 0.1176878150811767, 0.11738848642073371, 0.11699539249997017, 0.1165850133367464, 0.11612682703071271, 0.11568361812532481, 0.11533711589202925, 0.11483732949802593, 0.11432306875643339, 0.11378279561514733, 0.11323802407992282, 0.11270891455465151, 0.11212412303247056, 0.11152265367478613, 0.11095829763967395, 0.11031501952858518, 0.10967955437976729, 0.10900274763255104, 0.10831101331587717, 0.10758621635480174, 0.10686517756854115, 0.10616013216540025, 0.10540013988712163, 0.10462458125148251, 0.10389636571162861, 0.10308114212744848, 0.1022956073387344, 0.10144980710701396, 0.10059317057672335, 0.09972163222908981, 0.09884223658506328, 0.09799088392215763, 0.09708167790031098, 0.09616227345046688, 0.09529376962757953, 0.0943455112520059, 0.09337599949934773, 0.09241461856584639, 0.09144448010454084, 0.09048832182544156, 0.08949771553115383, 0.08857339762589693, 0.08755879629383512, 0.08654112630993865, 0.0855480586852189, 0.08451969768195695, 0.0835013885593447, 0.08246681606684779, 0.08143041247114939, 0.08038860690806085, 0.07934890931665162, 0.07830908215083282, 0.07726567271113773, 0.0762211078906036, 0.07522839907204949, 0.07417615607917602, 0.07312535577947478, 0.07207987413180358, 0.07103787833454307, 0.07000321305243, 0.06896883026568566, 0.06792707513188215, 0.0669045475389629, 0.06588728377929638, 0.06493209031576828, 0.06392037378866805, 0.06288591947143103, 0.06189988712556598, 0.06092326715067873, 0.06007776975001521, 0.05910686426481511, 0.05808074843774226, 0.0571558370322417, 0.0562449875196693, 0.05537516329660064, 0.0544911315511211, 0.0536738207167704, 0.05281937209546573, 0.051986438613297443, 0.05115772741910362, 0.05037085408559561, 0.04959146203872969, 0.04884999727819528, 0.04813053162476275, 0.04749875473739849, 0.046817537717746015, 0.04611009244422372, 0.04549234558217576, 0.04490043056981043, 0.044358060724269725, 0.04381768699984314, 0.04328089033639248, 0.04280434504737652, 0.042357714987228734, 0.04191920327343905, 0.0415382702193238, 0.04123452705077492, 0.040912179434246555, 0.040626257326377035, 0.04032838282837608, 0.04012369304707554, 0.03996715067923568, 0.039833809507539675, 0.039739298718313394, 0.039735447137864977, 0.0397150802740449, 0.03971471838567122, 0.03978706883256717, 0.03990363975749625, 0.04003538550080233, 0.04024645566893562, 0.04046027723699827, 0.04076733529841226, 0.04111882814398332, 0.04159843971593558, 0.042032123611991046, 0.04244833334911589, 0.042996625720048656, 0.043594495409498606, 0.04430609188150402, 0.04499815872567201, 0.045742766172629123, 0.04654774968968309, 0.04740936359904076, 0.04828246729352573, 0.049264468082284775, 0.05027036366482533, 0.05136811702329106, 0.05252121132378714, 0.05376573959966277, 0.05502808586921555, 0.05629976594149744, 0.05768946568359102, 0.05913758810591477, 0.06064856737175003, 0.06221580469592667, 0.06384774906068091, 0.06553765097546108, 0.0672903142261644, 0.06910631962639247, 0.07098620705255852, 0.0729374918717128, 0.07494572495171901, 0.07701963201339863, 0.07918410450667844, 0.0813872609644859, 0.08357776866335818, 0.08592722200715965, 0.08834031594728581, 0.09091772668769198, 0.09344756902461382, 0.09599425141366132, 0.09867306059612717, 0.10141944959200129, 0.10424063302100588, 0.10712186803817232, 0.1100558112728577, 0.11307608016568993, 0.11619386139735546, 0.11934591510817456, 0.12256760353198032, 0.12584122959742222, 0.12920391403852557, 0.13262773648715517, 0.13612757496799113, 0.1396950728318883, 0.1433319520305944, 0.14703442008084835, 0.15075009765154487, 0.15459443208620108, 0.1585029734084434, 0.16249174251702003, 0.166527339403386, 0.17060045218164763, 0.1747706223828146, 0.1790045052847094, 0.1833687428438158, 0.18772158393797928, 0.1921136383302864, 0.19660383474919246, 0.20115827399150757, 0.20575191600202086, 0.21043644474197387, 0.2151963159238029, 0.22000133135634298, 0.22486766207851372, 0.22976667648577337, 0.23475742733563804, 0.23985870762466238, 0.2449582226008234, 0.25011768961484504, 0.25532387067384166, 0.2606019072609894, 0.265962629956143, 0.2713492521188226, 0.27679200699468265, 0.2822564829614315, 0.28781244020758545, 0.29340187086328273, 0.2990612598221847, 0.30476903997374744, 0.31050871078090114, 0.3163130650754971, 0.32214159101087475, 0.328038310232394, 0.3339775633624643, 0.33997622692721075, 0.34599628792042414, 0.3520734734168167, 0.35817323631251385, 0.36431321285348445, 0.37047818822946355, 0.37669678809029955, 0.38294419053158524, 0.38923418791633074, 0.3955573346213256, 0.40189672710699564, 0.40828476798478075, 0.4146542655572551, 0.4211048051888524, 0.4275792695799514, 0.43405933427266363, 0.4405814119709238, 0.4471799277307815, 0.4537346864433674, 0.4603110833474982, 0.46689185390439236, 0.4735090623213534, 0.4800548699829222, 0.48671432370196366, 0.4933823353572125, 0.5001248103515089, 0.5067992269446437, 0.5134922183731935, 0.5201835888558624, 0.5268821420506035, 0.5334985597041928, 0.5402176286815922, 0.5469340251427773, 0.5536468093222894, 0.5603549548210621, 0.5670608643754511, 0.5737559068446632, 0.58039915655684, 0.5870825096152006, 0.5937527608801788, 0.6004439260013542, 0.6070802994821669, 0.6137231916720683, 0.6203263122995802, 0.6269129782567012, 0.6334077925873405, 0.6399656145420176, 0.646506386011106, 0.6530103296158206, 0.6594866152206185, 0.6658900813691465, 0.6723125786296639, 0.6787184017342444, 0.6850691861801159, 0.6913845206292212, 0.6976472753232922, 0.7038896242414139, 0.7101020124617842, 0.7162607567350429, 0.7223769512173688, 0.7284105574838698, 0.7344421287804348, 0.7404982043722506, 0.7464209965821891, 0.7522963683288898, 0.7580540790693854, 0.7638377337078444, 0.7695313762855751, 0.775204669827774, 0.7808170052267986, 0.7864322927659655, 0.7919115518744052, 0.7973023833039252, 0.8026628194302616, 0.8079580900786395, 0.8131763395114778, 0.8183386087121041, 0.8234118435815752, 0.8284358276440593, 0.833386519862918, 0.8382418045234752, 0.8430453369569572, 0.8477413267995375, 0.8523922251355522, 0.8569618213948003, 0.8614739252713024, 0.8658755534032082, 0.8702334936060594, 0.8744646706512564, 0.8786136595079632, 0.882605465310548, 0.8865953874958441, 0.8905406673118431, 0.8943437372957483, 0.8980578571066218, 0.9016135973319852, 0.9051553573572592, 0.908585496225377, 0.9119371590714207, 0.9151912313711708, 0.9183526155131778, 0.921409725882176, 0.9244174465965493, 0.9272708728667469, 0.9300275467622232, 0.9326199137885256, 0.9351887831550796, 0.9376615369179291, 0.94002300304009, 0.9422811942796091, 0.9444322477458461, 0.9464832592524212, 0.9484279655618925, 0.9502697637041295, 0.9520062514187113, 0.9535985442913782, 0.9551283721167091, 0.9565743754419489, 0.9578843879432108, 0.9590874522625851, 0.9601553120785172, 0.961147438603289, 0.9620988693596964, 0.962864261552099, 0.9635245521623539, 0.9640301597758405, 0.9644850721377641, 0.9648589377208292, 0.965092210784086, 0.9652181942589444, 0.9652122553334574, 0.965126556294574, 0.9649320731529656, 0.9646290532622447, 0.9642177626266297, 0.9636493903093171, 0.9630286457778272, 0.9622820177818913, 0.9614438124078923, 0.9604960912925082, 0.9595063180955455, 0.9583336071961549, 0.9569856419564146, 0.9556155229670854, 0.954138513817488, 0.9525555246561543, 0.9508674441605102, 0.9490944330091936, 0.9471963374358084, 0.9451968211819931, 0.9431632125950292, 0.9409545402296521, 0.9386345573637821, 0.9362370475877309, 0.9337156093629664, 0.9311304285008715, 0.9284489189033578, 0.9256702039087902, 0.9227989179380394, 0.9198760052075574, 0.9168129556685815, 0.9136605390913634, 0.9103966524717356, 0.9070705283258841, 0.9036490202309383, 0.9001481095834661, 0.8965606020324118, 0.8928841787641699, 0.8891275086938225, 0.8852245543271036, 0.8813108314766354, 0.8773129941323717, 0.8732995020930631, 0.8691304499465945, 0.8648302662598996, 0.8605194414337692, 0.8561328321739486, 0.8516791497504854, 0.8471451543140349, 0.8425460562264611, 0.8378722530784407, 0.8331315433097957, 0.8283587744806754, 0.823484637493569, 0.8185413024879158, 0.8135486897319967, 0.8084977477660467, 0.8033863933005305, 0.7982235327837751, 0.7930082457342136, 0.7877383275114416, 0.782417393414538, 0.7769715885362931, 0.7715628056492556, 0.7661244996768671, 0.7606141248836649, 0.7550587005577701, 0.7494864406654542, 0.7438432990682203, 0.7381552236743727, 0.7324387532364027, 0.7266872239062581, 0.720919863210073, 0.7151010763388511, 0.7092147133442003, 0.7033443529792224, 0.6974459418445526, 0.6915617000652539, 0.685607734321915, 0.6795406455698866, 0.6735595487193362, 0.6675560617493627, 0.6615359742509095, 0.6554940346404059, 0.6495171852993475, 0.6434359528608585, 0.6373477117338535, 0.6312064103966312, 0.6251140495092424, 0.6190002199803675, 0.6129002463669189, 0.6067972100876405, 0.6007315360893652, 0.5946230066877369, 0.5884681686021311, 0.5823765891842456, 0.5762895802317659, 0.5702580999349549, 0.564179561840783, 0.5580822366362529, 0.5520345783677889, 0.5460006129064814, 0.5399854603648884, 0.5339832520050382, 0.5280102205342899, 0.5220455076139898, 0.5161030492447491, 0.5101719622890751, 0.5042797300579118, 0.49840269019463856, 0.4925646763156335, 0.4867546851448969, 0.48091459807507186, 0.4751726541578539, 0.46948257927138215, 0.46379778088491047, 0.45814700483877435, 0.4525440476502827, 0.4469642759992644, 0.4414236202727165, 0.4359233483102619, 0.4304646940272988, 0.42504184475061313, 0.41967088456427265, 0.41433939752553767, 0.40905973472877505, 0.4038268043360908, 0.3986961001183926, 0.3935531316953143, 0.3884404450436783, 0.38340709975330345, 0.37842674607089355, 0.3734844080029785, 0.36861443705275837, 0.3637481011998678, 0.35899442403363147, 0.35429413322707015, 0.3496695092480954, 0.345076965594178, 0.34058279572071287, 0.33610208107696615, 0.3316833080457124, 0.3272988469797148, 0.32300877979848097, 0.31878034849409737, 0.31461419120525325, 0.310510909500145, 0.3064307394282697, 0.3024599704052074, 0.29853211825212006, 0.2946889845083418, 0.29090847273460263, 0.28725275320370997, 0.28359203845140085, 0.2800030472799697, 0.2764783927707981, 0.27302228547643986, 0.2695365577082455, 0.26623003276925644, 0.26308128841780604, 0.2598897682504163, 0.25676812625257095, 0.2536723442979913, 0.250695457675043, 0.24776615651259679, 0.2449256221384851, 0.24215116202923065, 0.23949735864960142, 0.23684878547496693, 0.23424352302843002, 0.2317371095963334, 0.22929805180219093, 0.2269279242472328, 0.22462279064823817, 0.22234941947956474, 0.22018210614625938, 0.21807907651766414, 0.21606658716117902, 0.21408860378383623, 0.21217957685696562, 0.21033162568245758, 0.20854845162028543, 0.206808517120803, 0.20515605182683802, 0.20356739420100883, 0.2020384346807559, 0.2005708270336711, 0.1991290311857412, 0.19778711600367815, 0.19652937651250035, 0.19529959966861232, 0.19412854228168772, 0.1930015597051734, 0.19194783612203709, 0.19096764617900394, 0.19002311982446457, 0.18913437153211957, 0.18824449295936654, 0.18747198777550414, 0.18680227789006626, 0.18612311328575604, 0.18549624080358812, 0.18486986277813433, 0.18435115664306226, 0.183905331484748, 0.18347590119923238, 0.18309335613989136, 0.1827287642010807, 0.18244088579983878, 0.18223946309862624, 0.18203057052954838, 0.18186529365067858, 0.18169514231730843, 0.18161965034015812, 0.18161676732647394, 0.1816111735553821, 0.18164355148951655, 0.18164089974245812, 0.1817549835512114, 0.18198209058415002, 0.18214644463523105, 0.1823449027449309, 0.1825813979820291, 0.18284344208668668, 0.18310792096254921, 0.18343319232962368, 0.18378480313624151, 0.18408457302167971, 0.18449552676107667, 0.18502357933840763, 0.18545950012044932, 0.18582947449325374, 0.18632229256355487, 0.18683086386501033, 0.18736161310567598, 0.1878989752063564, 0.18843300456150378, 0.18900017733791644, 0.18957891158473703, 0.19018600538153388, 0.1907833911465361, 0.1914225469636315, 0.19203536262431592, 0.19265815646318654, 0.1932598510521379, 0.19390258990867293, 0.19460250727188855, 0.19524678836632361, 0.19589667832554752, 0.19649643022143015, 0.19716029240935315, 0.19780866344222217, 0.19847056015777848, 0.19912856826437061, 0.19979248501469762, 0.20043919296237106, 0.2011031647533459, 0.20173506483599096, 0.20236098539512276, 0.20291850822648172, 0.20353711386319082, 0.20421512185887727, 0.20479917794946342, 0.20537378115370378, 0.20586240461750446, 0.2064242963960248, 0.20701308786942904, 0.20753516750802867, 0.20804194190422648, 0.20854662183508113, 0.20901857829874304, 0.20950342653533696, 0.20993690263015924, 0.21035341277136108, 0.2107589180052708, 0.21113751116101342, 0.21148076913332509, 0.21182130996596704, 0.2121395883901526, 0.2124296407600531, 0.21270198362237547, 0.21290942936079982, 0.21313717252694883, 0.21333698077975027, 0.21353145674271873, 0.21367191830994156, 0.21374301494747378, 0.2138338159243716, 0.2138941518370416, 0.21391520498228506, 0.21391554148341416, 0.21390748922954164, 0.21384252901358744, 0.21374754743552343, 0.21367663029204478, 0.213513926397987, 0.21324806387923664, 0.21303869442924092, 0.21279604051869244, 0.21250612854731485, 0.21219882433926396, 0.2118715899660585, 0.21149472164903815, 0.21108491206527683, 0.21068772566278932, 0.21020619305810395, 0.20964160150928232, 0.20910542683375813, 0.208535130309434, 0.20792909894392542, 0.20729119570318258, 0.20664928677290506, 0.20594012912006673, 0.20519911674223257, 0.2044016060816522, 0.20359973603882023, 0.20276619967743678, 0.20189746592341565, 0.2009958108831004, 0.20012630770852466, 0.19915120116034893, 0.19810534526085824, 0.1970779319022476, 0.1960189762934198, 0.19489535258936955, 0.1937781182693324, 0.19267194786182434, 0.19148415076288983, 0.1902670796005691, 0.18900861124219764, 0.18773503357496965, 0.18641276483968994, 0.18508317203138866, 0.1837238154204257, 0.18232120891036688, 0.180905720335806, 0.17951039531656893, 0.17803148157702872, 0.1765276757404714, 0.1749921948902722, 0.17344022472477164, 0.17188657449728806, 0.1702831714836074, 0.16865739703043298, 0.16692184280622982, 0.16526325015138318, 0.16361160602495115, 0.16189715811716596, 0.16016034277518534, 0.1584159104519402, 0.15663474524964147, 0.1548078388931287, 0.1529917064494131, 0.1511558379554014, 0.14938170606061704, 0.14749858820457057, 0.1455938804834609, 0.14368634270358382, 0.14176579197120748, 0.1398535876138685, 0.13790535152969224, 0.13590604581842075, 0.13394170809117967, 0.13196498119848318, 0.13002567223810055, 0.12802009477362397, 0.12594916456993954, 0.12393625573013423, 0.12191332099235276, 0.11991456850180256, 0.11787003005943113, 0.11583749900358047, 0.11378026756953492, 0.11171966999688247, 0.1096316326020869, 0.10756886368357868, 0.10554144552040733, 0.10346810677908158, 0.10139522256796293, 0.09940038907246276, 0.09732002529073248, 0.09522834448139272, 0.09316255096634458, 0.09110192788214619, 0.08904321838504126, 0.08699419270495587, 0.08502296444178299, 0.08297710527227256, 0.08094211731091265, 0.0789039146724348, 0.07689236947502431, 0.07489803974295357, 0.0729063357998507, 0.07092593265008457, 0.06903084884490729, 0.06706490356842407, 0.06519981817671965, 0.06325652749319483, 0.06133457761130225, 0.05945970121500544, 0.0575755651725724, 0.05568846854020067, 0.053850275464885355, 0.05203176061848877, 0.050220776774664404, 0.04844363677396651, 0.0467580041525344, 0.04501145368316284, 0.043289493426795785, 0.04167448522593941, 0.039991232727708007, 0.03837941521356866, 0.03674909762757962, 0.035149746684937845, 0.033579102592102214, 0.032040544768239206, 0.03059316040343378, 0.029106372492813608, 0.02765278642865031, 0.026230276679158664, 0.024842339610971532, 0.023520107862948846, 0.02219274875136098, 0.020899762829173784, 0.019693667466810335, 0.018462617337771728, 0.017221576931303502, 0.016070972037797525, 0.014954684522809923, 0.013918654461894503, 0.0128663273202806, 0.011867819924482464, 0.010889656378629, 0.009948892367451707, 0.009049331907460626, 0.008189038973837244, 0.007412054707895632, 0.006625410281052359, 0.00587421372476829, 0.005173338384157803, 0.004514515237405299, 0.003931198896882326, 0.0033527255621828298, 0.002815201270553157, 0.002326058917878627, 0.001881183034825328, 0.0015683549302294036, 0.0012012880544430913, 0.0008908519445572882, 0.0006216300195842738, 0.0004015230054760496, 0.000233683430814911, 0.00011039045383462588, 2.5086372284692647e-05, 0.0, 2.261026279200318e-05, 0.00012629273900159263, 0.00024029944541487222, 0.0003673320695427639, 0.0005855756246257062, 0.0008514217577183919, 0.001154628002269978, 0.001517846525319435, 0.0020323704066469036, 0.0024785722020587283, 0.00297914078311862, 0.003517796192276707, 0.004127685247398296, 0.004791565813451052, 0.005505570873415952, 0.006271679565772261, 0.007072286405653791, 0.007944640815004012, 0.008864491721228517, 0.009839452888454147, 0.0108655358488864, 0.011932406786573625, 0.013062619308572767, 0.014198317018076697, 0.015436696587640353, 0.016724077874010562, 0.018148714833932416, 0.019524692482527847, 0.020914064727311367, 0.022406018185938556, 0.023950523662528454, 0.02555996317947346, 0.027208330719807453, 0.028847097837986717, 0.030610465225300632, 0.032423753222588975, 0.03438563125964591, 0.036287706068374274, 0.03823943553092534, 0.040255242349411094, 0.04232638905096762, 0.04438064004777741, 0.04657055750265411, 0.04881084024155047, 0.051101805708873176, 0.05344372054317414, 0.05586836714684331, 0.05830880723582695, 0.06082880528372849, 0.0633722802647788, 0.06597018313097212, 0.06861864126575255, 0.07132477066796834, 0.0740122121710414, 0.0768335669298813, 0.07970355778640108, 0.08267511687905958, 0.08563665054840341, 0.08857692869790924, 0.09165228700522318, 0.09477537240465851, 0.09797106600543881, 0.10118742854237511, 0.10446771502669186, 0.10778203758553011, 0.11114689731101392, 0.1145620676799746, 0.11802731221867448, 0.12154764563987482, 0.12511162777399953, 0.12872521710633963, 0.13234075787987543, 0.13605860912857456, 0.1397838913379583, 0.1435986957173397, 0.14745741442585297, 0.15143221476593333, 0.15537041758761083, 0.15930105098900055, 0.1633429099343391, 0.16742913031595888, 0.17162629596024376, 0.1757926243003712, 0.17991208760635252, 0.18418532188290263, 0.1884996748127577, 0.1928710376514207, 0.19726589329912209, 0.20170288156971788, 0.2061817960076591, 0.21070239398849536, 0.21527316739159474, 0.21987516776809188, 0.22449388210516932, 0.2291810838184252, 0.23390730151408853, 0.23868805979642177, 0.24348950825757315, 0.2482966677279105, 0.2531799000607175, 0.2580993134089982, 0.263133577175591, 0.2681146231956844, 0.27312492351145284, 0.27818586244505095, 0.2832840578748987, 0.28836258479768306, 0.2935399726331022, 0.29878066621954863, 0.30401725912632704, 0.309286747396277, 0.3146042958080677, 0.31993573008960297, 0.3252114217498519, 0.33061705700065647, 0.3360482247218193, 0.34151718308320167, 0.34699773759390806, 0.3525445679678092, 0.3580715870465072, 0.36362611197309674, 0.36917408490451514, 0.3747856092403432, 0.3804065191530116, 0.38606617150007333, 0.3917474717234241, 0.3974973394315151, 0.4032146352046538, 0.4089337994312792, 0.41469865555702656, 0.42048341564331565, 0.4262277392280011, 0.4320576679443343, 0.43795631651719963, 0.44380782672133634, 0.4496761415422323, 0.4555095741318408, 0.46141541699341404, 0.467394067900291, 0.4733145915953897, 0.4792490778588476, 0.4851228544730082, 0.49109151526977723, 0.4971002924646552, 0.5030779543195076, 0.5090634499683657, 0.5149998960763391, 0.5210058191853083, 0.527050881650706, 0.5330564124317607, 0.5390655176763913, 0.5450546045201301, 0.5510713273550009, 0.5570808796609512, 0.5630975065894038, 0.5691122067883643, 0.5751330629760687, 0.5811407097704745, 0.5870798806395874, 0.5930876779341975, 0.5990865030459421, 0.6051215744720532, 0.6110954962380682, 0.617049384014296, 0.6230083843186829, 0.6289570158790436, 0.6349049213756458, 0.6408288296128049, 0.6467174689207053, 0.6526182925581828, 0.658503321113982, 0.6643226147380297, 0.6701797073667803, 0.6760016207106386, 0.6818176682706418, 0.6876106793109454, 0.6934046734786363, 0.6991468538250705, 0.7048866362156249, 0.7105783706808363, 0.7162091883837545, 0.7218562730673571, 0.7274749661194224, 0.7330223714416889, 0.7385871317026993, 0.744090552914354, 0.749591734413118, 0.7550568767877043, 0.7605241034860756, 0.765910854018831, 0.7711902554562307, 0.7765142111420678, 0.7817967178293813, 0.787098725414811, 0.7922892283452312, 0.7974069104017193, 0.802521482996493, 0.8075924205453829, 0.8126381577002398, 0.8176168001253025, 0.8225011590296829, 0.8273945620894585, 0.8322378793542923, 0.837054989894221, 0.8417929810999899, 0.8464275308132551, 0.8510695211720443, 0.8556557654696735, 0.8601523907560578, 0.8646296327295463, 0.869040426299208, 0.8733992617906418, 0.8776973541808913, 0.8819605130093907, 0.8861322587591463, 0.8902395884419659, 0.8942891054128269, 0.8982757984217575, 0.9022233732575866, 0.9060787789036572, 0.9098210939278315, 0.9135536667081435, 0.9172174086493117, 0.9207766414190554, 0.9243053042956693, 0.9277612721452184, 0.9311441572659628, 0.934453524691764, 0.9376924059319977, 0.9408528340558494, 0.9438945812538945, 0.9469102734713059, 0.9498474658218949, 0.9527339492655658, 0.9555097495693639, 0.9582462604132413, 0.9608608295734693, 0.963398451149862, 0.9657775314172592, 0.9681686950021078, 0.9704616768271718, 0.97268614022556, 0.9748252877364251, 0.97689652157676, 0.9788623786821369, 0.980748641322824, 0.9825437378789896, 0.9842534958426444, 0.9858722153451437, 0.987410647395314, 0.9888919523594469, 0.9902523671634009, 0.9915267725644653, 0.9926637167061612, 0.9937707688464851, 0.9947942867461209, 0.9957192801161066, 0.9965539537289021, 0.9973262074084147, 0.9979762282727725, 0.9985177544298217, 0.9989914304545702, 0.9993741127352559, 0.9996814387335194, 0.9998797225140553, 0.9999822544487709, 1.0, 0.9999265524860947, 0.9997565416476504, 0.999501071433645, 0.9991187974800717, 0.9986843080082245, 0.9981561688814093, 0.9975049126801835, 0.9967942552284925, 0.9960453767662807, 0.9951395151705139, 0.9941435472892259, 0.9931066154396873, 0.9919243982058701, 0.9905498626632825, 0.9892064810336625, 0.9877696742911678, 0.9862875437352354, 0.9846601403563127, 0.9828687479690794, 0.981073990837579, 0.9791870267157822, 0.9772771970602219, 0.975199994406642, 0.9729985817203464, 0.9707552757246599, 0.968424785035811, 0.96599901905717, 0.9634972973287493, 0.9609011631065748, 0.9582300129589288, 0.9554742301129089, 0.9526767199198284, 0.9497488115607334, 0.9467656335465937, 0.9436754612541326, 0.9405078461337809, 0.937266662427202, 0.9339448862153688, 0.9305278718753274, 0.9270571598122505, 0.9235105242105021, 0.9198747304099938, 0.9161804324479726, 0.9123592930390946, 0.9085241685173435, 0.9046138625131144, 0.9006789200080969, 0.8966163489629538, 0.8925048748906791, 0.8883044375794311, 0.8840388268931346, 0.8797018793922271, 0.8753094035220097, 0.8707839008777384, 0.8662755460666955, 0.8617024536737253, 0.8570697791988503, 0.8523716696385295, 0.8476366327134655, 0.8428176996859832, 0.8379433049956825, 0.8330287493029519, 0.8280454808765112, 0.8229885759988075, 0.8179076830493598, 0.8127770422980218, 0.8076243556914763, 0.8023950900325592, 0.7970673856739331, 0.7917580120742187, 0.7864038960766977, 0.7810768456243188, 0.7756293533807055, 0.7700986298372069, 0.7645863716101468, 0.7590376645891954, 0.753424197863041, 0.7478108502302582, 0.7421691181091898, 0.7364895378107673, 0.7307800191161725, 0.7250772485732906, 0.7193082495875759, 0.7135423733958544, 0.707724969930228, 0.7018884430529188, 0.6959532408727644, 0.6900920315847465, 0.6842877730525934, 0.6783782787127097, 0.6724566109086859, 0.6665186698742926, 0.6605768390254523, 0.6545630032073047, 0.6486126952516469, 0.6426525886079811, 0.6367055722904127, 0.6307287023920177, 0.6247030275358753, 0.6187270384596536, 0.6127483517133708, 0.6068389863535508, 0.6008516169084435, 0.5948288681182784, 0.5888613776577941, 0.5829005533128229, 0.5769146112754625, 0.570975902958795, 0.5650710627625225, 0.5591496191704565, 0.553242277363574, 0.5473452045356594, 0.5414709922699161, 0.5355551865741961, 0.5297259677621294, 0.5239142158396063, 0.5181287816775093, 0.5123565053763739, 0.5065985928294879, 0.5008752400511182, 0.4952547274566181, 0.48957450859668217, 0.4839272773268343, 0.4782261436167106, 0.4726583505113984, 0.4672297691315636, 0.46171078410208766, 0.4562314472628479, 0.45070112944580726, 0.445314318989267, 0.43999188612887535, 0.43467558226088476, 0.42939993386917374, 0.4241660081749491, 0.41897484738494006, 0.4138187018021986, 0.4087172080551472, 0.40366096777828947, 0.3986755458903798, 0.39370972571533225, 0.38880576484053603, 0.38393828860112883, 0.37912253305170723, 0.3742854682816989, 0.369584316659972, 0.36492208760945005, 0.36032236375774807, 0.35577383692190734, 0.3513144752757861, 0.34686704442700583, 0.34242172585968866, 0.3380947367009854, 0.3338223978215167, 0.32965131100209044, 0.3254854624335103, 0.3213550721764088, 0.3173127601707225, 0.31332989531061356, 0.3094228349658038, 0.3055585528003823, 0.3017176235457904, 0.29798239852709973, 0.29430755708883705, 0.29070245157262836, 0.2871489622674145, 0.283708773483377, 0.28027409609120424, 0.276905363272305, 0.27353404048194313, 0.27030540773013306, 0.26713320721216005, 0.2640290526028202, 0.26098708584087643, 0.2579901161172932, 0.2550757110085992, 0.25224615225686753, 0.2494532758469428, 0.2467242773386867, 0.2440170647623917, 0.24142107909513175, 0.23896713187984384, 0.2364839279793146, 0.23406699995650407, 0.23164914681137305, 0.22937150399092537, 0.22717928436106083, 0.22502029296043483, 0.22292350677778652, 0.2208623181677104, 0.21889232387837554, 0.21703466522203135, 0.21517731017819938, 0.21338224265449707, 0.2116066858573843, 0.2099394416251235, 0.2083756545464399, 0.20681804234792792, 0.20532014032056753, 0.20381453466085248, 0.20244214118346376, 0.20118126303358308, 0.1999086303975171, 0.19869238321664986, 0.19753521647168845, 0.19642886424430078, 0.1953082813626288, 0.19431804931932936, 0.19337646503667788, 0.1925516302724384, 0.19169777558938172, 0.19087606626909, 0.19012649296447953, 0.18942523618995658, 0.18872410903156697, 0.18812293174135042, 0.18754556668138112, 0.18703253649678112, 0.1865604821393311, 0.18613421665405702, 0.18574203912169512, 0.18540712819954333, 0.18509152219482097, 0.1848152356149652, 0.18460892691960384, 0.18440455633949962, 0.18418940841593048, 0.1840666716826687, 0.18397708871924154, 0.18397422902054772, 0.183941681128688, 0.18387623830453378, 0.18391826684801288, 0.18398767673992011, 0.18410828342678073, 0.1842271095293328, 0.18438990447411924, 0.1845583344255713, 0.18475208119714204, 0.1849874791862443, 0.1852260549319164, 0.18545580716541954, 0.185742547519326, 0.1860476762827585, 0.18633863566497405, 0.18668153841217847, 0.18713799900066622, 0.18749472533967884, 0.18786911688233923, 0.18814907649313434, 0.18856795212282546, 0.18905674305750889, 0.1894806766746574, 0.1899138054456468, 0.1902971124228635, 0.19075250972321273, 0.19128585403466739, 0.19173618255755032, 0.1921919873491124, 0.1926063648644757, 0.19307499045283558, 0.1935322019844023, 0.19399954752177556, 0.19446375183785694, 0.19489950922531032, 0.19535824687525, 0.19586625822497983, 0.19630362582366517, 0.19673607033770277, 0.19713442330546388, 0.19755726206051039, 0.19794931742368174, 0.19835453740531253, 0.19874724333944255, 0.19915311221555446, 0.19951557159660457, 0.19985980754423635, 0.20019612620671726, 0.20051744511142303, 0.2008106887000148, 0.20110116920445695, 0.20138411784859953, 0.20163650125500537, 0.20187010201601305, 0.20207892067060162, 0.20227342052012914, 0.20248875839386868, 0.20263480106688359, 0.202760681204203, 0.20280932985571137, 0.20289916156301782, 0.20300330239624254, 0.20303564516017497, 0.20304352455226096, 0.202970141495631, 0.2029341606277223, 0.2029089401720223, 0.20280858883629127, 0.20268064252890863, 0.20248602483713696, 0.2023062901476763, 0.20210588898343068, 0.20186233180775146, 0.2015879274211229, 0.20129296793292786, 0.20095485506672622, 0.20058230108256306, 0.20018246233437786, 0.19975090873547738, 0.19933474767938597, 0.198833085218453, 0.19825962023806182, 0.1977032717545055, 0.19711376999704563, 0.1965541345339195, 0.19589004386097925, 0.1951715230999289, 0.19445020652114572, 0.1936965765966476, 0.19292093751942435, 0.19210074459504536, 0.19125882851727347, 0.19037264031682985, 0.1894176688159286, 0.18847204525141703, 0.1874921061828355, 0.18651139349516832, 0.18545929744287756, 0.1843544177304457, 0.18324148297954782, 0.1820956382823744, 0.1809556974026774, 0.17973988461610835, 0.17849058260289208, 0.1772152257571447, 0.17590969852273902, 0.1745355347961962, 0.1731749178953085, 0.17180872437213948, 0.17038156516117114, 0.16892508058503442, 0.16740277048755464, 0.16589328372827905, 0.16442884516715425, 0.16284981252667072, 0.16124602336179708, 0.15962279279001867, 0.15796905418319207, 0.15627542568313074, 0.1545756558335804, 0.15285132845248992, 0.15115722459952313, 0.14937821089513423, 0.14760009290404527, 0.1457781996257119, 0.14393756547632228, 0.1421203278469147, 0.14023713997890055, 0.13838708394414115, 0.13646571004642935, 0.1345311373024291, 0.13254454995106443, 0.130587874320907, 0.12867512824023347, 0.1266799768857107, 0.12467342129551984, 0.12268359113580915, 0.12065100991818328, 0.11861965379831817, 0.11656728968058579, 0.11450660251994661, 0.1124851884229018, 0.11040272050341035, 0.1082963270792821, 0.10620714646456474, 0.10411260509872909, 0.10209736044932155, 0.09998299869784723, 0.09792753845620884, 0.09580793472593954, 0.09369274694489751, 0.0915940325719075, 0.08948563583862244, 0.08741547636269387, 0.08531282803178994, 0.0832173324644813, 0.08112206269837609, 0.07904215120282687, 0.0769941858699362, 0.07492645766682451, 0.07286857084744595, 0.0708718243767878, 0.06882862255134656, 0.06679444882931179, 0.06478075565344812, 0.06278169551611318, 0.06089246484940938, 0.05891230305837113, 0.05691350595163451, 0.05498178056549731, 0.05306952598578577, 0.05126846447119179, 0.049385319903682674, 0.04749703029394819, 0.04567070488514823, 0.0438691480909576, 0.042106889099027496, 0.040354673043380765, 0.03872265929427082, 0.037013807934256064, 0.035338656065638525, 0.03363752690868037, 0.03203727049241248, 0.030513170614315223, 0.02896906146255846, 0.027459666357015532, 0.026017016786488538, 0.02457453144614529, 0.023140315625259738, 0.021778139351170428, 0.020453205717247708, 0.019197831442977535, 0.0179456774213268, 0.016771684205435556, 0.015598102403541281, 0.01446906895839698, 0.013384912783416865, 0.012346026560025123, 0.011361625088943693, 0.010413559290802678, 0.00951273046281253, 0.008656127244442476, 0.007851737864735697, 0.007104742601228203, 0.006397110086431217, 0.005739835040668048, 0.005128224228630469, 0.004574046527473081, 0.00404011327917705, 0.0035941844348470757, 0.0031995790589839867, 0.002872972049649, 0.0025816622345640264, 0.002380201858682162, 0.0021946773583024614, 0.002067201809046385, 0.002033186195553609, 0.002018416162966491, 0.002048953687718126, 0.0021584561842625904, 0.002328403044192659, 0.0025643589635791397, 0.002855456901492711, 0.0031626572857563536, 0.0035831999411951544, 0.004063476972363511, 0.004600659748715927, 0.005202842234802534, 0.005901543603445272, 0.006622778382711978, 0.007408565792549983, 0.008217050599107942, 0.009137946978515962, 0.0102006191550602, 0.011237836527851697, 0.012343420815582911, 0.013419009553390355, 0.014673274507797372, 0.01604785870298526, 0.017420431496628173, 0.018860059297743103, 0.020347556558344852, 0.021924032983262898, 0.02351591432499766, 0.025231561754239087, 0.02701104194694708, 0.02890227864909578, 0.030805100131294925, 0.03274260593614339, 0.03478562116290903, 0.03689471366656925, 0.03907536234937403, 0.04131655145158326, 0.043649175350265676, 0.04602107389838822, 0.04846128397692538, 0.05099588512718659, 0.053568719739175874, 0.05612473713934806, 0.05884618746352129, 0.06163103033353341, 0.06446550837207668, 0.06737964713847748, 0.07036049304976234, 0.0734007664802074, 0.07650471976438779, 0.07971970684077678, 0.08294500697566473, 0.08622423174338135, 0.08958295115358222, 0.09300612150153258, 0.09650909465780041, 0.10005787090162094, 0.10358649139553638, 0.1072733366106923, 0.11101828353041321, 0.11486525551477561, 0.1187210394491261, 0.12260583827816961, 0.12658627037384057, 0.1306244929966171, 0.13472372827175158, 0.1388761834194345, 0.14311367886326976, 0.14737610294851125, 0.15169614329677877, 0.1559888846686938, 0.16043254943725277, 0.1649408771801097, 0.16948395420058482, 0.17407819540442124, 0.17873901412282692, 0.18343242442767307, 0.18815907048237362, 0.19295557794177254, 0.1978443565611529, 0.2027316122538776, 0.20766856322192878, 0.21261035969164976, 0.21764921204265453, 0.22276910436932165, 0.22789109360097984, 0.23305804376371847, 0.23821458400820184, 0.2434752920777822, 0.24880118141764665, 0.25413575334360905, 0.2595094891129372, 0.2649302735370558, 0.2703785626598434, 0.2757936678505687, 0.281323730301408, 0.2868847961540261, 0.2924746586265307, 0.29809651680656846, 0.30377926067348915, 0.309455127071607, 0.3151607339793686, 0.32087051946392975, 0.32663565429737906, 0.33247691363792914, 0.33828530539734925, 0.34412006511193605, 0.3498921792313524, 0.3557867600469388, 0.3617321433812593, 0.3676569053135778, 0.3735997916004088, 0.37957559798298457, 0.38554975545236847, 0.3914732599141682, 0.3974866172186686, 0.40350984574576887, 0.40957560852873226, 0.4156123398356154, 0.4216726819590691, 0.42772569908974006, 0.43378685670872796, 0.4398233420815234, 0.4459010217511102, 0.4519813240150841, 0.4580632571905969, 0.4641458002781139, 0.4701823159843974, 0.4762686785040943, 0.4823761858414448, 0.48844816584643835, 0.49451491843607653, 0.5005385509054796, 0.5065962721751004, 0.5126451783457906, 0.518680707435146, 0.5247040482889882, 0.5306739266475959, 0.5366751179532095, 0.5426606660022546, 0.5486261190615409, 0.5545727614082329, 0.5605155121612168, 0.5664199014425744, 0.572322923610979, 0.5781824426196424, 0.584020129518928, 0.5898346768450605, 0.595624785114206, 0.60134006634886, 0.6070836406156641, 0.6127961754085558, 0.6184382265551935, 0.6240909172794662, 0.6297515248495335, 0.6353261734959037, 0.640865979520795, 0.6463750721402025, 0.6518411292960697, 0.6571815592216622, 0.6625816111415933, 0.6679364289458868, 0.6732490535144177, 0.6785114814023792, 0.6837798469198224, 0.6889415838309558, 0.6940581418184258, 0.6990669252206391, 0.704097226837954, 0.7090384542254169, 0.7139682231788984, 0.7188422575246755, 0.7237582773961221, 0.7285069352686437, 0.73310730613772, 0.7377630182029306, 0.7423586299222619, 0.7469233800395643, 0.7513932621129982, 0.7557783163525301, 0.7601298058026571, 0.7644177616985507, 0.7685958539970329, 0.7727602663775301, 0.7768668288578671, 0.7808927453281641, 0.7848499780714198, 0.7887396695281085, 0.7925574502254007, 0.7962801798549787, 0.7999593602166508, 0.8035652484977125, 0.8071078403660351, 0.8105642081411619, 0.8139286775740788, 0.8172378492526027, 0.8204702964527458, 0.8236237136816891, 0.8267012608655981, 0.8296915159198431, 0.8326125463389992, 0.8354534016409942, 0.8382258404345755, 0.8409032373463514, 0.8435363997740413, 0.8460463949795138, 0.8484761498348253, 0.8508019695429362, 0.853071479192407, 0.8552481577453181, 0.8573500821377333, 0.8593663410272222, 0.8613034983125575, 0.8631462039037027, 0.864839207026534, 0.8665162780002611, 0.8681023309288487, 0.8696009665574005, 0.871004781908912, 0.8723179449863832, 0.8735404205518, 0.8746721540610708, 0.8757323641703468, 0.8766799554351533, 0.8775148543877964, 0.8782852864673468, 0.8789640664139121, 0.8795897440208363, 0.8800802598952212, 0.8804794500367886, 0.8807907065074512, 0.8810116627594247, 0.881075450036422, 0.8811235580619894, 0.8811261265791587, 0.8809791639472633, 0.8807411091357942, 0.8803242467308879, 0.8799149941235052, 0.8795236605845689, 0.878908629406332, 0.8782053677824927, 0.8773504674385803, 0.8764779450885711, 0.8754989748179505, 0.8744438047408283, 0.8732962596444581, 0.872128755201984, 0.8707889268427723, 0.8692886450407501, 0.8677844272104183, 0.8661891653677841, 0.8645631152360066, 0.8627801273243033, 0.8608341648291231, 0.8588894157284912, 0.8568548257020422, 0.8547522917081166, 0.8525378977058456, 0.8502408382843017, 0.8478542732503298, 0.8453829733359421, 0.8428117607900134, 0.8401748097785171, 0.83749792517062, 0.8346886631360942, 0.8317996352375447, 0.8288330168906549, 0.8257855492944068, 0.8226826163989119, 0.8194762902974589, 0.8161941147092767, 0.8127769162148979, 0.8093519739947056, 0.8058738971682705, 0.8022915791220975, 0.7986351341482655, 0.7948791394013656, 0.791080422560868, 0.7872508798936445, 0.7833021705632227, 0.7792851987936216, 0.7751393872999356, 0.7709960703187511, 0.7668045815771387, 0.7625215713920763, 0.7581978354374341, 0.7537823422282879, 0.7493052904954784, 0.7447062806608923, 0.7401168128802503, 0.7354653343375692, 0.7307533840612846, 0.7259824619896761, 0.7212118983422549, 0.7163200842656593, 0.7113207475552403, 0.7063341282494517, 0.701294834429895, 0.696223604190628, 0.6910808504374293, 0.6859241075547132, 0.6806837696780912, 0.6754004790976116, 0.6700541771943817, 0.6646906306295332, 0.6592807560545654, 0.6538370026752024, 0.6483544235900182, 0.6428360984938496