0.04794848820646076, 0.04745528238894776, 0.04700462099906031, 0.046569652507012275, 0.04614605526067719, 0.04573616339384801, 0.04529721336766615, 0.04490990249392325, 0.04452729205700674, 0.044187275505314386, 0.043807082635464754, 0.043421745952707695, 0.04305219065952391, 0.042685828468540736, 0.04230195778242919, 0.04194354738157896, 0.041582289894920695, 0.04122687562973259, 0.04087257790587744, 0.040509379096003446, 0.04015907510194053, 0.03982000439334988, 0.03947083796727762, 0.03912389377831998, 0.0387712494742368, 0.038430421617144016, 0.03812251926201879, 0.037782972521034144, 0.037448139927662084, 0.037109921048636155, 0.036785668696335184, 0.03638856318221823, 0.03608308015673027, 0.03577799699433971, 0.03552086896000536, 0.03521294702371533, 0.03490204631092871, 0.034605663765075734, 0.0343143694420316, 0.03402434070443114, 0.03374445288035778, 0.033466040040210275, 0.033197979372856526, 0.03293567260855021, 0.032669180228403025, 0.03242033331866864, 0.032199670597076825, 0.03195988641163948, 0.031727671297179655, 0.03149492854916928, 0.03127899670739018, 0.031023530545834285, 0.030828102082201, 0.030690384038764357, 0.030498429822441386, 0.030315198033252878, 0.030114217344220182, 0.029951680854048496, 0.02980445120662196, 0.029655446612107332, 0.029514486144322952, 0.029395925925751718, 0.029269614293291082, 0.02913013104102742, 0.029025041575225802, 0.028927904962403887, 0.028861293935700496, 0.028777834691867003, 0.02868992816128996, 0.028627838818022965, 0.028574743114393203, 0.02852671231646627, 0.028492531877888402, 0.02843092417388491, 0.02841989290037456, 0.028416314636819196, 0.028453179145986985, 0.02846171168075888, 0.02843196035091086, 0.02846778900159263, 0.02851156813821061, 0.028600382568371597, 0.028656831386702112, 0.02870019218423997, 0.028782418270957785, 0.028874717972377065, 0.028997691985699337, 0.029108342006923336, 0.029222806683713055, 0.029358427348884122, 0.029505634339540763, 0.029617775467622884, 0.029794423383900058, 0.030010883025424248, 0.03020277571370993, 0.030406608479625882, 0.030596090239382565, 0.030827570870263228, 0.03107194742556879, 0.03132522573024826, 0.0315901067533603, 0.031868873251254086, 0.03215742456611731, 0.03246650013448231, 0.032778966294855175, 0.03310458867912171, 0.033459701685301685, 0.03380977205573126, 0.03412325485897104, 0.034508175740439136, 0.034904346742627525, 0.035336521617222255, 0.035753119518073855, 0.03620360591394132, 0.03664478096306524, 0.03710072867948529, 0.037550980329815464, 0.03803865979967372, 0.03854571471361272, 0.03905924253625275, 0.03958651786402222, 0.040103139928994176, 0.04066099855116841, 0.04126580297079978, 0.04184423115686072, 0.04243732721363372, 0.04303885031967062, 0.043661644646330634, 0.0442434714729587, 0.04490102397986125, 0.045569312954746775, 0.04630972710435678, 0.04699286725171191, 0.047668785896863165, 0.04838479149362369, 0.04911419283327701, 0.0498366130037329, 0.050595245708382995, 0.05139649093171402, 0.05217558691453352, 0.052968680622700194, 0.05372473864798982, 0.05455167978067033, 0.05540140529471, 0.05624820384364922, 0.05710669200124139, 0.05801555490511625, 0.058892653839488954, 0.05974910710515831, 0.06065809155037484, 0.06157840910106118, 0.0625039366838306, 0.0634476043961029, 0.06441230447475137, 0.0653763865950024, 0.06635182366222862, 0.0673201608156781, 0.06832015481610962, 0.06933609406334054, 0.0703549764944172, 0.07138396185853418, 0.07243512473213329, 0.0734823780598113, 0.07454812936898404, 0.07561481564960318, 0.07669179056313391, 0.07776652221063488, 0.07886463348421095, 0.07997138025027105, 0.0810865513178118, 0.0822099285211708, 0.08330671659804967, 0.08445019597244267, 0.0855687441374654, 0.08672725837787372, 0.0878896601533451, 0.08913342613857346, 0.09029437370810876, 0.09143549536590638, 0.09261673681687839, 0.09380386730849848, 0.09495997493602022, 0.09616258340877451, 0.09740876114507285, 0.09861199789788139, 0.09982032385944202, 0.10101907539310699, 0.10223810112446835, 0.10344795224727829, 0.10467428081384644, 0.10590235608008054, 0.10710552993257183, 0.10833978571787115, 0.10962038347891817, 0.11084781321295605, 0.1120772914872907, 0.11330017756592105, 0.11453327522243616, 0.11579698770752109, 0.117026047427897, 0.11825612418031803, 0.11947437130213541, 0.12070612098741004, 0.12193636040315411, 0.12316462976119733, 0.12439048066374679, 0.12558297150667083, 0.12680653616882842, 0.12805111726285268, 0.12926033033988932, 0.130465243839515, 0.13165526145689965, 0.13285158198104113, 0.1340437981870795, 0.1352272556771145, 0.13640402327357437, 0.13757781046523276, 0.13873960839861949, 0.13993656841536942, 0.1410774842299321, 0.14221246124588288, 0.1433183940139025, 0.14444215722130327, 0.1455627473768914, 0.14666675668358337, 0.14776097501126975, 0.1488429047924675, 0.14991642088673804, 0.15101935347151127, 0.15206481045645795, 0.15310048907824272, 0.15409720214498235, 0.15511481919374653, 0.1561048118497399, 0.15709709106046663, 0.1580744713074542, 0.15906315719628902, 0.16000669344496526, 0.1609584631984776, 0.1618704322761598, 0.1627686059330078, 0.16361373777574606, 0.16448741813231732, 0.16536375686968544, 0.16619931983835962, 0.16701795361473848, 0.16784775476088148, 0.16862782400259443, 0.16937521191032995, 0.17012394639777073, 0.17085426193969486, 0.1716064685154196, 0.1722937366832434, 0.17293129533417215, 0.17358768860192184, 0.17422384951787606, 0.17487610171481066, 0.1754663405241465, 0.1760152253351403, 0.17656978059316925, 0.17707662121719975, 0.1775916874093402, 0.1780834577041462, 0.17857426889169215, 0.17901650918406914, 0.17939183632765288, 0.17979513648831666, 0.18017327102894953, 0.18057111737881804, 0.18089364950498438, 0.18123045517014677, 0.18150339216675473, 0.18175546360504008, 0.18193120772950014, 0.1821468794438933, 0.182337102150283, 0.1825019176802875, 0.18264135679069032, 0.18273510531679749, 0.1828264190010236, 0.18292786105537948, 0.18296176133007694, 0.18297154826577475, 0.18294078082638549, 0.18290389908221363, 0.18287406593287028, 0.1827821064569985, 0.18266651061701997, 0.18248229346542383, 0.1823243758198502, 0.18215594085251868, 0.18194260478225008, 0.1817037995223521, 0.18142533903492794, 0.18113754624729866, 0.18082161246746548, 0.18048204029716158, 0.1801165951030825, 0.17973765830652585, 0.17931945792815315, 0.1788603226171201, 0.17839491285163672, 0.17790406700924383, 0.17738393561488908, 0.1768433787160967, 0.17625949191700366, 0.1756714300786319, 0.17505778116435042, 0.17443112060291868, 0.1737658562999259, 0.1730808196349018, 0.17236758471975422, 0.17163118359829255, 0.17087587422356834, 0.17009320520589877, 0.16927598860897264, 0.16845034803869605, 0.16760204460284117, 0.1666968073186564, 0.16580844647601226, 0.16495535231106104, 0.1640127002715303, 0.163050775079759, 0.16202488206255755, 0.16103023190060006, 0.1600282637083828, 0.1589892070542973, 0.15793037778156388, 0.1568521293545587, 0.1557548172632151, 0.15461439697221668, 0.15348312033106037, 0.15233249448456826, 0.15115698346827203, 0.1499701044675109, 0.14880177408553297, 0.1475747174128221, 0.1463327630317801, 0.14504563942074783, 0.14377846416083234, 0.14248730631698994, 0.14119000268984258, 0.13987746177862592, 0.13853399766168803, 0.1371947694344999, 0.13586142457805406, 0.1344913889513333, 0.1331093511729165, 0.13174830114718142, 0.130339503500618, 0.12887308161567068, 0.12745300742380894, 0.1260217894765797, 0.12460040949546031, 0.12314625049632076, 0.12169820196171911, 0.12022642112585785, 0.11874817414660695, 0.11727801966098444, 0.11578603145348876, 0.11430160571720599, 0.11279906047514517, 0.11129311708475859, 0.10976569453804462, 0.10825596781386945, 0.10675478448431748, 0.10523666487935411, 0.10371651127623761, 0.10219470590272842, 0.10067164896772901, 0.0991660585743032, 0.09763944688223736, 0.09611389948484704, 0.09460599080900411, 0.09308146054447082, 0.09160260953874741, 0.09007887787357968, 0.08856105027067201, 0.08704096455900637, 0.08553595982107398, 0.08408939415231165, 0.08258906399245237, 0.08109776180430629, 0.07961943410331843, 0.0781453966246007, 0.07674150530425004, 0.07527810776924325, 0.07382748575505813, 0.07236494020909462, 0.07094217535762021, 0.06959531878057372, 0.06818618982092395, 0.066791988834495, 0.0654104516966712, 0.06404577624318558, 0.06273619459025875, 0.06139528587298527, 0.06007127899422893, 0.05883318152780237, 0.057533930073660554, 0.056245162282400854, 0.05498805790433037, 0.05375028324814025, 0.05259883418003013, 0.051390992823091425, 0.050206180230813705, 0.04904399069891499, 0.04790414680359596, 0.04677631646515284, 0.04568205575192964, 0.044635798579656334, 0.04358150890398157, 0.042550682894041084, 0.04160846236947541, 0.04061660618654002, 0.03968886244630568, 0.038747111323833947, 0.03783446128730519, 0.036954600331079876, 0.0360986185145085, 0.03533014040313372, 0.034523663429418996, 0.033748909550373414, 0.03300545967322242, 0.032293015585398196, 0.03159918389440905, 0.03094981058695386, 0.03033044812166454, 0.029790050751671952, 0.02922503386642408, 0.028719785596392558, 0.028217968950193423, 0.027750800048197768, 0.02737502545439192, 0.026969457131595383, 0.02659935830860871, 0.026268620607434883, 0.025974517129313417, 0.025708704885046525, 0.025488354659454145, 0.025352598285152947, 0.025197727682791254, 0.025081576407647056, 0.02499577446892926, 0.024957463231042726, 0.024987441087670065, 0.025020884767663617, 0.02509395004083337, 0.025186176887670185, 0.02534074405867219, 0.025590532203718167, 0.025814660756360082, 0.026080679650085984, 0.0264046292008176, 0.026751754569909008, 0.027114755119736676, 0.027549662414524195, 0.028025090057750196, 0.028581848825398905, 0.02913361176991448, 0.029714411276375467, 0.03035437168106778, 0.03103656198676735, 0.03176104028864069, 0.0325278855717963, 0.03335956279944823, 0.034208614776576, 0.035097546605966604, 0.03603495379643336, 0.03701600105505874, 0.038071221609116045, 0.03913579714190685, 0.04027636000268134, 0.04142786829613846, 0.04262625294701311, 0.043812187115119625, 0.04511077746467617, 0.04649677819910931, 0.04787533002398597, 0.049299591871404945, 0.05076130362752125, 0.05227766159535132, 0.05386133659250314, 0.055464766570489786, 0.05711441558300322, 0.058785717380661656, 0.06053042436031615, 0.06231549515326181, 0.06414967575579747, 0.06602824484480803, 0.06794114591395159, 0.06991009724336332, 0.07189672184924972, 0.07395738565595582, 0.07606095353019697, 0.0782545143625491, 0.08043888065018037, 0.08267975630085538, 0.08495532988665938, 0.08727744473736937, 0.08963364527135632, 0.09204963936616968, 0.09449450685724002, 0.09700272897369239, 0.09955495305150548, 0.10215119322929894, 0.10479144459922564, 0.10746144944566205, 0.11019143755938614, 0.11296451964991186, 0.11579294069661121, 0.11865077068368904, 0.12152802486718749, 0.124476460705602, 0.1274670771642919, 0.13052025266952716, 0.13359275432399945, 0.13671877644993846, 0.13987648499247174, 0.14307768556247363, 0.14632410641444604, 0.1496111231464422, 0.15293474398973622, 0.15630763283652022, 0.159722271288536, 0.16311333442044154, 0.1666189427428962, 0.17019645499488936, 0.17377262047522465, 0.17738851297646036, 0.1810358500396802, 0.18473175777037643, 0.18846845904955187, 0.19224148451305434, 0.19605306819690624, 0.19990503311456584, 0.2037928250906059, 0.2076799635871399, 0.21164832812366427, 0.21565193363157895, 0.21972332131801398, 0.22379325818291845, 0.22791029808975538, 0.2320524268287256, 0.23623127063050695, 0.24043617794223587, 0.24468829216882046, 0.2489242780136423, 0.2532518545778372, 0.25761050889755294, 0.2620205857186722, 0.26643879529727055, 0.2709195898619599, 0.2753977969501958, 0.27990915738524, 0.28442663869788065, 0.28900587166940667, 0.29358655086571234, 0.29822886392473613, 0.30289877402131443, 0.30757782148274443, 0.31230472261704517, 0.31702302201111604, 0.3218061000025892, 0.3266128918957112, 0.3314942843007661, 0.3363421425671578, 0.341200219581497, 0.3461025391791379, 0.3510292871795211, 0.3559840804617366, 0.36095779957535035, 0.36592629463053966, 0.3709495653773765, 0.37599339408515275, 0.38102084481817916, 0.3861093838382008, 0.3912193879988365, 0.3963420681970959, 0.40148202890042156, 0.4066349069757564, 0.4118090063924899, 0.4170214985859371, 0.42222442263167165, 0.42744379767686375, 0.43262203566905677, 0.4378795568990755, 0.4431768306472794, 0.4484531020450971, 0.4537417593481915, 0.45901173466905415, 0.46432730390723126, 0.4696822906224392, 0.47501145076366974, 0.4803504290663338, 0.485659873874884, 0.4910212241217832, 0.49633518868305176, 0.5017137745409128, 0.5070939905592396, 0.5125652323817944, 0.5179370658162257, 0.5232357458866378, 0.5286288795243667, 0.5340216672805489, 0.5394035896296159, 0.5447958580627726, 0.5502022554338017, 0.5555877615252917, 0.560971136462462, 0.5663801947028199, 0.5717537168491208, 0.5770555268089729, 0.5824316972110776, 0.5877995250846215, 0.593140334526845, 0.5984926102026611, 0.6038199873407066, 0.6091523479273249, 0.6144724096563706, 0.6198224880927882, 0.6251113225536608, 0.6303441672818613, 0.6356152533738231, 0.6408707713993005, 0.6461223771170023, 0.6513435346213142, 0.6564951696637737, 0.6616889476585732, 0.666861560145019, 0.6720573696798307, 0.677180800675478, 0.6822659541297065, 0.687350832697613, 0.6924128752887351, 0.6973801351470518, 0.7024031686044149, 0.7073969998481444, 0.7123613787552879, 0.7172959720923578, 0.7221658018583844, 0.7270439058247439, 0.7319356411830135, 0.7367412435357518, 0.7415156354916623, 0.7462213780231503, 0.7509354553638031, 0.7555954136190446, 0.7602395881236655, 0.7648457075962511, 0.7694152847674662, 0.7739434216922195, 0.7784237687839006, 0.7828729458408717, 0.7872806233976747, 0.7916928998432289, 0.7960096125962044, 0.8002345001530967, 0.8044745357754902, 0.8086684943090588, 0.8128116379015624, 0.8169119183621643, 0.8209333041210521, 0.8249399539176779, 0.8288686354912312, 0.8327750684087846, 0.8366274511606492, 0.8404091503949286, 0.8441543354577659, 0.8478351570689933, 0.8514685205104149, 0.8550443591614041, 0.8586191818408988, 0.8620714296320368, 0.8654353760154876, 0.8687791898145696, 0.8720634008191942, 0.8752445971851429, 0.8784128720468417, 0.8815556410660578, 0.8845903630204621, 0.8875623045682799, 0.8904259551472617, 0.8932756818663161, 0.8960212173130407, 0.8987400079703518, 0.9013883431949185, 0.9040026672984656, 0.9065049234988474, 0.9089076208302453, 0.9112750084284519, 0.9135703972817363, 0.9158218848931173, 0.9179685315077011, 0.9200496809414428, 0.922051689003244, 0.9239811124253472, 0.9257843869494956, 0.9275732721057242, 0.9293191651604987, 0.9309483528270769, 0.9325014844762989, 0.9339576890785701, 0.935359687029651, 0.9367195271792799, 0.9379590454545775, 0.9391211962616945, 0.940170781855059, 0.941180724269004, 0.9421095884183298, 0.9429571334648454, 0.9437231177248495, 0.9444276364518575, 0.9450272106417, 0.9454968514800136, 0.9459399521927941, 0.9462984381570816, 0.9466150747571609, 0.9467990930027512, 0.9468847480077128, 0.9469063001592056, 0.9468442108577766, 0.9467044435528345, 0.946473903588226, 0.9461413973725574, 0.945745704524443, 0.9452650668573511, 0.9446914055425297, 0.9440420778437051, 0.9433054981090694, 0.9424861313027304, 0.9415817149779482, 0.9406107135545027, 0.9395343751832835, 0.9383643470934812, 0.9371222825934588, 0.9357962172515597, 0.9343863193926016, 0.932892773969899, 0.9312974812614818, 0.9296395794012805, 0.9278976637755663, 0.9260965416104548, 0.9241847280277716, 0.9221691206434107, 0.9200975042163931, 0.9179436757256022, 0.9157223302576869, 0.9134036661967699, 0.9109683902832305, 0.9084947116830027, 0.9059397430712425, 0.9033184380669484, 0.9006012346514681, 0.8977649948718025, 0.8948967831694744, 0.8919490953537343, 0.8889696346177879, 0.8858598487141726, 0.8826372934954159, 0.8793846188362429, 0.8760566564073493, 0.8726766408787058, 0.8691978642939178, 0.8656028954826613, 0.8619875400570025, 0.8582995881271055, 0.8545868895078612, 0.8507510435050033, 0.8467995940820878, 0.842836971834582, 0.8388061472531306, 0.8347306022061968, 0.8305638679930328, 0.8263253493190432, 0.8220332409870643, 0.8176788383944271, 0.8132631385265671, 0.8087871475584565, 0.8042498482831462, 0.7996565922819738, 0.7950060138498687, 0.7903215498832703, 0.7855567126705564, 0.7807634479393228, 0.7758907877809044, 0.7709685474835462, 0.7659609177934062, 0.7609465849874899, 0.7558607953706513, 0.7507523588419924, 0.7455960735437606, 0.7403872771435868, 0.7351403661096517, 0.7298820745171175, 0.7245446654305148, 0.7191680519999722, 0.7137371287740641, 0.708287675026419, 0.7027874241602987, 0.6972680029336842, 0.6917139372990379, 0.6861023012041788, 0.6804864505781734, 0.6748613525131536, 0.6691810840310712, 0.6634737100838877, 0.6577406353264664, 0.6519832621447254, 0.646160286651285, 0.6403639170197972, 0.634545051224386, 0.6287339004761946, 0.6228716244323114, 0.6169772822254245, 0.6110868647923963, 0.6051825284409899, 0.5992861321265858, 0.5933559392334689, 0.5873910511385192, 0.5814489944643589, 0.5754998258516411, 0.5695552510485324, 0.5635951663620767, 0.5576330944586068, 0.5516704351955215, 0.5457085828891495, 0.5397672285853741, 0.5338088383365233, 0.5278442331256166, 0.5219005854218344, 0.5159647068906652, 0.5100094776622943, 0.5040967840337639, 0.49819023567850934, 0.49230004992929205, 0.4864229532532716, 0.48057268509537104, 0.4747248055745406, 0.468870815733442, 0.46306395439552644, 0.457276697345913, 0.4515085259908309, 0.4457652409042676, 0.44011705207240487, 0.4344140350833387, 0.4287417479069378, 0.4230298030035463, 0.4174303763653624, 0.41183372813665725, 0.4062975403389257, 0.40079197299185904, 0.3953775919080863, 0.3899305215276536, 0.38446502713318204, 0.3791031216407249, 0.37377841112900184, 0.36848416281518465, 0.36323901954559046, 0.3580570253141604, 0.3528919245981149, 0.3477714273930764, 0.34268232606136456, 0.3376558925914145, 0.3327128757231656, 0.3277765088186422, 0.3228911104931824, 0.3180106117770774, 0.3132351751610906, 0.30851833037295, 0.30384386066054403, 0.29923665007462086, 0.2946673463333634, 0.29015366356920474, 0.28567803069992137, 0.28128007683489376, 0.27694495057953544, 0.2726604972538708, 0.26843471052043755, 0.26428455189797145, 0.2601760910743915, 0.2560824291221699, 0.25210349822614364, 0.2481844512169895, 0.24432204689370762, 0.24052569867944482, 0.23681977433158513, 0.23314442096054333, 0.22953393678481673, 0.22598053780830574, 0.2225018503066504, 0.2190824627922335, 0.21573570041479012, 0.21245467169772586, 0.20921938402413023, 0.20607338786950477, 0.20304374881616896, 0.20002276702696972, 0.19707091634012489, 0.19414945556313026, 0.19134044537456293, 0.1886184321688931, 0.1859403853997459, 0.18333052310512202, 0.18077051003517017, 0.17829921281288214, 0.17588271689935547, 0.17354702544417797, 0.171277729535995, 0.1691115145318716, 0.16697057851843383, 0.16487786144664013, 0.1628762577377944, 0.16094136740213372, 0.15903029123447998, 0.15723361534456834, 0.15553922657644706, 0.15386503119916045, 0.15225671798590112, 0.15070984276178678, 0.149232655550196, 0.1478056922974532, 0.1464588146479699, 0.1451747562353677, 0.143938939472147, 0.14278125317993381, 0.14171698383988482, 0.14067660731806886, 0.1396982170873548, 0.13873638641466327, 0.13788555087642135, 0.13713887001410907, 0.13639652979501146, 0.13571342870030734, 0.13507449313893385, 0.13450915321877413, 0.13394889507013358, 0.13350109391231949, 0.13310488098138604, 0.13276396504165008, 0.13246927098493316, 0.13223935371715698, 0.13204336359280086, 0.13189750496111627, 0.13180912319819177, 0.13176010521550516, 0.13173279236881502, 0.13178246884077752, 0.1318769276553207, 0.13202152415634874, 0.13220250157021265, 0.13243642243166245, 0.13270076452114277, 0.13300662715066716, 0.13333264681457035, 0.13372102811164294, 0.13419344832715865, 0.1346495592843787, 0.13514375262887737, 0.13564623904628165, 0.13621626208506737, 0.1367985451471196, 0.1374353047923752, 0.13810145648412142, 0.13885509031439378, 0.13956989194017907, 0.14023332029764035, 0.1410169086499338, 0.14182306714918272, 0.14270802527911744, 0.14354994496042733, 0.14442755725215806, 0.14531361475569304, 0.14622126550832365, 0.14711051300178668, 0.14806218898762502, 0.14899676504856374, 0.14998246453427277, 0.1509798316133911, 0.15202270618095742, 0.15303680250033133, 0.15404998827365293, 0.15508708444644032, 0.15613254250907085, 0.1571955137598831, 0.1582533542002532, 0.15929265751910157, 0.16036420174979465, 0.16143802502927582, 0.16250916074111948, 0.1635853424969365, 0.16465676615489083, 0.16573117530481932, 0.166802843683173, 0.16790951563879378, 0.1689681270652093, 0.16997871889102445, 0.1710351956151671, 0.17208345823934795, 0.17311863890210907, 0.174148572244213, 0.17521032942666273, 0.17621230338265784, 0.1772041877051413, 0.17818482608222566, 0.17915310136360726, 0.18008759816701322, 0.18103051441668863, 0.1819567918323578, 0.18285544828281525, 0.1837473013958593, 0.18459919978241945, 0.18545368775705803, 0.18628602219661725, 0.18710380993654305, 0.18788921227715336, 0.1886268928346135, 0.1893681158678289, 0.19008340024269782, 0.19079265870025303, 0.19145220828232062, 0.1921120784441356, 0.19271542590867108, 0.19329289802632071, 0.19383758114732907, 0.1943616767643038, 0.19486537367006787, 0.19533073157387293, 0.19576675732443313, 0.19614026661474507, 0.1965198370969618, 0.19687861952146152, 0.19719039094396412, 0.19746930353231784, 0.19771701917344517, 0.19792885899304444, 0.19806418594629038, 0.19821347285844856, 0.19832590325411154, 0.19844422946855209, 0.1984776684444264, 0.1984279233256533, 0.19839842579561184, 0.19833114308262817, 0.19821804658936387, 0.19807652026401357, 0.1979458227013968, 0.19772229963163687, 0.19746377764169298, 0.1971597964362378, 0.196831724975048, 0.19647749369629197, 0.1960753871915819, 0.1956373609253234, 0.19515312231598558, 0.1946442028319027, 0.19407615352877874, 0.1934965990853766, 0.1928791659742637, 0.19224040245861673, 0.19154599296034722, 0.19078291748114845, 0.1900205132789338, 0.18922047307868964, 0.18843001923503802, 0.18755013245010804, 0.18662231616148667, 0.18567688491137704, 0.18469709212416613, 0.1836770782142046, 0.18263008018873647, 0.18155323770485535, 0.1804382602393378, 0.17926186073427763, 0.17808493375143591, 0.1768741865828958, 0.1756485429399083, 0.1743696961767489, 0.17308632895619736, 0.17174267670879673, 0.17037046636504422, 0.16893132664212543, 0.16750772422422522, 0.1660705803491394, 0.16458599062995896, 0.1630738768005036, 0.16156529031392247, 0.15999592921467345, 0.15836990280396798, 0.15675674007269777, 0.1551183481138649, 0.15345337770811338, 0.1517668408041702, 0.15003872194404733, 0.14830865049781833, 0.14655569645829347, 0.1448254603814426, 0.14302365601011005, 0.14121418953883774, 0.13937590135033037, 0.1375213113343224, 0.13566510011811733, 0.13377748296446623, 0.1318432769328707, 0.12993210767718127, 0.12800597985216142, 0.12611244721160264, 0.12415283759426465, 0.1222137521432157, 0.12023074146511983, 0.11824034007606415, 0.11620010445428149, 0.11420117379951125, 0.11220767504787896, 0.11019013028589675, 0.10816617167257125, 0.10616699222894026, 0.10412843684973477, 0.10212797278058432, 0.10007960845232584, 0.09803197476879691, 0.09598735059242307, 0.09394173026469338, 0.09190807007182233, 0.08986517402059223, 0.08782554414266618, 0.0858140259220961, 0.08377922234947194, 0.08184813980491915, 0.07981359688548618, 0.07779146333909369, 0.075755009124279, 0.07376029714277003, 0.07184721390573581, 0.06986471110262443, 0.06789732927556238, 0.0659551008215936, 0.06401639582282866, 0.06212587831582887, 0.06021448099075889, 0.0583208975758343, 0.056439067558921634, 0.05458210982924007, 0.05279998868897613, 0.05097199528849983, 0.0491658974886533, 0.04742036374699003, 0.045653368308454144, 0.04390879364273227, 0.0421909568525372, 0.04049755224566423, 0.038834888578598445, 0.03719027956808672, 0.035642467756793667, 0.034040467806465476, 0.03246886487603838, 0.030970255153278763, 0.029453831206761462, 0.027984425690351675, 0.026531606172063897, 0.025112157805661204, 0.023758554636413947, 0.022401647454567283, 0.021098341219693815, 0.01980965858434916, 0.018557280841682847, 0.017347284167851886, 0.01616676238181616, 0.015065779587111344, 0.013953690686014712, 0.012881223449692754, 0.011836114155083007, 0.01084433330165364, 0.009983062875445273, 0.009057976932741185, 0.008177598622637422, 0.0073008643957618415, 0.006513986241257377, 0.005811405489796157, 0.005102564578643621, 0.004438254060698301, 0.003818452118170422, 0.003243204682721318, 0.002747186030679421, 0.002257037410646497, 0.0018138345788824746, 0.0014520984364829125, 0.0010983300180749545, 0.0008300809808965486, 0.0005693489871002175, 0.0003593265797979349, 0.00015901730619277343, 5.4670231770041205e-05, 1.0233707974264857e-05, 0.0, 3.8653117847831595e-05, 0.00015279943146421214, 0.0002864153596821121, 0.00047910512377514445, 0.0007135791513437017, 0.000999498683105659, 0.0013185672445398294, 0.001709739939320674, 0.002194141466057228, 0.0026811948276669792, 0.0032216311266947515, 0.0037949985760218122, 0.004444460434361527, 0.00515202200009955, 0.005904853059232045, 0.00671031195448149, 0.0075928956253666835, 0.008500811364703837, 0.009479284610404603, 0.010493624560024955, 0.011562994893056561, 0.012707544274681366, 0.013883875069207302, 0.01510777243720431, 0.016396263877032476, 0.017739499962978637, 0.01912921537913175, 0.020582596668747937, 0.02206552875526439, 0.02362988817982994, 0.025246805947022943, 0.026949004479560407, 0.028667456824679038, 0.030400105214109522, 0.032233285955079856, 0.03411876514749813, 0.03607097446181837, 0.038059806483105495, 0.04009815732801254, 0.04219466023476454, 0.04434447608020935, 0.04657403036500535, 0.04882708012674156, 0.05112467534149842, 0.05348816430504812, 0.05590526161863641, 0.05835342800811608, 0.06088005734542584, 0.06349309181905428, 0.06611902070444711, 0.06879870062558131, 0.07149520068724421, 0.07428604183411665, 0.0770889951433099, 0.07998621810141063, 0.08293198690636919, 0.08594282004314636, 0.0889843094836979, 0.0921449615873184, 0.09527769607540428, 0.09846418723785376, 0.10166309031472019, 0.104960258291977, 0.1082744647364651, 0.1116746640584734, 0.11512213566850273, 0.11865145745252649, 0.12218908305629246, 0.12574735121184114, 0.12938641489196653, 0.13307222307304353, 0.13678225322141493, 0.14056389091711394, 0.14447995384121834, 0.14834012738920618, 0.15225013074659074, 0.1561298052170426, 0.16014699882426411, 0.1642498805582656, 0.16834757370848114, 0.1724253965423545, 0.17662123475274208, 0.18085765367419485, 0.18516317181352848, 0.1894772397465503, 0.19385379605654382, 0.19824925673811344, 0.2026873119566592, 0.20712065398166005, 0.2116482104641677, 0.21622228143721284, 0.22082542675329145, 0.22546707955611597, 0.23014491586432417, 0.23486294202532645, 0.23958383982645007, 0.244380771287884, 0.24921248192145465, 0.25410325804839445, 0.25900103885745274, 0.2639385300647016, 0.268906623972857, 0.2739096552877319, 0.2789226995881278, 0.28399711684222867, 0.28908724217528325, 0.2942273189978188, 0.29939772719106483, 0.3045798852167459, 0.30981238927213095, 0.31508747097045775, 0.3203746130962118, 0.32569035194083845, 0.33105863366035215, 0.33642708495617757, 0.34176508407860245, 0.34719730963831136, 0.35265330365860287, 0.3581490940883012, 0.3636497918352093, 0.3691559883614775, 0.3747060811193761, 0.38027788210730584, 0.38586080389132227, 0.39147600985481984, 0.39711098393832006, 0.4027652848024306, 0.4084384330505366, 0.4141258478820915, 0.41983563316002726, 0.42553597068320803, 0.4312825104927461, 0.4370433987152446, 0.44282840005364227, 0.4486154423921627, 0.45442012263459003, 0.4602331776039399, 0.4660587774186449, 0.4718840264305684, 0.47773415983187606, 0.4835899574697121, 0.48945942894790523, 0.4953371023703494, 0.501193857237779, 0.5070895587624035, 0.5129817108143829, 0.518887125487036, 0.5247956534211288, 0.5307250908919259, 0.5366359692952747, 0.5425493408062424, 0.5484644310730038, 0.5543804514763123, 0.5602477953856314, 0.5661694313308505, 0.572078686942967, 0.5779924191188065, 0.5839005117666253, 0.5898431531796432, 0.5957333220571107, 0.6015575222125488, 0.6074445241268227, 0.6133212290198768, 0.6191749724118745, 0.6250311771244611, 0.6309033083097068, 0.6367303013797792, 0.6425452431699329, 0.6483411748616938, 0.6541301956035002, 0.6598899692851711, 0.6656499161110463, 0.6713923371759027, 0.6770737629359617, 0.6827842106476283, 0.6884418613399746, 0.6941110856834415, 0.6997552579846683, 0.7054329880780766, 0.7110184313119151, 0.7165198072622168, 0.7220657924975403, 0.7275831955840805, 0.7330734959857694, 0.7385317582128058, 0.7439556578787664, 0.7493531200168457, 0.7547185739795159, 0.7599943188139037, 0.7653006381719866, 0.7706019111612074, 0.7758285594138217, 0.7810185905828806, 0.7861569696429378, 0.7912731368195073, 0.7963534712594977, 0.8013885632295641, 0.8063824289228833, 0.8112874427960556, 0.8162021883630293, 0.8210948678407864, 0.825913062841281, 0.830685045712923, 0.8353855819426337, 0.8400657104152134, 0.8446896046306613, 0.8492695516615235, 0.8537976165514966, 0.858226325887928, 0.8626544031723951, 0.8670644147456552, 0.87137379250386, 0.875627753996878, 0.8798112226156761, 0.8839536144381916, 0.8880087638542753, 0.892036455869035, 0.89600225120287, 0.8998994913759362, 0.9037405515414793, 0.9075175857935224, 0.9112299828378727, 0.9148771012307724, 0.9184196367143616, 0.9219390618122114, 0.9254072827838621, 0.928784974394186, 0.9320933242239902, 0.9353398222915986, 0.9385065105104485, 0.9416104680135823, 0.9446336487984713, 0.9475849248211319, 0.9504350177168153, 0.9532436719098962, 0.9559622055029454, 0.9586203525306554, 0.9612007317207567, 0.9637252700856509, 0.9661459392704553, 0.9684887144962779, 0.9707529266683326, 0.9729379207327014, 0.9750288217950509, 0.9770552752770436, 0.9789530683303754, 0.9808211820329316, 0.9826038334951278, 0.9842948306870621, 0.9859070152374907, 0.9874391088182589, 0.9888779952466128, 0.9902307164999878, 0.9915092288833327, 0.9926873294545346, 0.9937466437360919, 0.9947559894348289, 0.9956765299061284, 0.9965610508473808, 0.9972970167646297, 0.9979142953185726, 0.998481518580663, 0.9989597004953938, 0.9993811746234766, 0.9996765607094353, 0.9998414504045543, 0.9999662240448491, 1.0, 0.9999387189030211, 0.9997910379216779, 0.9995826629614635, 0.9992487813793425, 0.9988255196274508, 0.9983106596075388, 0.9977083795887506, 0.9969632938424681, 0.9961877761349189, 0.99531927886876, 0.9943785719730979, 0.9933228265784535, 0.9921968230139685, 0.9909575401290722, 0.9896292587155607, 0.988177490955831, 0.986675865923073, 0.9850938210539281, 0.983410197448743, 0.9816354457047692, 0.9797742691297079, 0.9778246552316987, 0.975791094225892, 0.9736653743339496, 0.9714446223443105, 0.9691465696605132, 0.9667620524131023, 0.9642692434153662, 0.9617162644150433, 0.9590955344588756, 0.9563689007047187, 0.9535587656091028, 0.9506901411589183, 0.9477117642254539, 0.9445921320871287, 0.9414614407950161, 0.938248059804124, 0.9349815044914517, 0.9316022607183649, 0.9281836417395554, 0.9246442547241016, 0.9210305777503758, 0.9172963354524737, 0.9135415399854163, 0.9097094576701292, 0.9058054506454837, 0.9018281541260809, 0.8977684604578322, 0.8936490540719689, 0.8894894824095831, 0.8852260382653139, 0.8808959471310318, 0.8764919827213874, 0.8720323816904068, 0.8674861260551515, 0.8629018471449366, 0.8582541769922577, 0.8535321983679196, 0.8487631374873315, 0.843946046361829, 0.8390563574052373, 0.8341098666250635, 0.829107835138686, 0.8240515304004741, 0.8189462941175327, 0.813784760290757, 0.8085730293842882, 0.8032798315781845, 0.7979756346370359, 0.7926313892891365, 0.78723136627676, 0.7817867326257063, 0.7763030210435484, 0.7707730425777788, 0.7651603570829307, 0.7595571920494726, 0.7539144674212447, 0.748246150857694, 0.7425280237692208, 0.7367741730967408, 0.7309904858323892, 0.7251761049805766, 0.719348850360836, 0.7134756668081965, 0.7075630855607813, 0.7016427639529056, 0.6956992646725876, 0.6897605427983542, 0.6837718960791961, 0.6777477922601483, 0.6717284397851512, 0.6656935085256853, 0.6596444791853255, 0.653582832856945, 0.6474998831737343, 0.6414187327904534, 0.6353288392147077, 0.6292175304488484, 0.6231166281078641, 0.6170515116378077, 0.61093734351252, 0.604823843418322, 0.598655347269756, 0.5925542291432574, 0.5864524348201933, 0.5803560750107604, 0.5742644874752328, 0.5682017596136003, 0.5621220037506091, 0.5560207778888142, 0.5499686977597839, 0.543928705294137, 0.5379228066181798, 0.5319093879968414, 0.5258957847631576, 0.519922304340058, 0.5139686791788692, 0.508058787476801, 0.5021465402208293, 0.49626390487872046, 0.4904034726563184, 0.48457128838726926, 0.4787543144157087, 0.47298401529283046, 0.4672284804679839, 0.4615236047199143, 0.4558514304046463, 0.45020724825953173, 0.44460538617272133, 0.4390318162420636, 0.43350517202781425, 0.42801713319048224, 0.42259953124099114, 0.417188788623946, 0.41179171952114896, 0.40647414933323395, 0.4012009620645682, 0.3959794519770753, 0.3907978007841863, 0.3856704404284723, 0.3805854301918182, 0.3755509879771557, 0.37054567135912525, 0.3656179521868888, 0.3607239596882671, 0.3559036539278131, 0.3511363895917639, 0.34645377270912886, 0.3417919840758688, 0.3371819839140864, 0.3326374365869388, 0.32815180056673926, 0.323748147633528, 0.3193795884289238, 0.3150508582874715, 0.3108099702150257, 0.30663091510564244, 0.3024939757966893, 0.29844298346910875, 0.2944544500270419, 0.29052906995539973, 0.28666748888216625, 0.28286827221466504, 0.27913629846933224, 0.27548390921082516, 0.2718813216353745, 0.26834581451381745, 0.26486547736092386, 0.26146652201818515, 0.25812256049076887, 0.2548598537615544, 0.25166425193452513, 0.24851169360377398, 0.24545436371849652, 0.24251042594872224, 0.2395808260977266, 0.23672121217752312, 0.23388471302774508, 0.23117067531367347, 0.22849722982933893, 0.22592083120463224, 0.22341039565939147, 0.22098659221106703, 0.21860643157891957, 0.2163510793717914, 0.2140994027082836, 0.21191863700224933, 0.2097166739761668, 0.20768752213126504, 0.20575900145902412, 0.2038534534494773, 0.2020142578305104, 0.20020656542909515, 0.19850357335558058, 0.19693522562673724, 0.195350071092759, 0.1938321088603846, 0.19234596704385162, 0.1909643704873824, 0.189657863648434, 0.18840001262693715, 0.1872047295884597, 0.1860449366706068, 0.184976193196235, 0.18398080198156797, 0.1830280219081741, 0.1821341741274376, 0.18129249272872924, 0.18051526315567715, 0.1797843947613495, 0.17912082857866057, 0.17851183449016264, 0.1779506625601616, 0.1774496023040839, 0.1770108921551676, 0.17661221525830925, 0.17626486575430017, 0.17596800028684617, 0.17572075598441708, 0.17553445280953456, 0.17538224658284518, 0.1752715499994819, 0.17521430652446296, 0.175202269846435, 0.17519581637029727, 0.1752761104873755, 0.17540458997690322, 0.17556325399210854, 0.17576097034192442, 0.17601721450655983, 0.17628785288390822, 0.17658177859151294, 0.17692815171225526, 0.17730902579437374, 0.17769289583722916, 0.1781436061840346, 0.1786464193353364, 0.17915296527946373, 0.1796888501501738, 0.1802367403668285, 0.18083015207401298, 0.18148332877903958, 0.18212179157089908, 0.18278543065915173, 0.18348108980215191, 0.18419019755540716, 0.18489874444985413, 0.18565298611650435, 0.1864251804940158, 0.18718373476952013, 0.1879924190543493, 0.18884863590994283, 0.18967802116992347, 0.1905205728481641, 0.1913873036576277, 0.19225109052190348, 0.19309875907371274, 0.1939852698902571, 0.1948781291666481, 0.19579260804887882, 0.19669310982085486, 0.19759786591417003, 0.19850573620101, 0.19941559579928736, 0.20028363016226303, 0.20119955266222347, 0.20212601662196575, 0.20303202922829441, 0.2039336724717012, 0.2048239554789732, 0.20571495446527666, 0.20663109139988042, 0.20750232532068447, 0.2083662734300749, 0.20922181092564868, 0.21006784387339142, 0.21083213356555067, 0.211664991732128, 0.21248124169560464, 0.2133272447500438, 0.21410308801655512, 0.21485951981820658, 0.21560428444169272, 0.2163316867119254, 0.21702665773157778, 0.21771864809325442, 0.21841645721074607, 0.21906319783985215, 0.21968946281220642, 0.22023133464447195, 0.22082201946709354, 0.22141462516765026, 0.22194833682019913, 0.22245651274567405, 0.22292231920981723, 0.22337979028598917, 0.2238620077241984, 0.2242561294418336, 0.22462426235265323, 0.22496149412729968, 0.22527568093254416, 0.22554500271936953, 0.22580339163467433, 0.22603098901094054, 0.2262029421891633, 0.22637071340488713, 0.226515206084413, 0.22661461015843729, 0.2266807580465896, 0.22666863801232573, 0.2266731212768431, 0.22664105350474742, 0.22657255914079913, 0.22646773249237878, 0.22638764950083887, 0.22620263273488175, 0.22594622196887176, 0.22570010852578795, 0.2254181847961045, 0.2251491999029465, 0.22478932526344467, 0.22435760153846748, 0.2239357712802974, 0.223477787008113, 0.22299586179524858, 0.22246407765383716, 0.22189690683513977, 0.22129431134694535, 0.22065628235982504, 0.2199930071387304, 0.2192829116183854, 0.21853606004954534, 0.21775679479576648, 0.2169427646704402, 0.21608593919413427, 0.2152037491450742, 0.21430910722575278, 0.21335470294853612, 0.21236726359358887, 0.21128792907199642, 0.2102422548495892, 0.2091891621948147, 0.2080688119065793, 0.20691554541554583, 0.20573588700108592, 0.20451729761741183, 0.2032491336377396, 0.20197071859206098, 0.2006608317602817, 0.19929972361471232, 0.19793122011689898, 0.19652372189781867, 0.1950952723332296, 0.19363697975634964, 0.1921801243760722, 0.1906605984435012, 0.18907657382971463, 0.18751068771857723, 0.18591774365417085, 0.18431889949372454, 0.18267171337999, 0.18100508197211448, 0.17931095909891398, 0.17759476362790905, 0.17586928084832276, 0.17410916114869415, 0.17231520569634817, 0.17051820451384306, 0.16870186764248465, 0.16686484118199527, 0.1650121349928738, 0.1631501701343028, 0.1612623636889267, 0.1593590526901692, 0.15746936336308995, 0.1555334253134958, 0.15356728384996135, 0.1516103189008349, 0.14964138744019473, 0.14769167472386632, 0.1456970126494229, 0.14370028108472252, 0.14168898034457872, 0.13967083797062857, 0.13758941462048577, 0.13556632682330594, 0.133547013925381, 0.13150659072207072, 0.1294605159611962, 0.12748086814975362, 0.12541719037063365, 0.12329758927709318, 0.12124343728877102, 0.11918775379441514, 0.11715987291924328, 0.11510011035517126, 0.11306738124790482, 0.11101040219609311, 0.10895865721938285, 0.10690852604233793, 0.1048691422479806, 0.10289518813889242, 0.1008618423862122, 0.09883944680642694, 0.09681594723284168, 0.09481751036578195, 0.0928686321091807, 0.09088759560306021, 0.08892057418647428, 0.08694133681497603, 0.08500637054057404, 0.08313558283084059, 0.08122146298525894, 0.07932474392040495, 0.07743954383676653, 0.07557911601036198, 0.07379758709609645, 0.07196566061302029, 0.07015594464654316, 0.06838674368785289, 0.06661922683510238, 0.06490366832681499, 0.06317960809786757, 0.06148086675596683, 0.05985623906589533, 0.058202017758395855, 0.05656589806031319, 0.054969320715617914, 0.05345915826176068, 0.05191010460589616, 0.05039206453996037, 0.048892588179478856, 0.047437482009228565, 0.04613428783130955, 0.044723691920387755, 0.043350182465657715, 0.042004896895394175, 0.04070456912485487, 0.03944933092638536, 0.038217338385697554, 0.037020497198798664, 0.03591970482067819, 0.034785214152590366, 0.03372176204090146, 0.032659792315650166, 0.03163752957261809, 0.030660662395089598, 0.029715926527852606, 0.02882255115858598, 0.027954446496122037, 0.02712598135486239, 0.02637164061252708, 0.025617900854663977, 0.024921963370483885, 0.024249061019812748, 0.023618337585499877, 0.023047937211232314, 0.02249885764620004, 0.022039492457474583, 0.021570269529346882, 0.021146447201479433, 0.02079815446546307, 0.020460245439413962, 0.020188924650992573, 0.019940570425787507, 0.019738940428517912, 0.019577557510706892, 0.019469104599889278, 0.01943462242459157, 0.019413470924954917, 0.019439265387967725, 0.019572773020044985, 0.01968409055439936, 0.01983507126565573, 0.020046768731849303, 0.020306690616726592, 0.020608436320519972, 0.02096474381312783, 0.02138042136952118, 0.021829441810608603, 0.022326186325181407, 0.02290510792439023, 0.023492612579571637, 0.02416206569793594, 0.02484397300330094, 0.025576558444404256, 0.02635121995280457, 0.02718485868381857, 0.028065489057842837, 0.028997222375169756, 0.02997747982561406, 0.031046807806364318, 0.03211862296904801, 0.03318807109845908, 0.03436719430285456, 0.03559313409889933, 0.03693110217270854, 0.03824284926165703, 0.039552569520003994, 0.040972269444306555, 0.04243905229807617, 0.04396318349108203, 0.0455231257187853, 0.04712080500991286, 0.0487778165273388, 0.05048210650879363, 0.05224389001049512, 0.05404157778335425, 0.0559482174209331, 0.05783400343135803, 0.059770997530398474, 0.06173218732269897, 0.06377326827082162, 0.06584827431204886, 0.0679872635420764, 0.07017320433253343, 0.07238365521102318, 0.0746661053487342, 0.07699808662529034, 0.07937104248567455, 0.08178984651821951, 0.08426670555914073, 0.08677566005544352, 0.08930873716278294, 0.09191335571354887, 0.09456291175447101, 0.09728590007922426, 0.10002178089633884, 0.10279606297617194, 0.10562576882303538, 0.10850101378125976, 0.11142770634699214, 0.11439268062389879, 0.11743142647401227, 0.12048316051855304, 0.12358131078189784, 0.12667457498538248, 0.1298706274149545, 0.13311707996470157, 0.1363966677274935, 0.13971901415848345, 0.14309013348665953, 0.1464969516124167, 0.14990386302862316, 0.15340149923900545, 0.15693917657082346, 0.16051908335398532, 0.16413700234841258, 0.1678055697393385, 0.17150317243117125, 0.17524180892753433, 0.17904371090050247, 0.18286115744949635, 0.186677726880913, 0.1905838643054191, 0.19452871517802492, 0.19856515014550152, 0.2025807032540413, 0.20659919439679478, 0.21070226341342815, 0.21484372613697456, 0.21898275361538222, 0.22320565589173444, 0.22748855022290135, 0.231779669656654, 0.23610794238855667, 0.24048946335849541, 0.24488944630447598, 0.2493330206459112, 0.2538068579353175, 0.25831781910614515, 0.2628329668680475, 0.26742109612063186, 0.2720494450269333, 0.27670492272074515, 0.28139459819387436, 0.28612638645286853, 0.2908827549230343, 0.29561613243248486, 0.3004472668507143, 0.30530848858063037, 0.3102141500257696, 0.3151340377423636, 0.32005854940167006, 0.3250437350376035, 0.3300581355930072, 0.3350915700854429, 0.34016559366228344, 0.34530263904586106, 0.3504291193698954, 0.35558579200254437, 0.36074170728839633, 0.3659612765834321, 0.3712120380021698, 0.3764851265907301, 0.3817851007628158, 0.38712994726136996, 0.3924804085590409, 0.39783539718474553, 0.4032419509167411, 0.4086730883909588, 0.4141426955894176, 0.419620131557776, 0.42508930104050546, 0.4306188663107039, 0.436169822199222, 0.4417663013089317, 0.4473561074301625, 0.45291895483729255, 0.4585580609645811, 0.4642151438823555, 0.4699123951128033, 0.4756020189294728, 0.4812552856890177, 0.4869884500140681, 0.49273606598651104, 0.49855294871388833, 0.5043221842348596, 0.510092210934918, 0.5158969017435622, 0.5217163006746359, 0.5275518571808843, 0.5333986490135867, 0.5391750942898984, 0.5450578465042989, 0.5509476598864003, 0.556875049680038, 0.56277507281169, 0.5686836382943219, 0.5746002626498915, 0.5805467936939736, 0.5864751095549272, 0.5924110766714583, 0.5983172969900117, 0.6042708092825457, 0.6102315941565983, 0.6161904943833997