0.07314338427081321, 0.07236311987076678, 0.07173350015909108, 0.07111030410539242, 0.07051926645248431, 0.06990280823194872, 0.06927843587101566, 0.0686737047336772, 0.06807213287270643, 0.0674899145802837, 0.06689117576583589, 0.06628196800929073, 0.0656902693469725, 0.06509997516554748, 0.06436080799337393, 0.06379189588577543, 0.06342581446743024, 0.06281680748287448, 0.06221447391302133, 0.0615947137377903, 0.061006548230861504, 0.06024500559689357, 0.059685808161690716, 0.059119649241570475, 0.05870124827280249, 0.0581053984638065, 0.05749789722523095, 0.05691386958921171, 0.0562065221309059, 0.05564531677956903, 0.055080246239032286, 0.0546390340576629, 0.05405294662398377, 0.05350267143445004, 0.052923999646980135, 0.05235212321190967, 0.05165975503020378, 0.05111602566476606, 0.05056396145094956, 0.05001844034530429, 0.04947218459599055, 0.048995849690235495, 0.04844098615734593, 0.047814175407209364, 0.04727842573996323, 0.04674286039275433, 0.04620463965185155, 0.045671293207182474, 0.045319409008088334, 0.04476626526518966, 0.04422521614454302, 0.04356164092551122, 0.04305827218837708, 0.042456316006361315, 0.04196888317229161, 0.04147787809890373, 0.041231215494202174, 0.04070485002242029, 0.040061425052394954, 0.039576337019749504, 0.03909460758667462, 0.03857293945495474, 0.03810362790322876, 0.037658809777812344, 0.03718924566909439, 0.03672292751387045, 0.03628002070711356, 0.03581809700981225, 0.03541766779417795, 0.034958088903301716, 0.0345063961431703, 0.03409547390283478, 0.03365397107050973, 0.03326769640925152, 0.032836770392941056, 0.032415946922517, 0.03200111092562868, 0.03159869191430841, 0.031207519185101847, 0.0308200562436912, 0.03043988540130703, 0.029933241855539434, 0.02958363674958488, 0.029246412241897318, 0.028894120863072026, 0.02854338417985457, 0.028108114868137975, 0.027773350850710338, 0.0274737495787729, 0.02713245599280526, 0.026793913218542936, 0.02653214607056885, 0.02619164059845558, 0.025986455042404103, 0.025646855095472803, 0.025322620164512102, 0.0250292933861313, 0.02473041085234972, 0.024444835739734626, 0.02417168927960582, 0.02391021585551461, 0.02344959310602986, 0.023236203094013173, 0.02309777168215965, 0.022872443570577154, 0.02265212730337645, 0.022604055526902395, 0.022373909698810823, 0.021949123238100665, 0.021775602278620694, 0.021603913295363097, 0.02153172945100553, 0.021354146889843037, 0.021072881400266617, 0.020929006301594107, 0.020788279907686807, 0.020925091696459005, 0.020758455031922658, 0.02051910717146144, 0.020404050424002656, 0.020301389688276328, 0.020290696979988976, 0.02020129096054372, 0.020147515720676388, 0.020085864646571343, 0.020039199527296762, 0.019919929408998522, 0.019911776369883658, 0.019888200867240788, 0.019899047948371603, 0.01991689062255523, 0.020048864043310008, 0.020068312223972623, 0.020131840014140787, 0.020175055173562384, 0.020233005954261467, 0.020351776246262547, 0.020431525596227587, 0.020396942270147322, 0.020523964501847847, 0.020658113694793638, 0.021023444460811443, 0.021145147086965518, 0.02114455499309384, 0.021325344771887928, 0.021516694703456473, 0.02176212063053848, 0.021969555514557877, 0.022200459385123245, 0.022433371006596495, 0.022679993804863477, 0.023083610593091355, 0.023339049495816853, 0.023495767359248697, 0.023807948858138042, 0.024132537203663797, 0.024469622572013527, 0.024819313518856825, 0.025365221833460728, 0.0257173080516924, 0.02609270405739004, 0.026356643416882014, 0.026791758103527658, 0.027265966067921133, 0.02772277393768511, 0.02819400372139276, 0.028833163434596864, 0.029313994159964427, 0.02989479691668369, 0.030411282668339697, 0.030953234181857, 0.03137577409261287, 0.03198273614463945, 0.03272355383763414, 0.03334313583006291, 0.033983812013556165, 0.03471831933637099, 0.03539005068675418, 0.03598195049591375, 0.03671301176693236, 0.037460165890052244, 0.03834371682064829, 0.03910849991699908, 0.039806705245453815, 0.0406291595997244, 0.04146875716647326, 0.04236244754345137, 0.0432324582152986, 0.043999018621545115, 0.044924589377956875, 0.04586321499137034, 0.04702611364041817, 0.04796730231154181, 0.04891950521280233, 0.049917281211663736, 0.050940128611648254, 0.05185408134090071, 0.052942474863765195, 0.05404048157942785, 0.05516308602653454, 0.05630312400234746, 0.05761477341353547, 0.05877235469863388, 0.05996460783812645, 0.061176645080987344, 0.06241576005153316, 0.06351125091154097, 0.06482444724432389, 0.06632723345272978, 0.06765176394489458, 0.06900413002534106, 0.07024032737276746, 0.07166493668648852, 0.07325137878202735, 0.07469543750938748, 0.07616750385847261, 0.07756034063860387, 0.0791005528890642, 0.08074495836497318, 0.0823167821874421, 0.0839151785542632, 0.08545321286362374, 0.08711517525312334, 0.08891513337498967, 0.09060539857703634, 0.09232459804578724, 0.09403558703410682, 0.09581602058274483, 0.09753210547013356, 0.09937541061753298, 0.10123945473101673, 0.10316170713422533, 0.10506482190466793, 0.10699614635220717, 0.10894883711025513, 0.11094374530657299, 0.11294557549176798, 0.11497421072265211, 0.11712974219522801, 0.11919935565622564, 0.12110458459457268, 0.1232631880040356, 0.12544170646823855, 0.12788132148360407, 0.13007212166151588, 0.13208540722602016, 0.1343739354487757, 0.13668410222373345, 0.13910005364860967, 0.14144509115785875, 0.14379172896511888, 0.14619655008471225, 0.14862783990988002, 0.1511890953740252, 0.15366046246709578, 0.15599414946091886, 0.1585511634316053, 0.16112959915910227, 0.16394038338299408, 0.16653724176085627, 0.16897245613107223, 0.17166337777213883, 0.17437617701409508, 0.17713151275862515, 0.17988737685912434, 0.18266458264601165, 0.18547047034393035, 0.18830129576674376, 0.19117392618730578, 0.19405303655974504, 0.1970785623162776, 0.19999505616808347, 0.20294447161228732, 0.205742269057451, 0.20877768013155645, 0.21196298154518128, 0.21502221716480446, 0.21810985807948985, 0.2211920099396829, 0.22433912340220535, 0.22741120933784803, 0.23062093907361747, 0.23384980049569695, 0.23712178944481546, 0.24038778457347887, 0.24371921347302342, 0.2470240191235395, 0.250353599271558, 0.253751034588923, 0.25712380952953157, 0.26055961419077056, 0.2639797672127319, 0.2674270601411354, 0.2708339058923023, 0.2743413912394319, 0.2777798024435955, 0.2813405369470176, 0.2849169126705984, 0.28849279295824026, 0.2921040852595757, 0.29586151272654887, 0.29948879020763663, 0.30314006809870475, 0.306844526249654, 0.3105375227078797, 0.3140803347301597, 0.31784090467893716, 0.32161319700096846, 0.32532104705511367, 0.3291280643416689, 0.3331640297859433, 0.33696158390491054, 0.34078179383086105, 0.3445767177403624, 0.3484445209132761, 0.35222547343279603, 0.35613885905311266, 0.3600617576819685, 0.3641044867920703, 0.368033073682206, 0.3719443976641067, 0.37590848908280555, 0.3798850269642864, 0.38388679250599433, 0.38788484642890947, 0.39190775152899765, 0.39592646168619255, 0.3999561011436192, 0.4037924124497574, 0.4078674060064225, 0.4120764970144303, 0.41612976999671525, 0.420189732857209, 0.42418581222824636, 0.4282664524690217, 0.43237828213128965, 0.4364574551437339, 0.4405393961584334, 0.4446904299808345, 0.448768239161327, 0.4528646034962267, 0.45695011212379555, 0.46103955159525817, 0.4648916541442201, 0.46901617564525766, 0.47325485729343936, 0.47733911189967343, 0.4814196391236611, 0.4854826714490765, 0.48955612055641434, 0.49362370357017654, 0.4976849922939643, 0.5017395155773956, 0.5056232924667176, 0.5096833894464263, 0.5136992269988833, 0.517728267551552, 0.5217394708876443, 0.5257400754396109, 0.529716279969264, 0.533849680918468, 0.537771414425783, 0.5416865390819157, 0.5455867898098516, 0.5494848402300828, 0.5532345757070846, 0.5571255325837761, 0.5609946909181535, 0.5649486903771734, 0.5687603133764524, 0.5723686958309805, 0.5761698923211304, 0.5799417998742816, 0.5838549312007749, 0.5875477074296802, 0.5911480252890127, 0.5948105558076383, 0.5984471690879029, 0.6020738589133201, 0.6056544491513581, 0.6092980206776258, 0.6128121651673991, 0.6163025421308332, 0.6198209530496942, 0.6232524136685716, 0.6265018593497295, 0.6299009769342433, 0.6332627340006705, 0.6366235955822173, 0.6399052424109388, 0.6430740096431767, 0.6462923943338099, 0.6494689888058146, 0.652553698612032, 0.6556528061687346, 0.6589304575856149, 0.6619114913234946, 0.664860274891487, 0.6677749592220275, 0.6706538361373061, 0.6733051653655414, 0.6761318473357592, 0.6789076482618824, 0.6818196588062976, 0.6844707735330364, 0.6870286176547973, 0.6896051863350415, 0.6921359592992963, 0.6944532639400104, 0.6969109802416581, 0.699354429911107, 0.7016919750230399, 0.7039753528432185, 0.7061911980727953, 0.7083678003598574, 0.7106426966031234, 0.7126894691823913, 0.7146894504042136, 0.7164410410066722, 0.7183685653598578, 0.7203208295509511, 0.7221138647942665, 0.7238506083459343, 0.7254939246775459, 0.7271214059119401, 0.7286324943653878, 0.730147637396685, 0.7315995782099342, 0.7331753776503358, 0.734477920638467, 0.7356548256409144, 0.7368606819114539, 0.7380073463734096, 0.7389874248000747, 0.7400273293028772, 0.7410869908578814, 0.741982292937947, 0.742759353065173, 0.7435382666667207, 0.7442514915188937, 0.7450725188188466, 0.7456324395295425, 0.7458861543245503, 0.7463642697598446, 0.7467696031256092, 0.7470863355004878, 0.7473506815451799, 0.7475435546917963, 0.747665635532383, 0.7477175061181257, 0.747849788533024, 0.747743668170341, 0.7476003865040541, 0.7473693772128661, 0.7470774512996121, 0.7465368865108889, 0.7461441659081043, 0.745691019254573, 0.7451499821687956, 0.7445376485292639, 0.7438713174947928, 0.7431160733966555, 0.7422587803139805, 0.7413706971277043, 0.7404126656476622, 0.7395820613395422, 0.7384608274405082, 0.7370686719046619, 0.7358584564709993, 0.7345766959183928, 0.7332876541094784, 0.7318573486727599, 0.7304482214135462, 0.7288760058540181, 0.7272434744242336, 0.7255668263439669, 0.7238102149656841, 0.7218129354029644, 0.719957745703096, 0.7180313809012049, 0.7162553410364477, 0.714162634242027, 0.7118079363497006, 0.7096303713925031, 0.7073847803452625, 0.7052525605328441, 0.7028517979864354, 0.700249841397813, 0.6977584215184697, 0.6952036663377877, 0.6925498897502268, 0.6898760974078778, 0.6870997929711931, 0.6843073037206903, 0.6814524215976533, 0.6786032692877901, 0.6756192753471423, 0.672530533120682, 0.669444080023612, 0.6663013694545953, 0.6632235430558844, 0.6599562119333026, 0.6565155925809879, 0.6531712284052845, 0.6497732635725051, 0.6463061841573011, 0.6428065806887983, 0.6394292863256913, 0.6358065866015353, 0.6321447644434498, 0.6282300052633937, 0.6245161686813941, 0.620774078545899, 0.6169558701044369, 0.613090845465657, 0.6091537166081714, 0.605202574167518, 0.6012505082336744, 0.5972067422469522, 0.5931239405206078, 0.5891131625272165, 0.5849412587694331, 0.5807560492687843, 0.5765221211797568, 0.5722593645159529, 0.5679412175603753, 0.5636246663556107, 0.5593118405089282, 0.5549324310245894, 0.5505265751611295, 0.5460346879159815, 0.5415850058588251, 0.5370670939749009, 0.5325672387716055, 0.528039251350349, 0.5235513259676011, 0.5189630082602272, 0.5143112201486935, 0.5096890005596586, 0.5050459111614809, 0.5003998604741015, 0.49571658938860774, 0.49085688479769013, 0.48616231085306666, 0.48144454811586, 0.4768760787099837, 0.4720972838657921, 0.4672113213212902, 0.4624315546581009, 0.4576402212598012, 0.45290548922689666, 0.4480868650174048, 0.4430977822120588, 0.4382936999488001, 0.43347813642807637, 0.4286599034658395, 0.4238268047783614, 0.41909868209288664, 0.4142431145643846, 0.409391876400029, 0.4046523311811068, 0.3997981026652588, 0.39495609823368755, 0.3901261453737522, 0.3853082002828896, 0.3802888217783526, 0.37552220871195047, 0.3708161887927616, 0.3660451365444852, 0.3612819948354351, 0.3566114876527504, 0.3518575276406549, 0.34704322790724484, 0.3423322507418062, 0.3376343949901706, 0.33295085113839745, 0.3282827643069652, 0.3237046329846707, 0.31906145155814003, 0.3144410432457944, 0.30979043572662573, 0.3052235829591614, 0.30085132727427605, 0.2963057232185492, 0.2917928446063467, 0.2872621561259607, 0.2828197275133549, 0.27843286366058095, 0.2740451283008088, 0.2696884569672374, 0.2651328645265274, 0.260868121658437, 0.2567057506105502, 0.2524706364842142, 0.24826346049988837, 0.2441788452823105, 0.2400192934990678, 0.23591302112429055, 0.2318248139555706, 0.22777468901560474, 0.22362605076841485, 0.21966998504510288, 0.21572832074836226, 0.211837919389025, 0.20798033368597543, 0.20434369725106266, 0.20053193819679105, 0.1965435608067042, 0.19285336941357087, 0.189196634693038, 0.18562154541195824, 0.1820301214951793, 0.17847212765989012, 0.17496245934048255, 0.17149386860603955, 0.1681637401983264, 0.16476692021070277, 0.1614650440999679, 0.1581584842030088, 0.15490221219754238, 0.15155218078451205, 0.14841292780364415, 0.14554457068693358, 0.14245840265021478, 0.13942734450739347, 0.13634341507945894, 0.13343255962019868, 0.13057761591587982, 0.12775736112193603, 0.12498369560672024, 0.1221732025508718, 0.11950323120248285, 0.11683512105704921, 0.11425467795227397, 0.1117151534953754, 0.10919403319971557, 0.10674170249164651, 0.10437453861517985, 0.10200103476501687, 0.0998499005615338, 0.09754530588845388, 0.09529645499875365, 0.09295520090663915, 0.09083246248388419, 0.08872352479909558, 0.08669242060984433, 0.0847037778602358, 0.0828580091741373, 0.08094254526140371, 0.07915265874494028, 0.07732450376903055, 0.07554818062894078, 0.07365566327502193, 0.0720005466833554, 0.07055136518177663, 0.06895382694008782, 0.0674055150481506, 0.06575186688988817, 0.06431820121152812, 0.06301218482913486, 0.06164265044188623, 0.06031640079978913, 0.059096297832511094, 0.05784704191546358, 0.05660639315671193, 0.0554513848258825, 0.054337687571537695, 0.0531012541949864, 0.05208913671863253, 0.05129763594897194, 0.05032316793307604, 0.0493912346125071, 0.04833732218137878, 0.04750806064593087, 0.046729225931902596, 0.04595868873228526, 0.04522043484127986, 0.04445445727194131, 0.04378841308231203, 0.043394717786139056, 0.04275580895964324, 0.042159873720998886, 0.04156500200846693, 0.04105459317804142, 0.04057970764114345, 0.04013918972480504, 0.03973195202580296, 0.03929024550992682, 0.03895498100274248, 0.038512886283758034, 0.03824738221557987, 0.03800028919565222, 0.03799246705733334, 0.037756222112449056, 0.037515614684365504, 0.037347157695354065, 0.037206036204529176, 0.03705452432821741, 0.0369696779895564, 0.036973888314136436, 0.036924673895352346, 0.03690033934080704, 0.03689641331064419, 0.03691892165836229, 0.03691954156457177, 0.03698957008396192, 0.03707683934120282, 0.037197539599451976, 0.03731570388887186, 0.03724371474080511, 0.03742076424813154, 0.03760161897047218, 0.03794411816886952, 0.03811568192348442, 0.038389139186965876, 0.03857928859090753, 0.03878796377134447, 0.039043765018680274, 0.03928152034833359, 0.03931531689297563, 0.03961197305073764, 0.03990981882879622, 0.040452970825054745, 0.040724005159638886, 0.040824423450445665, 0.04114975837119043, 0.04147748932719882, 0.041790980967761564, 0.04212568436165193, 0.0426052507208502, 0.042924639568116214, 0.04325343871713317, 0.043560360352084784, 0.04390808435166282, 0.04425001599084706, 0.04460667948214802, 0.04496552462931468, 0.04531928514118588, 0.04568158241602882, 0.04596058083264988, 0.04633316840863541, 0.0467002658412913, 0.04700205736501181, 0.04736640175824445, 0.04770570710945357, 0.04805597292440025, 0.048397892719553796, 0.0487619475130716, 0.04908464238861972, 0.04933168471784257, 0.04965198719971613, 0.049962594918052224, 0.050507467614425074, 0.0507690567996437, 0.0508320894453066, 0.05112750398539396, 0.051413016760100023, 0.051832250900500025, 0.052080272815038256, 0.05217332704374415, 0.05243661103342578, 0.052687621015150225, 0.05291331843142754, 0.053142322315666665, 0.05346579552073429, 0.053656972378688515, 0.05384228934968093, 0.054104434521862234, 0.05426540501655608, 0.05427645062118326, 0.05444850837544766, 0.05460692170878342, 0.054895380216932264, 0.05500903949893854, 0.054990942267258175, 0.05510965931683842, 0.055214389365050194, 0.05532539443927679, 0.055400329029898235, 0.05535296749529724, 0.05541742998588775, 0.05546354185367151, 0.05556893831629272, 0.05557125195638279, 0.05547184729058247, 0.05546226361616406, 0.05543597904621107, 0.05534367422165497, 0.05529239509215871, 0.05542702450500189, 0.055315710679883, 0.05519988790671672, 0.054878430642469535, 0.05477614324121085, 0.05477234269117533, 0.05461970379637978, 0.054457165316569335, 0.054261193365894404, 0.054081293543506825, 0.05393309262582808, 0.05372445318963919, 0.05350674912164569, 0.05339648513441314, 0.05314515336286923, 0.05278724348634748, 0.052541602258823226, 0.05228501101907212, 0.051904092453221064, 0.05164011940699617, 0.05139574573378602, 0.05109395807950188, 0.05077907785788556, 0.05053171401968961, 0.05018210698976997, 0.04985542764989279, 0.049487612805674375, 0.04911400280897963, 0.0487575886009826, 0.04836842092341476, 0.04789382283636397, 0.04750369780814902, 0.04710308209542364, 0.04665571057755461, 0.04624003210000552, 0.04596650879822352, 0.045509487742468956, 0.045051072858584514, 0.04448718934981347, 0.04403721133606755, 0.043545033326703945, 0.043082074156495835, 0.042609336899851205, 0.04221092712500535, 0.04171014126774328, 0.041242907661016216, 0.04073107814600095, 0.04021798036592496, 0.03963322986429478, 0.039125548786751715, 0.03861523411102983, 0.03809562167224778, 0.037571067523600274, 0.037208745380881876, 0.03665430359078654, 0.036185411078742145, 0.03563080002981692, 0.034900814003869046, 0.03438427271666562, 0.033863040377429404, 0.033384332082574485, 0.03284932187966599, 0.03242047351674251, 0.03187085811895843, 0.031326834782832165, 0.030714289631887146, 0.030188703212005057, 0.029909681925396718, 0.029352481187799487, 0.028809283464937413, 0.02816159382463436, 0.027656235132213606, 0.027093836418571184, 0.026601998753833872, 0.02610968431152888, 0.025750856602482223, 0.025242260670787876, 0.024725522737368406, 0.02423552902719255, 0.02375209020357656, 0.023234950205086282, 0.022769093664749187, 0.0223638160590714, 0.021898821725824535, 0.021441494202897256, 0.021218559262817644, 0.02074754823563785, 0.020226660298301898, 0.019803081435206694, 0.019392439961294788, 0.01910410894101406, 0.018703407945023363, 0.018293392549110978, 0.017929597755827305, 0.01757945393636727, 0.017312413391859717, 0.016979032559809037, 0.01660510147441413, 0.016310420200430584, 0.016027284845171907, 0.015668920495605056, 0.015419809305695465, 0.015264211863337766, 0.015018525518342768, 0.01478612583962842, 0.014547057107015872, 0.014343990482901924, 0.01412337424930272, 0.013949392747259147, 0.013786882794698429, 0.01367646611889084, 0.013533572092040251, 0.013459451487574962, 0.013340779562572297, 0.013240873801854416, 0.013172854970622315, 0.013108184395761998, 0.013022501020259607, 0.01300076627712478, 0.01299552483695676, 0.013073756536116511, 0.013093838622439506, 0.013171632953678613, 0.013228828587357577, 0.013308612457870897, 0.013477260905919162, 0.01359253396145441, 0.013636308410554427, 0.013813568501967365, 0.014009287702281348, 0.014447264840315074, 0.014652479032729232, 0.014676033912250927, 0.014970448124214575, 0.015281949854525537, 0.01569458058376415, 0.01603159313895886, 0.016362166588566526, 0.016750022891321225, 0.017159585743724705, 0.017671143317874335, 0.018114671004066763, 0.018558408967266838, 0.019058720045652493, 0.019583739428321593, 0.020116774843161614, 0.020693327269398754, 0.02146721792217242, 0.02206978784455656, 0.022706433729869014, 0.023409380034210805, 0.02410673051395885, 0.024850489938878884, 0.025611368730945473, 0.02640439905837569, 0.027182166179670834, 0.02804342335074697, 0.0289958892336596, 0.02990483023975417, 0.03084531425224128, 0.031770282511679314, 0.032778803711781095, 0.03375877355355076, 0.03483109043210915, 0.03592900839102201, 0.03718009838111862, 0.038315540832876575, 0.03933584368202281, 0.04055990261281561, 0.0418099357704137, 0.04302025851294049, 0.044333711730295294, 0.04573566362042974, 0.047092679743498185, 0.04848094308168632, 0.049984454656630845, 0.05142641571017156, 0.052755843283119504, 0.0542917787643413, 0.0558565445529918, 0.05747793637317964, 0.05910019750402589, 0.060919256921937025, 0.06258809539911528, 0.06430056495737604, 0.066015807143137, 0.06781824604296516, 0.0695164879046738, 0.07141540101692131, 0.07334521143911873, 0.0754104044295303, 0.07739202256375764, 0.07938654232141706, 0.08145066404089285, 0.08355279905633563, 0.0857265191447672, 0.08790108772077347, 0.09003275200485038, 0.0922987902022635, 0.09460052638023211, 0.096938609866684, 0.09931362919533637, 0.10186957221006732, 0.10430187645420855, 0.10678062456703992, 0.10933175216531071, 0.11189785995814357, 0.11445658140709876, 0.1171207450506167, 0.119826655514829, 0.1226176334678263, 0.12540143735411563, 0.12801918597000106, 0.1309174904429203, 0.13384754840531354, 0.1369109327588512, 0.13989614733860037, 0.1429761060704957, 0.14603754502404048, 0.1491438072748808, 0.1523346974630286, 0.15552489175089854, 0.15855806311700696, 0.161866491793382, 0.16520912313132785, 0.16877741013921757, 0.17216812752945515, 0.17556044370772791, 0.17905301908298374, 0.18259003790621703, 0.1860712740511632, 0.18970942082602468, 0.19353612917726923, 0.19723285705487198, 0.20097773744028252, 0.20455990048652017, 0.20842565327359702, 0.21248602557923107, 0.2164016875176963, 0.22036303540447025, 0.2241828392806499, 0.22825798966404737, 0.23243058604167136, 0.2365670046557361, 0.24074319830929208, 0.24506959008204904, 0.24931232787388247, 0.25364182022363835, 0.25797217316835386, 0.2623500165169855, 0.26660088289294614, 0.2710927587930948, 0.27578980304697776, 0.28033084027808497, 0.2849175833524166, 0.28932554510669706, 0.29402913745825604, 0.2988966494676974, 0.3036453409963617, 0.30834379444612614, 0.3131831707377281, 0.31805655874413186, 0.32284084253475204, 0.3277987236876987, 0.3327910287821167, 0.3378046023673389, 0.3428481659766486, 0.34807911328129687, 0.35316445756456183, 0.35836664719525474, 0.36352142168147317, 0.3687184646203052, 0.3738493834208495, 0.3791396629287049, 0.38453502443647763, 0.38987891660138047, 0.395257625724534, 0.4005565998772302, 0.40601596501443576, 0.41147052915467486, 0.41698405857142373, 0.4225208856116679, 0.42803097446985744, 0.43362064491423413, 0.4391804950235264, 0.4448170740336406, 0.4504712160526031, 0.45622996067823746, 0.46190900723370554, 0.46769767740471185, 0.47341070866190355, 0.4791498333214766, 0.48476336068502407, 0.4905690255205281, 0.49641120500243413, 0.5022400563244269, 0.5080829081147745, 0.5140059138735789, 0.5198665601950351, 0.5256096173589095, 0.5315175741594323, 0.5374313671906471, 0.5433141327246495, 0.549243621607529, 0.555386222791777, 0.5612948151894107, 0.5672176300408126, 0.5730090968895113, 0.5789722552741369, 0.5851290506511402, 0.5910673600336858, 0.5970152779403967, 0.6029504502495023, 0.6089132471526049, 0.6148612512519304, 0.620828144505229, 0.6267924967162709, 0.6327361323593832, 0.6386930777053862, 0.6444420380175017, 0.6504074319344686, 0.6563513367776493, 0.6623175332786824, 0.6682140199841604, 0.6741021429353662, 0.679960165461842, 0.6857993707459963, 0.6917424748851693, 0.6975262051144837, 0.7033390501892463, 0.7090868859306391, 0.7148191726725728, 0.7205071127857923, 0.726205455183983, 0.7316705516218457, 0.737347720609859, 0.7429868548073095, 0.7485480937474908, 0.7541165700285917, 0.7598616408672455, 0.7653222234131503, 0.7707546255270374, 0.7760167099917056, 0.7814044948504505, 0.7868771992578895, 0.7921645887994287, 0.7974158487315162, 0.8026558523205601, 0.807826100020896, 0.8129598068336148, 0.8180480407811217, 0.8230929907246182, 0.8279628384892536, 0.8329326172566629, 0.8378035231499069, 0.8426673133134405, 0.8474721588117057, 0.8522678418094652, 0.8569475879132393, 0.8616134905829002, 0.8661723889948033, 0.8706746117401561, 0.8750087409214823, 0.8794075859392712, 0.8837263428354287, 0.8879930317609587, 0.8921914320811976, 0.8962677591036742, 0.9003350341757432, 0.904516406207112, 0.9084144236491966, 0.9122497323892172, 0.915947060761193, 0.9196607104975227, 0.9231787816651312, 0.9267627707373285, 0.9302657335925533, 0.9338778653980596, 0.937194730371177, 0.940364307758739, 0.9435479870423813, 0.9466533732471206, 0.9495561007638188, 0.9525177493890208, 0.9554181604442897, 0.9582007237916603, 0.9608970471560475, 0.9634801886739888, 0.9660066018061669, 0.9684310419648524, 0.9707817294255766, 0.973042674872048, 0.9752470945438898, 0.9773238527551482, 0.9794222588266537, 0.9813076710011431, 0.9831097519875759, 0.9846803087079676, 0.9863302021936332, 0.9879847637804609, 0.9894312928365215, 0.9907882216798952, 0.9918979852886356, 0.993093308576511, 0.9943449334087084, 0.9953201261262314, 0.9962049030260772, 0.9969184444345611, 0.9976303401791724, 0.9983754257114713, 0.9988771597326105, 0.9992895247555624, 0.9993847323020429, 0.9996443789551375, 0.9999696513930343, 1.0, 0.999937755492291, 0.9995957430390292, 0.9993709554493786, 0.9990389180360646, 0.9986080836318105, 0.9980757408578028, 0.997469729413662, 0.9967343472236115, 0.9960022042439309, 0.995061152223341, 0.9940301846970063, 0.9927656508801951, 0.9915724769571425, 0.9902843078216906, 0.9888952228200936, 0.9874102626942155, 0.9859138328715583, 0.9842295289396076, 0.9825135987202029, 0.9806456392505092, 0.9786929696927302, 0.9765420086220972, 0.9744339103719966, 0.972284635585664, 0.9699888328477085, 0.9676067145568129, 0.9650154551444384, 0.9624781822159529, 0.9598229133934314, 0.9571081047195465, 0.9543038063334818, 0.9516419586956645, 0.9486347195191396, 0.945515841093761, 0.9423700987484671, 0.939149964280687, 0.9356722399871436, 0.9323274938475843, 0.9288958905649958, 0.9253865721335857, 0.9217975384916126, 0.9181673681934303, 0.9144198235222936, 0.9105299664704453, 0.9066481379017699, 0.9026928340387582, 0.8986559392681023, 0.8945605469889916, 0.8903932248551605, 0.8861628241936548, 0.881837067390269, 0.8774814651777828, 0.873062123038301, 0.8686942793345964, 0.8641384767056787, 0.8596539733410662, 0.8549790106723149, 0.8502603553778679, 0.8453344056150194, 0.8405488271298256, 0.8357238738477268, 0.8308328608410194, 0.8258932374261949, 0.8208131326993533, 0.815792718403547, 0.810783113307444, 0.8056589053430642, 0.8004932949774184, 0.7954313561645362, 0.7901696464727134, 0.7846859031862405, 0.7793920101663614, 0.7740597048558555, 0.7687946416384737, 0.7633790529892654, 0.7579973643729303, 0.7525230565082539, 0.747028359324651, 0.7412905225259789, 0.7357857158926595, 0.7302872576823902, 0.7247199323662711, 0.7191298003635944, 0.7134590372138409, 0.7078374702108194, 0.7023229086355112, 0.696648231918562, 0.6909656835830046, 0.685206395022091, 0.6795205533916008, 0.6738265388792296, 0.6681261597861985, 0.6624211685202088, 0.6567566364059362, 0.6510419949936888, 0.6454402372100116, 0.6397184832708909, 0.6340081583974079, 0.6282195426453732, 0.6225446480223161, 0.6169275709027798, 0.6112632900104714, 0.6056123654021871, 0.5998856920924601, 0.5942758216978479, 0.5885738581363817, 0.5830015153160452, 0.5774382221399706, 0.5720032421198163, 0.5664506182880853, 0.5608472256406694, 0.5553502488026357, 0.5498739999064661, 0.5446203353608993, 0.5391652143949001, 0.5336968361528425, 0.52832146364577, 0.5229799056681661, 0.5175325531660515, 0.5122779240155532, 0.5071543549042679, 0.5019437105148445, 0.4967699690903745, 0.4914970975512254, 0.4864167156044963, 0.48154132038655556, 0.47650389390107395, 0.47151132792883205, 0.466480443270721, 0.4615888762608889, 0.4568550972858717, 0.45203186211330837, 0.4472582560470125, 0.4423908458383628, 0.4377347726407329, 0.433050492249374, 0.4284883458139276, 0.42396675159424835, 0.41947743986084773, 0.4150432758003714, 0.4106738798475999, 0.4063280743680802, 0.402030785227136, 0.39792310286784427, 0.39370795559350447, 0.3893983745894286, 0.385320279755766, 0.3812918500583763, 0.3773807577991279, 0.3734459678696805, 0.36968056574031266, 0.3658434815258914, 0.3620689679642154, 0.35832952678329094, 0.3546812006952685, 0.35094167870204257, 0.347429863375923, 0.34396792863396936, 0.34075699074134197, 0.33737222919354604, 0.3340644136065498, 0.33080416904165755, 0.3276063820250722, 0.32425662946235667, 0.3212081176389912, 0.31821095547322853, 0.3152591002622777, 0.3123573961665029, 0.3095866422913499, 0.3067771855546996, 0.303954140447776, 0.30126622114537954, 0.29863029722370205, 0.2962134384215088, 0.29366111322827143, 0.2911773455816345, 0.28874662371455134, 0.2863756117232475, 0.2839563593330607, 0.2817147670847166, 0.27951020631090673, 0.27737093712369043, 0.2752810113480266, 0.27336709432669654, 0.2713594435064204, 0.2693110067875169, 0.26742622220005957, 0.265589466882953, 0.2636802739425204, 0.2619536293863417, 0.2604405498892244, 0.25877263878989226, 0.25715539237212154, 0.2555776172708971, 0.25405945909538497, 0.25251459287192346, 0.25109811239441965, 0.249722269449966, 0.2483533574848034, 0.24706191520781634, 0.2459248008551961, 0.24469348568415314, 0.2435057388420433, 0.2422668266664167, 0.24117411455688334, 0.24000582106486043, 0.2389956199554167, 0.23801283112977673, 0.23710116817908894, 0.23616859389922604, 0.23525976703454893, 0.23438844198085135, 0.23354622168982891, 0.2327259154489257, 0.23194112789951685, 0.231163310016912, 0.23043438646405626, 0.22972999352854562, 0.22920635215330365, 0.22852940128902025, 0.2277337470214235, 0.22713662573349083, 0.22655862084929293, 0.2262093389519645, 0.22564122837560585, 0.22487864496010296, 0.22439449429952918, 0.22392222298149977, 0.22356498047758466, 0.22310249950708205, 0.2226700052012167, 0.22223780725343645, 0.22182042064085047, 0.22151326552441944, 0.2211093402337579, 0.2205650349525775, 0.2202118206508043, 0.21986246129811932, 0.21943312825915773, 0.21910070778572485, 0.2187694029020707, 0.21843225356409351, 0.21809322680704984, 0.21793904173259454, 0.21757223794146124, 0.21723349705573614, 0.21687842091649978, 0.21652897579707353, 0.21601660653509167, 0.21569439828187234, 0.2155637572526354, 0.2151989821484482, 0.21462648384510993, 0.21429139797130814, 0.2139435302553849, 0.21373651830373475, 0.21334412006991554, 0.21277100671304716, 0.21239187053623027, 0.21199641223373233, 0.21180178211447637, 0.21134706556440913, 0.21089215106995557, 0.21042823993064128, 0.2099577218418561, 0.20944578977128286, 0.2089620678421608, 0.2085226196676943, 0.20800602281351663, 0.2074785887946283, 0.20690246833032708, 0.2063546576446605, 0.20563402450067153, 0.20507344376855252, 0.2044869916668951, 0.20399891030452927, 0.20334740714688748, 0.20246219046980762, 0.2018038778196119, 0.20111557269922276, 0.20061544611741178, 0.19984352248676968, 0.1990872448211006, 0.19828186066049433, 0.1974620607958175, 0.19659350997112698, 0.1957462830856069, 0.1946666477176068, 0.19380821833851614, 0.19291814466216384, 0.19214795806830048, 0.19117965985190308, 0.19003506976720447, 0.18904735454629953, 0.18803086408415415, 0.18717682234603716, 0.18608180200177915, 0.1848147042607671, 0.18370814875410446, 0.18257601080163743, 0.18133887732548049, 0.18016759278522632, 0.17908810030918684, 0.1778461308638218, 0.1765847065233299, 0.175190319167463, 0.17390411288300214, 0.1726119365703714, 0.17127212988807247, 0.16990917940672695, 0.16850364493260747, 0.1670986198576235, 0.1658911071334425, 0.1644135119307335, 0.16292678596554447, 0.16136963863289236, 0.1598687105157168, 0.15828538300440256, 0.1567612950283383, 0.155217382722554, 0.15375418334057986, 0.1521593308507187, 0.15044822251374132, 0.1488404387496168, 0.14721344753055426, 0.14567803826198603, 0.1440007870690603, 0.14220913331244764, 0.14052276677990547, 0.13881925920928148, 0.13708272444473593, 0.13534940656073025, 0.13374378882089163, 0.13196169741133276, 0.13017361729654914, 0.12820239372797715, 0.12642379306640628, 0.12473202606697475, 0.1229085780382019, 0.1210770627490426, 0.1191211152527831, 0.11728945839879353, 0.11559792854359992, 0.1137216141769654, 0.11184331608306639, 0.1100531128852228, 0.10815954208295668, 0.10606910147578988, 0.10420692076674297, 0.10233591616664982, 0.10061425268481572, 0.09870979055174764, 0.09671241277686161, 0.09482772612743214, 0.09294129076714308, 0.09127078807827715, 0.08935591191658322, 0.08730376380582897, 0.08543260745252859, 0.08356413657601262, 0.08186910690263625, 0.07998634197323731, 0.07792751714791041, 0.0760962655670703, 0.07426715366649475, 0.07249802123771426, 0.07066934206887851, 0.06902268926484166, 0.06718969390430489, 0.06537604507890182, 0.06358089968697686, 0.06180359707909261, 0.059946891443563535, 0.0582161594391841, 0.056496767012215975, 0.054946181271775835, 0.05323165203909122, 0.05153594161424574, 0.04986555770854696, 0.04821612219048056, 0.04667744129693061, 0.04505782207406263, 0.04342036622787506, 0.04185661541967169, 0.04031476939050238, 0.03866803961687009, 0.03718607504274084, 0.03577248559410792, 0.034314998257618454, 0.032877897423340366, 0.03155192368493582, 0.030146189959013726, 0.02878120201763922, 0.027428486340298545, 0.026103800910299773, 0.024750365588807558, 0.023488783097005944, 0.022438871803330897, 0.021203931464173653, 0.020005449782466538, 0.018725703168104055, 0.01761219775636547, 0.016669670625691503, 0.015593512965900712, 0.014553808270288059, 0.013623238897390876, 0.012645162074489643, 0.011649209175049514, 0.010755051029574839, 0.009894859356318403, 0.008958386314904343, 0.008179656955561143, 0.007565245628415964, 0.0068252171286805816, 0.006122183669035265, 0.00534908779931098, 0.004732718272176124, 0.004360187697907785, 0.0037782356135689877, 0.0032400605999398113, 0.0026712047546257785, 0.002226838107098812, 0.0019528564774968851, 0.0015654578656823862, 0.001222452131804723, 0.0008393988142180326, 0.000592774212427134, 0.0004466012898174402, 0.00026615402622096794, 0.0001264804598026939, 6.388011264945802e-05, 0.0, 2.4695253429820586e-05, 3.8165888508633345e-05, 9.525056030286454e-05, 3.8457941900901094e-05, 0.00020063136286379768, 0.00035249607499653393, 0.0005871405355676176, 0.0008540601994777807, 0.001277746846588107, 0.00159665755591879, 0.001957596793807693, 0.0023603067070325835, 0.002804562088375478, 0.0033668971370359184, 0.0038839742662695313, 0.004473069209756259, 0.0050766767728003875, 0.005725696885623948, 0.006402653398076388, 0.007142319485893626, 0.007971065085633267, 0.008789173953684936, 0.00943801785680009, 0.010370940653355134, 0.011334855602664716, 0.01253112736134311, 0.01353515834148036, 0.014397749688063972, 0.015515352976921184, 0.016666306022423763, 0.018034944344210255, 0.019231822619066207, 0.020434516461704418, 0.02172720748270853, 0.023061700821317352, 0.02437416421588994, 0.02579897662489561, 0.027420937930074895, 0.028899693111396917, 0.03042473600408249, 0.03188144106020837, 0.033509939386494665, 0.03507839273172828, 0.03679259094345592, 0.03853816283566438, 0.04050940163661262, 0.04229553088128407, 0.043925779638073585, 0.04582472040348522, 0.04775467418458816, 0.04968301607261874, 0.05168130948971592, 0.05375399113142423, 0.055809530533784776, 0.057899789856488776, 0.0600048716169288, 0.062167406904936454, 0.06439710511962587, 0.06662316290864746, 0.06888511232426983, 0.07136620248268398, 0.07367600721563736, 0.07584109167232259, 0.07826407706872625, 0.0807185211014004, 0.08329128529955158, 0.08579799985742731, 0.08840466334423652, 0.09097579180023777, 0.09358570264496992, 0.09604980675085319, 0.09875728653186522, 0.10162037017652328, 0.1043630540754321, 0.10713976322667526, 0.10979979353866727, 0.11266184615358783, 0.11575473469262548, 0.11863937334195115, 0.12156099537561468, 0.12431829488369693, 0.12733589091744235, 0.13042952222013185, 0.13348645283442898, 0.13657045594316303, 0.13962159347094202, 0.14276762658363523, 0.14592088720740848, 0.14911731712226164, 0.15233756776059498, 0.15561542726183045, 0.1588802882515961, 0.16223857567829622, 0.165548314615632, 0.16888828242259143, 0.17224444217125418, 0.17564451840251535, 0.1790787879837915, 0.1825325894643786, 0.1860133579946145, 0.18949057597668179, 0.19302761990288436, 0.19664858324094414, 0.20022558130356446, 0.20382942351515368, 0.20742271378263802, 0.21108283795775942, 0.21465570098409398, 0.21837513753452778, 0.2221106840514875, 0.2258362619641903, 0.22960912256777555, 0.2333046887240454, 0.23712211363185923, 0.24095133947789135, 0.24503696344573356, 0.24886199182584925, 0.2525283107284513, 0.256431795915325, 0.2603502323212122, 0.2644173829071135, 0.2683497054745178, 0.27218170675949716, 0.27617485590031027, 0.28018223239186313, 0.2842973506646882, 0.2883216086984484, 0.2923454256295769, 0.29641053031486203, 0.3004924592105476, 0.30442381277891023, 0.30855871939534485, 0.3128227940412941, 0.3169543452857718, 0.3210999807878719, 0.32535928893719623, 0.3295189482166256, 0.33347329212671406, 0.3376963188739358, 0.3419224917382682, 0.3463493193417834, 0.35055878272119423, 0.35459722785437586, 0.3588606295053788, 0.3631268523336536, 0.367489686993355, 0.3717507646261295, 0.37609744648234955, 0.3803658905552444, 0.3846461695592509, 0.3887101519451519, 0.39303904810389173, 0.3975002548395504, 0.40180369373418384, 0.4061117330385064, 0.41027027696232793, 0.41460502228909396, 0.41912401944163447, 0.4234235075688733, 0.427728813400515, 0.43191194824231066, 0.4362413380429519, 0.4406894119369136, 0.4449936693191558, 0.4492999853165614, 0.4536138725814771, 0.45792004257045593, 0.46212859045067617, 0.46644419241980994, 0.4707514344028578, 0.4751568912182001, 0.47943331267295436, 0.4836399310692162, 0.4879174320981505, 0.4921857786121276, 0.4963877153925735, 0.50064328509226, 0.5049949398268827, 0.5092084432215953, 0.5134137857830573, 0.5176498523077433, 0.5218304169880615, 0.5257949312343009, 0.5299818993113058, 0.5341454655858623, 0.5382494089946654, 0.5423720952816308, 0.54654038434979, 0.5506056725430079, 0.5546510358439276, 0.5587193766456657, 0.5627179555470242, 0.5667542151889516, 0.5707066094913347, 0.574641269630414, 0.5783533064298606, 0.5822741403902837, 0.5862786185766972, 0.590118874566297, 0.5939332625130112, 0.5977209769961881, 0.6014812036006946, 0.6051730866123801, 0.608880927061881, 0.6125565493547195, 0.6162995225186673, 0.6198964656024576, 0.6234751475119998, 0.627012853477087, 0.6305200577652134, 0.6338652738902807, 0.6373238642456156, 0.6407707468999116, 0.6441419329608793, 0.6474727094207144, 0.6506758053915959, 0.6539351034389101, 0.6571741242315305, 0.6603361925461171, 0.663452838238118, 0.6665637510773194, 0.6695833972091699, 0.6724685846900809, 0.675410026912644, 0.6783003746266061, 0.6810961524309468, 0.6838893892349767, 0.686755297870811, 0.6894243083277927, 0.6920495759762894, 0.6946227979547318, 0.697146756316775, 0.6997203891113718, 0.70212977198491, 0.7044321517006613, 0.7067534001800572, 0.709020820542977, 0.7111165734702282, 0.7132879341105154, 0.7154659129199205, 0.7175015530446056, 0.7194776508312842, 0.7214836029458442, 0.7233272034172286, 0.7250209094387425, 0.7267619954874237, 0.7284387400192837, 0.7301274646513384, 0.7316645900519155, 0.7329803021006176, 0.7344140804571576, 0.7357755942925347, 0.7372287099165178, 0.7384261163322846, 0.7393811915182763, 0.7404758437123897, 0.7414959558674078, 0.7425787702171683, 0.7434337914483758, 0.7441263009398689, 0.7448611291876948, 0.7455230368474942, 0.7460152892357838, 0.7465435927065899, 0.747217005354345, 0.7475609215607271, 0.7478402519829499, 0.7479435875000761, 0.7481038498883158, 0.7480830296443971, 0.7481080737692909, 0.7480526655062492, 0.7478742184281574, 0.7476656312978631, 0.7473761964751795, 0.7470067583092458, 0.7465580444545014, 0.7460740498264676, 0.7454630863846755, 0.7448803198234094, 0.7441058755195554, 0.7432620838533411, 0.7423748241798157, 0.7413866334266389, 0.7401683211203871, 0.7390596600066353, 0.737870644915625, 0.7366520695989187, 0.7352982079237403, 0.7339622784199208, 0.7324458242554797, 0.7308594982389208, 0.7290159241034364, 0.7273119253948255, 0.7254995339202999, 0.7236367463765585, 0.7216931428730579, 0.7196499724607359, 0.7175509599030198, 0.7155269641667062, 0.7132528040400731, 0.7109110162585076, 0.708531373142887, 0.7060498611724274, 0.7034551957917726, 0.7008464444833781, 0.6981682265960453, 0.6953007628638368, 0.6924998041109244, 0.6897438272460901, 0.6867788502822519, 0.683748222729367, 0.6806188676912558, 0.6774620670666922, 0.6741286699068815, 0.6708534932500508, 0.6675070708292374, 0.6640476563917423, 0.6605690012765418, 0.6570279336052649, 0.6534119824508731, 0.6497306468809194, 0.6459853860264089, 0.6421775813246346, 0.6384786902565829, 0.6345281696185231, 0.6305284309322495, 0.6263891958590841, 0.622301937454953, 0.6180500989056383, 0.6138686796219412, 0.609628397044098, 0.6054244719307871, 0.6010599837237757, 0.596657037228503, 0.5921951570777985, 0.5876870146886143, 0.5832534950410247, 0.5786400318316307, 0.5738227018302026, 0.5691561359089382, 0.5644431516567844, 0.5596352624144882, 0.5548403940759459, 0.5500141910739231, 0.5451301244568538, 0.5402057439393311, 0.5352259602723555, 0.5302277861029026, 0.5253397845772778, 0.5202514098514098, 0.5151377953614069, 0.5099792458181168, 0.5048187554628878, 0.4996431898008086, 0.4944320454356813, 0.48919799858140334, 0.48399524399542715, 0.47871115352419724, 0.4732429754348546, 0.4679459676837561, 0.46262352057820016, 0.4574345107695939, 0.45204750525755616, 0.4464630134828751, 0.44107888136579226, 0.43567484354160474, 0.4303966011628683, 0.424941240060409, 0.4194770955320242, 0.41401204250775003, 0.4085429739380727, 0.4030708061284842, 0.3975964978728592, 0.3920242971994635, 0.386560962147969, 0.3810931395996418, 0.3755759827745393, 0.37011059241849864, 0.36475354214642464, 0.35927275127573444, 0.35380033046172893, 0.3483805881790305, 0.3429222620831938, 0.33745093103786455, 0.3320239966632984, 0.32661060367486344, 0.32101822674201747, 0.3156593121873295, 0.3103460746752772, 0.3049959526451093, 0.2996586709030129, 0.2943094320486304, 0.289006766444842, 0.2838075255685071, 0.27852905523455707, 0.27327560948990043, 0.2681648324209321, 0.26294930244760073, 0.257604495180037, 0.2524779411092031, 0.247376354063424, 0.24248799764338488, 0.23741696550872332, 0.23225203609120065, 0.22727670109688233, 0.2223330069881796, 0.21731857237747831, 0.21245432014571525, 0.20763226718484734, 0.2028258100444309, 0.1980523688022077, 0.19329333584092037, 0.18859258548470945, 0.1839576899204374, 0.17932609665220087, 0.17473450903871582, 0.17020380949797653, 0.1656922464157115, 0.1612375997717296, 0.15681205116955207, 0.15243191705157422, 0.14825440349098792, 0.14394648793978185, 0.13957054977064381, 0.1353881951075474, 0.13125272330380108, 0.12704442738188726, 0.12301908197619363, 0.11904504626110558, 0.11510236979698663, 0.1111940793000089, 0.10734245419754862, 0.1035365534251394, 0.09999744313853305, 0.09625769621999426, 0.09259173484106632, 0.08897002646373199, 0.0854073403663068, 0.081782585488975, 0.0783502874416069, 0.07504440167001045, 0.07170207974887667, 0.0684143448224414, 0.0650774114517221, 0.06191087664947144, 0.058695408264542295, 0.055637313848744846, 0.0526226823956232, 0.04969942256906742, 0.046769252892500994, 0.04409179416465759, 0.04123467404727451, 0.03843883584548073, 0.03560610724472878, 0.0329409264795224, 0.03040444234823391, 0.027833201452053646, 0.02531765097788225, 0.02274011170576213, 0.020348032572217706, 0.018039245121340752, 0.015735920345134907