0.029619198817940447, 0.02943335228886582, 0.02933432754082777, 0.029163847336500858, 0.02900722277064073, 0.0288962118780323, 0.02875720058473445, 0.02862862640061445, 0.028508915275365063, 0.028396722702892258, 0.028269046210043145, 0.028171423146397666, 0.028009628711684966, 0.027926896146598598, 0.02784294724245182, 0.027775945736835218, 0.027688142855529205, 0.027616894778711126, 0.02752855367035761, 0.027442109877209395, 0.027298011123774602, 0.027223159194043164, 0.027202822897614953, 0.027119287954145546, 0.027038953138584565, 0.026977816561310566, 0.02690217991242993, 0.02676339565512855, 0.026705176790739086, 0.026647641754026733, 0.026619215255254874, 0.02656127350957251, 0.026485360609810337, 0.026438203008713645, 0.026394167913501118, 0.026427183839520037, 0.026381222805751257, 0.02633363859800854, 0.02630526998422785, 0.026284119244665193, 0.026174658832235183, 0.02617966982817338, 0.026226014611856075, 0.026229884938823632, 0.026238938255139437, 0.026235546783218502, 0.026257988591768835, 0.026307192939597785, 0.026337013962581673, 0.026373619625438386, 0.026381339890398373, 0.026436354567199068, 0.02649446526248835, 0.02656028026984142, 0.026631792284972727, 0.02678286795136075, 0.02685741764604418, 0.02693472235173549, 0.027031335920575432, 0.02713755545449423, 0.027173686004966245, 0.02730863370235165, 0.02743434221361296, 0.027580940968693565, 0.02773246700581516, 0.027970967008252585, 0.02812365051976813, 0.02828137133549804, 0.02845655613084003, 0.02864194158360083, 0.028755908892411843, 0.02897164793254047, 0.029292097499370083, 0.029506536526128353, 0.02973303528740383, 0.02991762234890058, 0.03017415951265064, 0.030389284769967207, 0.030668925824820024, 0.03095456886823767, 0.03133430199870007, 0.03162272778355222, 0.031808499221898025, 0.032136515598421574, 0.03247025010514094, 0.03282636790469953, 0.033171739252682776, 0.033587393030687356, 0.0339427212986939, 0.03431095996801532, 0.03464225537779363, 0.03504213411985497, 0.03541196885702042, 0.035836598254550565, 0.036269290533959095, 0.03680005864248359, 0.03723921452803698, 0.037704904282653495, 0.03817144736167104, 0.0386526684209753, 0.03908661641722801, 0.03960402652498077, 0.040092036577986184, 0.040635465686433135, 0.04118756526887466, 0.041790630707817356, 0.042356397599677985, 0.0428889470453747, 0.04348553894509409, 0.04409215678298369, 0.04472908391635302, 0.04535441222540332, 0.04603369866576613, 0.046678297719965296, 0.04733766446346014, 0.04803937017872287, 0.04872401615408691, 0.04943225801845009, 0.05014678764852913, 0.05087665362246958, 0.05152806429362625, 0.05229934027507534, 0.053073761112624414, 0.05386450884060249, 0.054664973842795374, 0.05555509522993732, 0.056366189413002976, 0.057085270743415184, 0.05794021315632322, 0.05880376789780174, 0.059756011584505025, 0.0606283763677431, 0.06148747756048695, 0.06239220638785029, 0.06330939677750023, 0.06424101929483331, 0.06518281926785222, 0.06612915827797329, 0.0670968784977781, 0.06807650704274942, 0.0691177207446116, 0.07011482847065292, 0.07102518304018252, 0.07206388594150646, 0.07311064880402927, 0.07415994319320778, 0.07522481210470273, 0.07638397049826538, 0.0774559653725938, 0.07854209664796936, 0.07959017558666202, 0.08070961856918851, 0.0818885633091539, 0.08302135128445327, 0.08416672489390684, 0.08522287428832766, 0.08640494049288072, 0.08767216698085152, 0.08885594266995574, 0.09005065646327211, 0.09118838695465906, 0.09241250680652793, 0.09369843455932282, 0.09492806147905095, 0.09616737665579397, 0.09734251340094714, 0.09860953587671602, 0.09995868178248726, 0.10122540064752455, 0.1025492800300697, 0.10382841431545889, 0.10511876787580968, 0.10638574030751409, 0.10770043703303495, 0.10896457181071387, 0.11030035109449597, 0.1116392609601529, 0.11295161148756479, 0.11430087714595598, 0.11573332563313606, 0.11707590097852444, 0.11842513895713362, 0.11978446640198526, 0.12114490905528635, 0.12242719113875888, 0.12380832033240567, 0.125189092719687, 0.12665717109812266, 0.1280267305067181, 0.12940326375796643, 0.1307818727251041, 0.13216427564943356, 0.13356178560793963, 0.13494846481580478, 0.13629414062741313, 0.1376911805786321, 0.13908729410699341, 0.1403948296157659, 0.1417995433826181, 0.14324946674841982, 0.14463517342474816, 0.14601814002155208, 0.14747574249696524, 0.14884297491369688, 0.15011391498297072, 0.1514948184580885, 0.15286972263251694, 0.15424860896809126, 0.155610336179829, 0.1569606382499611, 0.15831201700673678, 0.15965721497201898, 0.16106164018355296, 0.16238560512728936, 0.1636090453277802, 0.16493827463972233, 0.16625737823996103, 0.16764395561008352, 0.16893319451747224, 0.1702584731364851, 0.17153033328059755, 0.17279746920956301, 0.17402313489612076, 0.1752825104195718, 0.17643506082376834, 0.177687399333873, 0.17892388219277328, 0.18022434166225898, 0.18141996046577044, 0.18262281571420363, 0.18379433186483893, 0.18495514558183151, 0.18609268750063065, 0.18723170752906473, 0.1883475867909266, 0.18946100463105212, 0.1905597696821251, 0.19168130091365068, 0.19274495082569865, 0.19377714937201312, 0.19481529416570528, 0.19583763017199302, 0.1968755392712547, 0.19786099275378052, 0.19876760508337193, 0.1997299940242506, 0.20067235675014197, 0.20155689189198006, 0.20246383966016665, 0.20331267500946085, 0.2041796679404194, 0.2050226444130749, 0.20587178890920407, 0.20666399149909437, 0.20747646408997328, 0.2082203590863647, 0.20894491790788197, 0.20967748869667088, 0.21035844206822857, 0.2110202467795517, 0.21166226041500322, 0.21228388668856155, 0.21283289388270624, 0.21341865775519872, 0.21396567456291327, 0.21450350083624878, 0.21501563335483148, 0.21557764570865456, 0.21602894444234488, 0.21639324608911018, 0.2168093873576182, 0.2171992197169784, 0.21753888780028982, 0.2178790882404754, 0.21822337997373792, 0.21850427980167536, 0.2187595022404084, 0.2190147074544875, 0.21921477710432732, 0.21942985267879017, 0.219575035529593, 0.21969700058196845, 0.21972754583882306, 0.21980981934517418, 0.21990912867938464, 0.21992837278817765, 0.21992170762660407, 0.21990276195566322, 0.21984170087900895, 0.21968121952782663, 0.21957740196985356, 0.21944302434130766, 0.2193400759160458, 0.2191378690617546, 0.21885192911716714, 0.2186046023338792, 0.2183275367109798, 0.21800513889877995, 0.21767150141747638, 0.21735776711557123, 0.21695863571078178, 0.21653319872709054, 0.21613303523000574, 0.2156481804583055, 0.21506019042966573, 0.21453768156681297, 0.21398626163006695, 0.21343408897115518, 0.2128223048473511, 0.2121960382572603, 0.2115299891858953, 0.2108383359462373, 0.21004951935015814, 0.20931571645095126, 0.20853446768180137, 0.20774445588867657, 0.20692512059341525, 0.20615665954659362, 0.20527064705249906, 0.2043100094740589, 0.2033845386193494, 0.2024330637750976, 0.20148181812121774, 0.2004762338849933, 0.1994750570164228, 0.1984192597457993, 0.1973419089358559, 0.19629264760137932, 0.19516580818921242, 0.19394664694699285, 0.19279121991550938, 0.19161231731592607, 0.19044017868884144, 0.18921182749069998, 0.18796293965110214, 0.18669369238070344, 0.1854042913776449, 0.18412080766604222, 0.18278855249779732, 0.18134096735579247, 0.17998524395880094, 0.178606344381083, 0.17727876877084062, 0.17584703286578968, 0.1743273933396386, 0.17287220894236466, 0.17139709511055273, 0.16994065105600922, 0.16842336025240418, 0.16693435537648513, 0.1653810579574415, 0.1638155886788428, 0.1622499369870674, 0.16065885606127514, 0.1589810761025413, 0.15737730698230268, 0.15575838035449183, 0.15422050262333453, 0.15256156528963344, 0.15082754599758125, 0.14916208568363493, 0.14748527615462145, 0.14584742186850982, 0.14414346287540944, 0.1423731266740712, 0.1406633956384893, 0.13894398322398016, 0.1371838318808643, 0.13545128463293846, 0.13381278477162398, 0.13204948126772817, 0.13016919516239878, 0.12841706702998198, 0.1266568314591603, 0.1248935073069047, 0.12311961954622652, 0.12136463916792567, 0.1195786805871773, 0.11779073782053931, 0.11602124345341401, 0.11422847608296695, 0.11250206494252524, 0.1107028979754821, 0.10890891620297798, 0.10706034978729624, 0.10528392854272994, 0.10353299071552852, 0.10175735894736264, 0.09998577524734256, 0.09817087654603404, 0.0964144584323927, 0.09470023692809525, 0.09294445406215232, 0.09119485711684733, 0.08946574547710397, 0.08772792945809933, 0.08604199475056072, 0.08431525781560452, 0.08259974962580462, 0.08081197683135813, 0.07912949936212255, 0.07741990486591292, 0.07575585842351491, 0.07409817282928785, 0.07248561535041943, 0.07083881353248238, 0.06921323163225543, 0.06758824136656794, 0.0659760830505729, 0.06444075310472526, 0.06284739039560222, 0.06118016328084051, 0.059633360072343745, 0.058098784393419284, 0.05666261591749456, 0.05514378041284924, 0.053560493893168915, 0.05209017124434155, 0.050634042175261615, 0.04924444928793926, 0.047812122663973, 0.04635900147144053, 0.04496974238821971, 0.04359747806262363, 0.0423281517032587, 0.04098047000946673, 0.039608222843697735, 0.038312558439791894, 0.037036839207558396, 0.03586873333851699, 0.03462248812264483, 0.03337391400505459, 0.03218169585359997, 0.031012526479859862, 0.02992593440020117, 0.028795063997679005, 0.027646678058269657, 0.026573288030158924, 0.025522796659511963, 0.024592637880864493, 0.023575775523703033, 0.022555665282842956, 0.021599249723205816, 0.020668349373992066, 0.019784609647184752, 0.018901375106664512, 0.0180881128563517, 0.017251588842607017, 0.016443320598105573, 0.01574828118614447, 0.014984321691667284, 0.014309822576906205, 0.013601263825543173, 0.012926003174940187, 0.012328614824254265, 0.011710918528719404, 0.01104665290696443, 0.01050382925240266, 0.009987542395451585, 0.009587133355354294, 0.009112355067768373, 0.008768348610591685, 0.008343091576875765, 0.007953530239035134, 0.007548701466402436, 0.007233185662795407, 0.0070109097096554985, 0.006746257357627136, 0.006514158416152847, 0.0063059360682484, 0.006137893602294219, 0.006121379248541721, 0.0059982380762540035, 0.005911587751532287, 0.005886095741335206, 0.005865821239442792, 0.005848678368553477, 0.005901381107144848, 0.005985557333148553, 0.006150517157116432, 0.006290297717235542, 0.0065031837470978645, 0.0067040753172202625, 0.006939513140863625, 0.00714916767825394, 0.0074592492520055035, 0.007902114549238342, 0.008258065442063024, 0.008649425701946822, 0.009119203770558915, 0.009573808195199235, 0.010004811431032247, 0.010538234532658636, 0.011102906208666457, 0.011772294563788824, 0.012389975728493525, 0.013076691313717163, 0.01376000500654026, 0.014479380206831878, 0.015168538621253991, 0.015966372156607022, 0.016868363715750425, 0.017718244923770613, 0.018603101563283694, 0.01950854941929893, 0.02046377649686769, 0.021483797734658725, 0.022500822841874723, 0.023552328914800913, 0.0245743559769039, 0.025701854030043592, 0.02682556858279593, 0.02801765522594769, 0.029238433946226258, 0.03049637951579893, 0.03177505211925921, 0.03317967229986832, 0.03450766625466013, 0.035872120243210806, 0.037276472555667, 0.03871179763917253, 0.04011877808242502, 0.04163226846292726, 0.04317670903705292, 0.04484175428081782, 0.04643739851881337, 0.04794038551111853, 0.049624869457178734, 0.05133756938158745, 0.053093000584451086, 0.054862107597298246, 0.056665784265731996, 0.058495872059933604, 0.060357327130565686, 0.062331829749589215, 0.06424625215563441, 0.06620306280696524, 0.0681890417741434, 0.07021076258096874, 0.07218626378915734, 0.07428842180771313, 0.07644634623418067, 0.0786054339613667, 0.08079654425347772, 0.08300781171018255, 0.08526464996834564, 0.08755499290529094, 0.08987475426291346, 0.0922264087832749, 0.09464383996094217, 0.09705527987543937, 0.09943119371930095, 0.10191930399318314, 0.10443716350814328, 0.10699113710546101, 0.10956889894722219, 0.11227321653557479, 0.11490143956088009, 0.11756658582199275, 0.12015675117206197, 0.12290809627881596, 0.12576605098285862, 0.12856627296937645, 0.1314008657967488, 0.13427952732880308, 0.1371809147697547, 0.14012454814168823, 0.1430932831709379, 0.14609631566728262, 0.14914731772448908, 0.15221649600732917, 0.15521080726467845, 0.1583624482000621, 0.16154191647351243, 0.16477971137049954, 0.1680130395360294, 0.17127371446656192, 0.17457041456007805, 0.17795826185130506, 0.18131065839449012, 0.18469828721753453, 0.1880313680075441, 0.19149979217837754, 0.19507503331897652, 0.19859273062421706, 0.2021449623391056, 0.20575133262924794, 0.20936932806717573, 0.21293874672468546, 0.21663673549308965, 0.22036424253347078, 0.22409381203667753, 0.22788493108304447, 0.23181030164434874, 0.23564635943321371, 0.23951805234100979, 0.24340496689935276, 0.24734887873254324, 0.2512363928944947, 0.2552574536883951, 0.2593060529651273, 0.26345026314909037, 0.26754679565747497, 0.27165404416229044, 0.2758182326765026, 0.2800132451590397, 0.2842529158149137, 0.2885075628353723, 0.29278358964249734, 0.297101890471621, 0.3014504743722164, 0.3057576275970302, 0.31017533466110725, 0.31469830109612107, 0.31915784766781874, 0.3236482943407804, 0.3281493526914634, 0.3327028875671729, 0.337199535933535, 0.34182081615750054, 0.34646542143107034, 0.35123118272445514, 0.3559113398262889, 0.36057957786002126, 0.3653240427217775, 0.37009478683325675, 0.3748677277256423, 0.3796933296560311, 0.38454509870770737, 0.3894187040755261, 0.39431634938019594, 0.39930938706993147, 0.4042454262717665, 0.409129313182349, 0.41412923968904863, 0.4191503619610493, 0.42414284358665977, 0.4292121579705492, 0.43438080472921076, 0.4394756268176041, 0.4445930410058949, 0.4496588212956957, 0.45482867705681634, 0.4601044206492763, 0.465295794336849, 0.4705084399535328, 0.47573349827674516, 0.4809870008875113, 0.4862428006573907, 0.49153395622773344, 0.496840925529651, 0.5021809997993524, 0.5075155380432125, 0.5127279413702143, 0.5181090836419778, 0.5234960354798265, 0.5290044432243838, 0.5343894023398776, 0.5397774192900565, 0.545188710052833, 0.5506106230957399, 0.5560105525768965, 0.5614553224925773, 0.5669244154416215, 0.5723792512398612, 0.5778404118066489, 0.5832117464872572, 0.5886953751178635, 0.5942154763546558, 0.5996917404890393, 0.6051687172593151, 0.6106021717411257, 0.616084532192505, 0.6215316864209303, 0.6270109702752293, 0.6324844068148531, 0.6380253512478823, 0.6434771373617747, 0.648876670116248, 0.654328570409726, 0.6597730355217416, 0.6651716610742054, 0.6706040639570842, 0.6760208794963215, 0.6814300952473895, 0.6868264724400229, 0.6922869574706099, 0.6976460826659083, 0.7029014106877677, 0.7082502286727321, 0.7135807370785872, 0.7189758700792481, 0.7242575024245357, 0.7294898963015595, 0.7347435122005951, 0.7399770387549903, 0.7451178744238491, 0.7503171252366883, 0.755485147801887, 0.7606299182405197, 0.7657461868197065, 0.7707956075199933, 0.7758578416626861, 0.7809193340618407, 0.7859120166008864, 0.7908729724891714, 0.7957556343173415, 0.8006563277841059, 0.8054962273723311, 0.8103254811987176, 0.8151152464331247, 0.8199405481346088, 0.8246401977484544, 0.8292034856582742, 0.8338404261229381, 0.8384322060027266, 0.8430041964274593, 0.847500907470706, 0.8518946414692161, 0.8563070875919249, 0.8606691747491136, 0.8650619289104308, 0.8693115198897531, 0.8734262536336015, 0.8775907765589329, 0.8817003770503453, 0.8858280390254003, 0.8898167644781177, 0.893627634671077, 0.8975256205458257, 0.9013613767149711, 0.9052479728189812, 0.9089441799920926, 0.9125696657489345, 0.9161526389397815, 0.9196753213662754, 0.9230908341960133, 0.9264952572716337, 0.9297757900061735, 0.9330543015388376, 0.9362619116446114, 0.9393665528369994, 0.9424355174109581, 0.9454327947139245, 0.9483539726451496, 0.9512011410932258, 0.9539461314337324, 0.956647718620473, 0.9593460945543896, 0.9618846182801339, 0.9643499382467983, 0.966713266175756, 0.9690328418941502, 0.9712728693725505, 0.9734369271093685, 0.9755220189264538, 0.9774460276350125, 0.979381621643343, 0.9812079674264907, 0.9829758349281782, 0.98465699950861, 0.9862813874027616, 0.9877856367151776, 0.9891771487726078, 0.9905147704253194, 0.9917652526649087, 0.9929523155989635, 0.994025073678333, 0.995049301489315, 0.9959442847322926, 0.9967542795140103, 0.9973593320770594, 0.9980123878502224, 0.9985897077603497, 0.9990536587614441, 0.9994257271193819, 0.9996941117329083, 0.999884260024449, 0.9999960410296518, 1.0, 0.9999325679384806, 0.9997514459227845, 0.9994801016682318, 0.9991342397007213, 0.9986798749814587, 0.9981952921860097, 0.9975534458673471, 0.996824644230642, 0.9960142072704044, 0.9951089136541946, 0.9939961104223031, 0.992928982773027, 0.9917661827992262, 0.9904925304970429, 0.9891425164819199, 0.9877337561933945, 0.9861909116580686, 0.9845569907253936, 0.9828502598220119, 0.981033065778387, 0.9790593793361303, 0.9770731659972159, 0.9749948033664965, 0.9729126139661021, 0.9706414602256933, 0.9681921444453098, 0.9657633852942753, 0.9632448485279846, 0.960724941386356, 0.9580186147615595, 0.9551884408689519, 0.9523233432756765, 0.9493741979521728, 0.9463913324530061, 0.9432697406944633, 0.9399992961943877, 0.936728227843676, 0.9333746396929985, 0.9299753047991695, 0.926455133899043, 0.9227977907836802, 0.919130765586117, 0.9153842734045513, 0.9116589378682888, 0.9077446482055335, 0.9037223579796004, 0.8996727496318068, 0.8955516274368555, 0.8912882827357125, 0.8870357516907433, 0.8827222567607093, 0.878323959144349, 0.8738564407153336, 0.8694025411606334, 0.8647903009367551, 0.8600537992245451, 0.8553289316818429, 0.8505412012154656, 0.845705816831766, 0.8407944863798025, 0.8358726592346526, 0.8308400808751051, 0.8257543614618492, 0.8205129761030621, 0.8153365990602047, 0.8101735241143173, 0.8048776580811764, 0.7995330493178138, 0.7940991324225809, 0.7886658660916686, 0.7831751784913235, 0.7776497872302113, 0.7720795047974208, 0.7664798717868089, 0.7608229046368227, 0.7552021665465184, 0.7494584986611279, 0.743682666480331, 0.7378874348456392, 0.7320483585554022, 0.7260930674738366, 0.7202084775150914, 0.7142921835230865, 0.7083896928646928, 0.7024097693569907, 0.6964058421193083, 0.6903792519740735, 0.6843313593571211, 0.6783032946695696, 0.6722119208999185, 0.6659983238704864, 0.6598918368949691, 0.6537666840353595, 0.6476209465432773, 0.6414650660029639, 0.6352763914958978, 0.6290990895041305, 0.6229115000418431, 0.6167632789830593, 0.6105548755668305, 0.6043504894982148, 0.5981388278689276, 0.5919283259996695, 0.5857700074196943, 0.5795595446687696, 0.5732974093587129, 0.5671113378890822, 0.5609318060231618, 0.5547961043731157, 0.5486296482720535, 0.5423847893450077, 0.5362571154155245, 0.5301396886312617, 0.5241020210367543, 0.5180022636824259, 0.5118386329804118, 0.5057898130804945, 0.49975825824651954, 0.4938074328610862, 0.4878080806363755, 0.48187649776080177, 0.47592505423573056, 0.4700042355292793, 0.46403532395445574, 0.45818820562765655, 0.45239555727513775, 0.4466039570839398, 0.44084542835344853, 0.4350675123043513, 0.429385508837381, 0.4238225828482803, 0.4181985619954559, 0.4126160101301628, 0.40711541622866465, 0.4016130066004307, 0.39611283715372575, 0.39070835964357226, 0.3853483811429284, 0.37998611050796127, 0.374723889029815, 0.36955390336652943, 0.3643759846488213, 0.3592477530179258, 0.3541501015776702, 0.3491260595495676, 0.34409722524181147, 0.33918284859853964, 0.3343179922157265, 0.3295794784039672, 0.3248079061510373, 0.32010962273948734, 0.3154512632447802, 0.3108520853408761, 0.3063064559143824, 0.30182740124479635, 0.29733866277148246, 0.29298858584570975, 0.28869531972390383, 0.284457848665983, 0.2802812962121335, 0.2760806584956893, 0.27203422634415786, 0.26804399113402533, 0.2642027046447649, 0.2603171268459478, 0.2565242582068401, 0.25276512593253236, 0.24907281799998865, 0.24537373262526216, 0.24182420180460246, 0.23829348715400392, 0.23487512445831987, 0.2315178832286137, 0.2282483668496158, 0.22501228847807367, 0.2218844923910971, 0.21877225763358266, 0.2157275006731984, 0.2126864192668844, 0.2097840583014235, 0.20696486727844568, 0.20418687256166107, 0.2014737984699978, 0.1988475018112877, 0.19626144163137038, 0.19370361997674362, 0.1912540397947692, 0.1888677273954756, 0.18659434863379373, 0.18432816420983, 0.18212781267114286, 0.1799927269958296, 0.17792234835153697, 0.17593202494279414, 0.17398739587011594, 0.17209081778837534, 0.170275429684933, 0.16852176934941263, 0.16682534288580889, 0.1651940780706797, 0.16362671628005035, 0.16211429501479577, 0.16060136398660715, 0.15921415103058598, 0.1578815632766361, 0.15660746571696485, 0.15538322413364497, 0.1542073299041969, 0.15309212330800653, 0.1520301614092308, 0.151005151318925, 0.15005046262458457, 0.14914083894795827, 0.14828855455494153, 0.14748609665818907, 0.14673498803272736, 0.14603048419494646, 0.1454439358303821, 0.14482678748347552, 0.1442606411735396, 0.143670696516004, 0.14321211453194477, 0.14281661628074732, 0.14244136974640817, 0.14210926632771032, 0.14179961407778108, 0.14155384354219952, 0.1413495851512032, 0.14118190355989135, 0.14105240586202694, 0.1409503632128781, 0.14089609107553547, 0.14088693396339275, 0.14090097625618783, 0.14094915811731984, 0.14111404124520757, 0.14121717939397235, 0.14127883234934888, 0.14146221100468273, 0.14167409687012048, 0.14200108571413878, 0.1422563344624505, 0.14244100624317016, 0.14276904995834044, 0.14311906265222876, 0.1435341268369325, 0.14392057497391902, 0.14432939935781486, 0.14475949953582543, 0.14520979122459626, 0.14565734139766387, 0.14614758680741055, 0.1466158653278846, 0.1471416269567468, 0.14767934793112794, 0.14833380199807567, 0.14888036772861113, 0.14940122609061893, 0.14998359870822356, 0.15057666434807668, 0.151127687334505, 0.15174552083177298, 0.15235014636870245, 0.15297901879723622, 0.15361036545010964, 0.15425361958076156, 0.1548870994648295, 0.1555915363637476, 0.15621830012161894, 0.1568489372319615, 0.15748414047062262, 0.15811844530883018, 0.15865164847230442, 0.15929815120082846, 0.159936974104589, 0.16064737542939111, 0.16125998710399517, 0.1618446176005965, 0.1624509411623737, 0.16304974700230046, 0.16371181312380859, 0.16428421940066396, 0.16482896679031953, 0.16539123260492594, 0.16594393158522955, 0.16647018655459553, 0.16700288385807946, 0.1674984890862136, 0.16800701295669493, 0.1684995668436951, 0.16893593087283673, 0.16940016720451334, 0.16986069883323762, 0.17028356605743583, 0.17068738853106843, 0.17114933981017608, 0.1715042303826663, 0.17172808446409837, 0.17206505019413376, 0.17237788237560647, 0.172716348588229, 0.17297481083486826, 0.17319014784116626, 0.17340839402650912, 0.17360325295113535, 0.17385000538049492, 0.17398778950835395, 0.17399833667955575, 0.17410901759686245, 0.1741921209935053, 0.17433922578142824, 0.1743560190700007, 0.17424932749047603, 0.17423401340801722, 0.17418957739984972, 0.1742255896374884, 0.17410979821053443, 0.17390009569368425, 0.17374789787325723, 0.17356793008434696, 0.17343372793552264, 0.17318890262218026, 0.17289855258704065, 0.17260857646242636, 0.17229260359154294, 0.1719444034978638, 0.17157643308619708, 0.17115363356713226, 0.1707350830217652, 0.17028781212559688, 0.1698338747955825, 0.16932696907117806, 0.16876332702720032, 0.16820636437246556, 0.1676208665286604, 0.16707074329375807, 0.16642104455081588, 0.16564392361606267, 0.16495894020068855, 0.16424371039821442, 0.1635208259017072, 0.16274447157497668, 0.16197492392159166, 0.16114074829875666, 0.16028230675480756, 0.159369907278217, 0.1584670959727792, 0.15751294901978982, 0.15656284648617774, 0.15558665933845678, 0.15462079346494023, 0.15358976978333894, 0.1525364694676974, 0.15146115521186646, 0.15036410632572264, 0.14921381632915362, 0.148078220820628, 0.14692003809236012, 0.14573986406326084, 0.14453827684453424, 0.14340528226775098, 0.1421512364958202, 0.14093611706112402, 0.13964562105403808, 0.1383431082392678, 0.13689892503963155, 0.135587460798728, 0.13436105362849046, 0.13299661124185408, 0.13161958574174806, 0.1302180478907327, 0.12881742802758211, 0.12732226937530222, 0.12590615487475193, 0.12447305207929601, 0.12310548320940236, 0.121631142656484, 0.12011553758934869, 0.11862653807542567, 0.11712682746569504, 0.11562096842451701, 0.11410110017329947, 0.1125228294523379, 0.11099238708110837, 0.10945158455675101, 0.10794115201727997, 0.10637749099267581, 0.10475881139573139, 0.10319131011856049, 0.10161676347224043, 0.10003810059873437, 0.09845199009850451, 0.0968974124777213, 0.09529908854526269, 0.09370009254529624, 0.09209689751463955, 0.09049841332556031, 0.08896798244742678, 0.08736240569504353, 0.08576210462576293, 0.08415114232334839, 0.08256336385596164, 0.08099397320501832, 0.07941366213317959, 0.07783919503285082, 0.07619527111205258, 0.07464276709463744, 0.07309266761897917, 0.07154591252794158, 0.06998947904504486, 0.06845379779080377, 0.0669232178532059, 0.06536681217567995, 0.06385302970274805, 0.06238876809967999, 0.06088203383776398, 0.05938545658291486, 0.05796910586480424, 0.05648554024859663, 0.05500557390213025, 0.05355446683494112, 0.0521180737451349, 0.0507044492448157, 0.04929682457981311, 0.04786104066771481, 0.046490209498901855, 0.045132778449239054, 0.043793257794095146, 0.042463707996728106, 0.041197025862092784, 0.03989221591020293, 0.03860611635342023, 0.03730496671879003, 0.03606068066837733, 0.03483140396678694, 0.03362175115436143, 0.032429747328056084, 0.031204093346561695, 0.030055043369878305, 0.029023202954679635, 0.02789376889915664, 0.026787300346892494, 0.025649941473115858, 0.024595664162928438, 0.023588727393270816, 0.022570320968272058, 0.021573689759364047, 0.020525384196307863, 0.019581884797482855, 0.018660301873689427, 0.017752878477998595, 0.016864939195068648, 0.016004959405377613, 0.01515650034079385, 0.014315464946836744, 0.013511740565520083, 0.0127291382144867, 0.012019677731747528, 0.011273765204768941, 0.010600470257611119, 0.009898156840311886, 0.00922305395033847, 0.008552746515955412, 0.007933235299881295, 0.007290524546098587, 0.006725836651542879, 0.006182565564507444, 0.005742409460277795, 0.005232253014379163, 0.004667115509096748, 0.004219743436713269, 0.003793279698800978, 0.0034734071976813196, 0.003078561234307573, 0.0026662253205393107, 0.002328803700012611, 0.0020140603308999878, 0.0017616214294786233, 0.0014868289090061997, 0.0011948230545338015, 0.0009739096411767243, 0.0007743130889224485, 0.0006317619265041374, 0.00047011571782183383, 0.0002978170694263383, 0.00018633971397466375, 9.537056461034474e-05, 5.465980801249787e-05, 7.281266555364898e-07, 1.6438018864359833e-05, 0.0, 7.488121800158595e-06, 3.024412369890006e-05, 8.452491086145402e-05, 0.00010467800949103153, 0.00020855914497408485, 0.0003299000572275257, 0.0004766718412504886, 0.0006319579600876815, 0.0009045019980554045, 0.0010828470978405057, 0.0012843705364538767, 0.0014703466438972031, 0.0017202030415585192, 0.0020421452511293126, 0.0023216266907130725, 0.0026217030234625674, 0.0028998155562813587, 0.0032439734238135314, 0.0037214008085293747, 0.0040824382053068695, 0.0044654786719794505, 0.004829549296082639, 0.00525808269302407, 0.005752771272088514, 0.00620738066206339, 0.0066801500029916965, 0.007209951970519425, 0.007711462945342717, 0.008236939982091133, 0.008772737550651617, 0.009325041881941396, 0.010004336394503648, 0.010573197803709525, 0.011146691654707512, 0.011757143754284358, 0.0123844350723166, 0.013124924981770418, 0.013770600625141013, 0.01450142291761126, 0.015176426189963484, 0.015871869386954045, 0.01656421853194837, 0.017298506839354435, 0.018137052243721273, 0.018888735318617938, 0.019658531022516336, 0.020449013222550043, 0.021250517225570427, 0.02204881276764629, 0.022881014121026923, 0.023725179155245545, 0.024668239895209786, 0.025523794235451147, 0.026345216080669354, 0.027237177065726183, 0.028140069010277272, 0.02911717783654436, 0.030033001036429342, 0.03096653194888951, 0.03190865755211097, 0.032863523755182804, 0.03383262379923495, 0.03481132227121974, 0.035877165542057235, 0.03686926168964609, 0.03787670549637914, 0.03889275632577737, 0.039929437116507406, 0.04094535794434655, 0.04201196446298245, 0.04308897161995048, 0.04420223236857849, 0.04529684295547974, 0.046399448849436795, 0.0475183796007763, 0.048648852947351294, 0.04984054704784731, 0.050987814691378634, 0.05216933532961102, 0.05334250750819085, 0.054530568682646954, 0.055735140939825754, 0.0569517070186468, 0.058178418441984674, 0.05942354854045898, 0.06068227215809473, 0.06200821243026313, 0.06328725075691868, 0.06459282240446258, 0.06590343018895117, 0.06723054458546407, 0.06844865796793699, 0.06982383083816078, 0.07129330731017508, 0.07267627007493441, 0.07407464344540465, 0.07543884013648669, 0.07687465406497855, 0.07830757708077231, 0.0797719972583158, 0.08124965638376669, 0.0827551138256386, 0.08425938930863971, 0.08587491102125254, 0.08739923007704174, 0.0889455797317259, 0.09044004900958275, 0.0920387348137923, 0.09371210164404128, 0.09533803140029005, 0.09698512916382913, 0.09854801999800207, 0.10025072851366489, 0.10201048175964382, 0.10373947142383552, 0.10548793780118212, 0.10723847507849435, 0.1090295904857724, 0.11089822626631392, 0.1127224009256119, 0.11456090079619069, 0.11643493135887568, 0.11833284857792316, 0.12027276167637635, 0.1222168721044871, 0.12414683998651364, 0.1261473267259015, 0.12817148573483614, 0.1301621875168917, 0.1322424994097025, 0.1343765443533104, 0.13649763397766648, 0.13864424380119628, 0.14081294890600693, 0.14301272823185035, 0.1451976444151959, 0.1474569699472842, 0.1497418373228259, 0.152086843362107, 0.15442088379947547, 0.15678858425710676, 0.15918186296881132, 0.16160578120893943, 0.16414016222058037, 0.16661625808977662, 0.16908665730801617, 0.1716397836851641, 0.17422601907958243, 0.1768057561611467, 0.17946368971887397, 0.1821311267192097, 0.184855072745713, 0.18761015815128715, 0.1904785104295507, 0.19328743043799537, 0.19608215625639644, 0.19897243048730545, 0.20189703829439973, 0.20481459225383192, 0.20781418548301925, 0.2108706288236765, 0.21393384279276792, 0.21703261505327937, 0.22011560506562813, 0.22329301535053994, 0.2265219107173875, 0.22976493359465924, 0.23304384646818604, 0.23635507141378087, 0.23970741499139747, 0.2430786005447944, 0.24650697402788105, 0.24997164918353182, 0.2535505187551298, 0.2570790720363328, 0.2606234158894452, 0.2642381063417037, 0.26789223546692414, 0.2716194815119576, 0.27534788498046575, 0.27909742112006974, 0.2829099774404594, 0.28676170403338563, 0.2906723199923875, 0.2945994072514795, 0.29851066711466284, 0.30252413346261303, 0.30657370238126846, 0.3106814095547825, 0.3148008914669019, 0.3189223136609923, 0.3231216267782792, 0.32735638013899676, 0.33162670389037074, 0.3359326770081037, 0.3402405410063578, 0.3446221330630542, 0.3490374387035063, 0.3534687446357421, 0.35795419365036285, 0.36253229802207143, 0.36707638249890867, 0.3716570083917735, 0.3762697003157576, 0.3809224081599436, 0.38553836956794096, 0.39026925988145944, 0.3950299720195661, 0.3998861723743548, 0.4046983784346376, 0.40952221054388616, 0.4144034831478691, 0.41931566568429224, 0.4242821109206601, 0.42925157977484, 0.43418018215194537, 0.43921932007580256, 0.444283627197407, 0.44946833776479517, 0.45457033653271656, 0.4596743143318936, 0.46483831171752354, 0.47002833195023636, 0.47520577979710643, 0.48045013259713587, 0.4856602529307289, 0.49095396265963276, 0.4962648883395346, 0.5015968559293509, 0.5069411733904425, 0.5123499234405544, 0.5177212410055088, 0.5231110447898488, 0.5284885852847321, 0.5339163187704986, 0.539352076742224, 0.5448078231771774, 0.5502757544676117, 0.555778984119524, 0.5612660188141305, 0.5666390354255049, 0.5721632737948541, 0.5776896160221234, 0.5832577771210505, 0.5887830582583349, 0.5943797615749143, 0.5999034717936138, 0.6054333352882794, 0.610956062150499, 0.6164956686683722, 0.6219492730546018, 0.6275016324434936, 0.633048118689104, 0.6386180447356556, 0.6441474266145149, 0.6496191811194362, 0.6551422273668033, 0.660654449445102, 0.6661413165514473, 0.6716317192480102, 0.6771839686532913, 0.6826367405874997, 0.688078568051081, 0.6935079970141012, 0.69892359370341, 0.7043080425827368, 0.7096937595245832, 0.7150605614104495, 0.7203137947446028, 0.7256508705973814, 0.7310236837016303, 0.736296499239841, 0.7415439548726606, 0.7466893498560533, 0.7518921110493845, 0.7570199899471348, 0.7621611533073023, 0.767265569503235, 0.7724182977683433, 0.777437082998713, 0.782422388011214, 0.7873728351325038, 0.7922870585295785, 0.7970841999961683, 0.8019319803606734, 0.8067330650808758, 0.8114910049733749, 0.8162027080247247, 0.8208972051360917, 0.8255102624302345, 0.8300365034494224, 0.8345592989565892, 0.8390304756137434, 0.8433955219173056, 0.8477676695572978, 0.8520745868666274, 0.8563326647707583, 0.8605319092339363, 0.8646856381033202, 0.8687636038165145, 0.8727596767077808, 0.8767194683718152, 0.8806162151384944, 0.8844948769165751, 0.8882574486445275, 0.8918518201615147, 0.8955007764730316, 0.8990785446251771, 0.9026384636705508, 0.906066010346476, 0.9093605676554354, 0.9126564177050568, 0.9158773804710896, 0.9190468590131998, 0.9221136309560192, 0.9250437348891439, 0.9279674114664496, 0.9308110050602485, 0.9335622895567776, 0.9362462612821668, 0.9388861660399455, 0.9414013347528272, 0.943776384438477, 0.946137353770196, 0.9484129753779031, 0.9506208715389601, 0.9527226880688304, 0.9547551242156511, 0.956683834871156, 0.9585270828040201, 0.9602921459590659, 0.9619614619234449, 0.9634762156689678, 0.9649794278130768, 0.9663905298425471, 0.9677313063982973, 0.9689551495904848, 0.9700261526868827, 0.9710749932609731, 0.9720284651042363, 0.9729642459627038, 0.9737176098085403, 0.9743862542334567, 0.9749569077607668, 0.9754360793406269, 0.9758033506690141, 0.9761004981317217, 0.9761922725605753, 0.9763151314938043, 0.9763372471583558, 0.9763428209940298, 0.9761549773216588, 0.9758968554326473, 0.9755175729445845, 0.9750452034371643, 0.9743999504278709, 0.9737506397266763, 0.9730845625516329, 0.9722289394527424, 0.9712806194945426, 0.9702155526427775, 0.9690843221538348, 0.967862622650149, 0.966542175331804, 0.9651278864917372, 0.9635285298281953, 0.9619387645887633, 0.9602507406059149, 0.9584654970217442, 0.9565840137292683, 0.9546072195963791, 0.9525360000038117, 0.9503652408803437, 0.948108440321501, 0.9457593407965043, 0.9433485790961229, 0.9408135592191216, 0.9382320650322269, 0.935515875548046, 0.932714910255388, 0.92977376372939, 0.9268110929534877, 0.9237614607020633, 0.9206257491951885, 0.91740484081302, 0.9140896824011863, 0.9107022962892097, 0.9072159253422449, 0.9036653661661402, 0.9000327990027001, 0.8963233129735013, 0.8925295571119307, 0.8887706204917069, 0.8848066473489709, 0.880772674007211, 0.8765754352886492, 0.872413850318772, 0.868269258257835, 0.8639484709585766, 0.8595608428889298, 0.8550710961720047, 0.8505559018215164, 0.8460133833242648, 0.841360056535695, 0.836644014992029, 0.8317865532078288, 0.8269576038138174, 0.8220223441883096, 0.8170711666018113, 0.8120563208695757, 0.8070572471994331, 0.8019109726341442, 0.7967050107036285, 0.7914531775632905, 0.7861495927892265, 0.7808372473009086, 0.7754286585036684, 0.7698492633260123, 0.7643663155422245, 0.7588327770017281, 0.7533203171984841, 0.7476830349343647, 0.7420329838027646, 0.7363123329772924, 0.7305553451858889, 0.7247671424669034, 0.7189404597378592, 0.7130056939331302, 0.7071246810140341, 0.7012093647884622, 0.6953212738455606, 0.6893354648218749, 0.6832606583504802, 0.677233395839818, 0.6711797783351916, 0.6651175559015461, 0.6590147212838, 0.65293159576701, 0.6467852496620963, 0.6406242766965925, 0.6343644584703602, 0.6281888105835014, 0.6221088659167948, 0.6158899418226402, 0.6096656012257564, 0.6034209236561743, 0.5971907571735843, 0.5908858287905712, 0.5846595505931945, 0.5784285847487481, 0.5722882232945923, 0.5660416383572779, 0.5597016908013617, 0.5534806798223502, 0.5472621037451456, 0.5410537902322117, 0.5348448638460892, 0.5287295918495787, 0.5225278817896426, 0.5163424113815405, 0.5100866070937708, 0.5039473673411577, 0.49786795989293986, 0.49175288805587847, 0.4856578716669627, 0.47957620064812295, 0.47352601945435724, 0.46745145811171623, 0.46145524732963483, 0.45548225521808977, 0.4495023281128389, 0.44358467613751407, 0.43773694619818676, 0.43186788229757767, 0.42603084011095643, 0.4201952351191212, 0.4144298822388766, 0.40874604086023814, 0.40304366865293, 0.39738051576094136, 0.391693881529947, 0.3861199170050371, 0.3806578475965025, 0.37515269693341907, 0.36969276931710504, 0.36424893206405407, 0.35888527853359864, 0.35360303451304503, 0.3483270754117213, 0.34310063833049353, 0.3379124143502859, 0.33278839127677345, 0.32765944996066126, 0.32264467171153627, 0.31767897185786403, 0.3127615277052861, 0.3078976628502103, 0.303046307720564, 0.2982929822793619, 0.29359160745986174, 0.28900698172119493, 0.2844049587983129, 0.2798657474320367, 0.27538132311862323, 0.2709568059817114, 0.2665488451973738, 0.262250793900886, 0.25797949998463676, 0.2538032894504989, 0.24968520084047427, 0.24560223236669868, 0.24160587112592313, 0.23770835706737958, 0.2338259743794729, 0.23000645872614417, 0.2262521223016226, 0.22255902688979243, 0.21895561592749638, 0.21538714964190409, 0.21188436031277935, 0.20836172065970654, 0.20500091066832762, 0.20177831243512248, 0.19852970854142216, 0.19534729408661247, 0.19219113612086153, 0.18914558438018536, 0.186181334640504, 0.1832604805492756, 0.18040625180420972, 0.1776143237412382, 0.1748869267468699, 0.1721722250513062, 0.16957993159062995, 0.16708252699638856, 0.1646083596705073, 0.16219751670855587, 0.1598458148661097, 0.1575614721718439, 0.15531965041840534, 0.15316236078526194, 0.15106581605982014, 0.14899408930847577, 0.14702306254643216, 0.1452155323538507, 0.14334750106307192, 0.1415434800789747, 0.13980646730863364, 0.1381270759301589, 0.13648327242037459, 0.13492910781155595, 0.13343316474511285, 0.13201469424037413, 0.13063080423925724, 0.12930834540304958, 0.1280380718017718, 0.12682390660858664, 0.12560741134661238, 0.12451037157958082, 0.123447948990322, 0.12245365356949893, 0.12150832738830054, 0.12063952259332758, 0.11978773249047545, 0.11899541086291894, 0.1182407589686749, 0.1175348435678556, 0.1167993634547189, 0.11619836174340137, 0.11571887466829417, 0.1151916558712498, 0.11471045482445752, 0.1141868305292847, 0.11380577383731921, 0.11351457245219614, 0.11320307622560588, 0.11293205583823684, 0.11275434610199858, 0.11255498442645764, 0.11238663611085672, 0.11226913107585619, 0.11218945697335071, 0.11210075725732226, 0.11209912612750335, 0.11211549564272645, 0.11217874563538936, 0.11227168950719926, 0.11234995344411823, 0.11250583881145869, 0.11276046178735778, 0.11295704740099975, 0.11318210083634801, 0.11346034547411248, 0.11373573849878144, 0.11401191616678978, 0.11434255088081573, 0.11469585463024873, 0.11503108834163378, 0.11543180468528773, 0.11587387566502533, 0.11630594044008558, 0.11675553066583697, 0.11722374025801034, 0.11770544826629215, 0.11818422235144391, 0.11869719209857876, 0.11922229760287953, 0.11975679356979392, 0.12030413570147727, 0.12092280799433254, 0.12148101334753443, 0.12205083366419321, 0.12257135579855377, 0.12316814796865995, 0.12374169336045356, 0.12435051493171066, 0.1249610422674752, 0.1256443769001754, 0.12624787274993868, 0.12676816812552322, 0.12739010341233695, 0.12800917680985074, 0.12872244706738786, 0.12932243272812133, 0.1298384181029029, 0.1304509050658479, 0.13105765044319787, 0.13163835389463688, 0.13223482849992566, 0.1327972539890877, 0.13338023820862913, 0.13395285092339546, 0.13455663402834034, 0.13510257943083495, 0.13569739170769093, 0.13621783026846557, 0.13673139648660787, 0.1371654201364278, 0.13767100887163605, 0.1382361031302619, 0.138703971067349, 0.13916121473763166, 0.13948959555641613, 0.13993757387164563, 0.14038351351044295, 0.14078952618364435, 0.1411768508064772, 0.14155530830548377, 0.14190361591165027, 0.1422452737293221, 0.14255464131180984, 0.14284553106015577, 0.14316525317824416, 0.1434119863336132, 0.14357418807406244, 0.14379481298304614, 0.14399325586321915, 0.1441515371457361, 0.1443075885765912, 0.14448982637296715, 0.1445926010852233, 0.14467466393833067, 0.144761423503997, 0.14479753734581313, 0.14480723321305153, 0.14480264808972051, 0.14477624311706594, 0.14476937042715962, 0.14469292729019412, 0.14455224071843423, 0.1444396913379988, 0.14430304231509344, 0.14409647420843863, 0.14391711456951645, 0.14370686457779275, 0.14347450137222736, 0.14321562089581166, 0.14293052847704, 0.14261950532323045, 0.14229076247611722, 0.14192763691026014, 0.14153975917555078, 0.14117697274143728, 0.14073376588094655, 0.14032470605386937, 0.13983120502155444, 0.13931888395282002, 0.13869174688252284, 0.13815217842143987, 0.13767043855718852, 0.13706946658833055, 0.13644841860374235, 0.13580505683585464, 0.13514342791447043, 0.13442727615309294, 0.13372841162219745, 0.1330068865594667, 0.132318683174088, 0.13154579655448628, 0.1307305357690208, 0.12992352766601642, 0.12909653842196933, 0.12821599979991607, 0.12735401277452038, 0.12643710533192476, 0.12553769913201906, 0.12461639391175136, 0.12368792102431962, 0.12272346888127128, 0.12178792852491455, 0.12078045092066113, 0.11975801808475227, 0.11869297535224443, 0.117644700514191, 0.11652089580155928, 0.11544884689491151, 0.11435852697612497, 0.1132866782586953, 0.11215812747511081, 0.11110348857548989, 0.10993730803779997, 0.10876351380075903, 0.10750239926482744, 0.10632290636992274, 0.1051925871757508, 0.10398108063099303, 0.10276189549209103, 0.10152125139305065, 0.1002889143364658, 0.09901486441664888, 0.09777132606892204, 0.09644916840174904, 0.09519700391077575, 0.09393323174480063, 0.09268887465866166, 0.09140165853930173, 0.09019733096456461, 0.08888643677696137, 0.08757545440997819, 0.08623850416757663, 0.08493055371670363, 0.08364895347595326, 0.0823348713270403, 0.0810215744018487, 0.07970524310373361, 0.07839453063871993, 0.07707106268196111, 0.07576473243305586, 0.07445942153194855, 0.07312976196979518, 0.07183117707471438, 0.07047396608558816, 0.06918562100883457, 0.06789630032398594, 0.0667045277177357, 0.0654042535371199, 0.06400032280523014, 0.06272955106400278, 0.061460477328985096, 0.060214070262373444, 0.058949074444837796, 0.057753533360976675, 0.056492904775179154, 0.05524306902595713, 0.053962401858166816, 0.05273980490207404, 0.051518137338545954, 0.05031483288874647, 0.04912099533288859, 0.048010715913150454, 0.04682813546657063, 0.045573264842214196, 0.04443195653716998, 0.04330072644628098, 0.042263740792661576, 0.04114412547835912, 0.03998355834593789, 0.038904498424335486, 0.037838718959992745, 0.036836353158114274, 0.035792160465118086, 0.03469772805524686, 0.03369674544325851, 0.03270931605265225, 0.031767832943558824, 0.0308052200395671, 0.029835742695630326, 0.02891033640560158, 0.028001010205889753, 0.027076365657548146, 0.026204403381534607, 0.025409482153496993, 0.024561161003943555, 0.023732832361411826, 0.022870813302853853, 0.022089218878717454, 0.02131465988807462, 0.02056872320138748, 0.01984006623323188, 0.01922255587221151, 0.018517946189393, 0.01772377338923381, 0.0170805175077205, 0.016453824697158715, 0.015876080560321137, 0.015280175494848227, 0.014805538053693976, 0.01423675449403997, 0.013693818857238006, 0.01308259953722358, 0.012601113961293882, 0.01220790121517106, 0.011755294912851872, 0.011325790848284152, 0.010940891878750553, 0.010553785738647513, 0.01017612993716434, 0.009837081692449842, 0.009519808429691278, 0.009148556641979002, 0.008883734870755463, 0.008713362533743938, 0.008473049265319938, 0.00825484759584356, 0.007951130955378406, 0.007789862567560738, 0.00777107595208689, 0.0076249054386501505, 0.0075023234727119555