0.04187893593437449, 0.04161419382598305, 0.041435867426735024, 0.04127733149623619, 0.04112708369955115, 0.04098830301524085, 0.04086795383719245, 0.04074606035104967, 0.04062468210068675, 0.040517470704356594, 0.04041524483621808, 0.0403329207740944, 0.04023662223491097, 0.04010699723441883, 0.04002306216481618, 0.039940225719837706, 0.039892420123053454, 0.03980760647800109, 0.039725997410362486, 0.039647466159248426, 0.039571948443703105, 0.0395020424408542, 0.03943223724285311, 0.03929439334562419, 0.03924021157736567, 0.039185493171279825, 0.03916747210674599, 0.03910915646179997, 0.03906478237898605, 0.03901243991267241, 0.03896473958831652, 0.03893316614561573, 0.03889386764727987, 0.03881083548164092, 0.038789555160896036, 0.038771522907455336, 0.03872247121428143, 0.03871682783261963, 0.03869911177138949, 0.03870142837582637, 0.03870690249761059, 0.03872054330586204, 0.03873369662214043, 0.03875985548888167, 0.03878281278648661, 0.03881220834169559, 0.038889188972398264, 0.038927104064042324, 0.03890233521567552, 0.03896821614434339, 0.0390392938285668, 0.03912649193840382, 0.03920805812307186, 0.03934193195621992, 0.03943222765365992, 0.03953264562764568, 0.039596946468134595, 0.03972299283727272, 0.03983618027096182, 0.03997931685365861, 0.04012900894457522, 0.04028130241975608, 0.04044579510626771, 0.040675050573055455, 0.04084735932115435, 0.04103087452114884, 0.04115757482222578, 0.04137151078049041, 0.041606254422642534, 0.04183265821801579, 0.04206756764034184, 0.04229818442718864, 0.042552467591355045, 0.042880414189933186, 0.043143651094452305, 0.043419568703615345, 0.04364963571925312, 0.04395750215452682, 0.044327996805970445, 0.044646802340793885, 0.04497796326946981, 0.045237845919720354, 0.04560382241362554, 0.04605621086124529, 0.04642736046851025, 0.046811386935881424, 0.04717945427440882, 0.04759246720274463, 0.04802597644671656, 0.04845981813975769, 0.04890547203228255, 0.04928824762251018, 0.04976724563432849, 0.050271522133218886, 0.05076479658789437, 0.0512682597134443, 0.051825807083158745, 0.05234536938444011, 0.05281783299125808, 0.053372579552606124, 0.053937599093672114, 0.054567267380879934, 0.05514736471161579, 0.055747227600680425, 0.056355655578290496, 0.05697872708507587, 0.05760588933827342, 0.05825922891708291, 0.05888110781024651, 0.05956768433060645, 0.06026550485743082, 0.060997556155398626, 0.061716100965665155, 0.062395998197551365, 0.06314826096468851, 0.06391125978735542, 0.06475415943603062, 0.06553130533576916, 0.06625733301973119, 0.06707436496025464, 0.06790300250871811, 0.06876966492404053, 0.06961916909369596, 0.0705199921001289, 0.0713926207441496, 0.0722812508749029, 0.07316381670935246, 0.07408624271088923, 0.0749503805519248, 0.07590961712351825, 0.07687853121030887, 0.077933270939714, 0.07891340535512252, 0.07987397182804658, 0.08088862019506077, 0.08191593318543326, 0.08291679319134582, 0.08397439439929243, 0.0851093924001596, 0.08617969177434939, 0.08726468748399858, 0.08828314955697225, 0.08940668692592357, 0.09054456731613594, 0.09168604208852382, 0.09283756100098121, 0.09405669106195512, 0.09522153349011966, 0.09640699668570922, 0.09759787717419119, 0.09880201092353456, 0.09996680148185817, 0.10120278408777421, 0.1024713612393134, 0.10372267055675359, 0.10498449911608741, 0.10620795881784613, 0.10749638926392656, 0.1088085226259129, 0.11010940805214385, 0.11141870761674465, 0.11276853700705379, 0.11409040148836377, 0.11537180580067098, 0.11671959842175218, 0.11807376194779946, 0.11944650515003452, 0.12081193681310934, 0.12220179867412251, 0.12357893596572071, 0.1249637188325663, 0.1263792724237156, 0.12777532563442337, 0.12912625331624, 0.13054430605280803, 0.1319662503161734, 0.13344680231288686, 0.13486938253694722, 0.13625603841935224, 0.13769677460242252, 0.1391406430621218, 0.1405944045894294, 0.14204305360407335, 0.1434676301389794, 0.14492514854270705, 0.14638342262805257, 0.14789973856921768, 0.1493519313169367, 0.15073640052734028, 0.1522041061823917, 0.15367011085217339, 0.1551378727200293, 0.15659993083784798, 0.15808985510151016, 0.1595446099473954, 0.16099895414490356, 0.16243850943333016, 0.16389239779635628, 0.16539327266587264, 0.1668354037681606, 0.16827705087315087, 0.1696609391084959, 0.17110653453165842, 0.17256719155734906, 0.1739983454953336, 0.1754244583141024, 0.1768042562000929, 0.17822423199506132, 0.17971303609762804, 0.1811060320616559, 0.18244852842858242, 0.18383773924419808, 0.18521843131781515, 0.1866198414669518, 0.18797876912435385, 0.1893089610399907, 0.1906542009687989, 0.1919892424173591, 0.19327892433334337, 0.19459682110809648, 0.19592837186643394, 0.19721615081981497, 0.19849188859392802, 0.1997343227804629, 0.20098743124636925, 0.20220526904362734, 0.203431977814605, 0.20464262446613207, 0.20584579667397898, 0.2070228592425045, 0.2082204339151645, 0.20936058486187514, 0.21048620014520564, 0.21162536630742743, 0.21271648411634123, 0.2137068420923485, 0.21477871291696707, 0.21582957467607408, 0.21686204467205367, 0.21787053825833771, 0.2189302297781874, 0.21988751959232672, 0.22082758496145843, 0.2217279154120964, 0.22263401104411334, 0.22347166468688975, 0.2243421062664702, 0.22518833668708726, 0.22601639635074167, 0.22681326324212506, 0.22762689307022416, 0.228370201980687, 0.22909131771898344, 0.22980187154997797, 0.23047546568535754, 0.23113992249929, 0.23176510165950198, 0.23236693416944945, 0.23287526049755955, 0.23343744211161593, 0.234039397478556, 0.23453514364651848, 0.23500596123803394, 0.23544088338862995, 0.2358616065591778, 0.2362422969685871, 0.23661035594389299, 0.23695004937361466, 0.2372551059200628, 0.23753828988997844, 0.23773745283324685, 0.23796896168836937, 0.23816792064506126, 0.23837204285662117, 0.23850209485519555, 0.23863816486728692, 0.23870432816075338, 0.23874262561745271, 0.2387396130599661, 0.2387226615103988, 0.23865341278691354, 0.23857975021332495, 0.23847476824501462, 0.2383011057535153, 0.23813828887378868, 0.23800994142495896, 0.2377721597489274, 0.23750542200384453, 0.23720246842417197, 0.23687782500348656, 0.23650564575609792, 0.23612276888362332, 0.23570851303246376, 0.23522640507423176, 0.2347541511054826, 0.23423122989445314, 0.23369497403584769, 0.23312514149534722, 0.23253521052593398, 0.23189784205056735, 0.231265338635633, 0.23056026874937993, 0.22982602948359115, 0.22907643979252695, 0.2282818517026824, 0.22742563800678572, 0.2265779346347579, 0.22569958258560424, 0.22479079730354876, 0.22385179468577177, 0.22290887734468245, 0.22190679690709503, 0.2208766241712431, 0.2198018567498284, 0.21871767383687457, 0.21763157180200268, 0.2164864717282579, 0.21531449685173493, 0.2140391711023632, 0.21282327822549685, 0.21163643857561337, 0.21035183048755857, 0.209041110863966, 0.2076540323530479, 0.20629804037501073, 0.20490068192713082, 0.20349034387589401, 0.2020522235264538, 0.20061832092355256, 0.19912273448847623, 0.19757615391084585, 0.19603624383254425, 0.19447148214255716, 0.1929172255487506, 0.19130007266281968, 0.18962778181655512, 0.18797270724253742, 0.18629501524360378, 0.18459874524916284, 0.1828770490264568, 0.18116239962888778, 0.17939612911263086, 0.1776116352674655, 0.17581701108963174, 0.17399590941281115, 0.17214138136622414, 0.17028883416729101, 0.1684190372620519, 0.16661158117743283, 0.164698685697124, 0.1627091900573679, 0.16078161934417698, 0.15883879580135016, 0.15689952177504607, 0.154925517993673, 0.15298414593030826, 0.15097967290991413, 0.1489660031590841, 0.14698757480713742, 0.14495024922386668, 0.14294233237979115, 0.140887929693929, 0.1388292030939413, 0.13670595682621364, 0.1346456779611413, 0.13267394111349007, 0.1305860919137838, 0.12849686326630835, 0.1264165283351931, 0.1243228493343452, 0.12219343335171087, 0.12010229090318532, 0.11800843361902222, 0.11596192287350776, 0.11385790336347938, 0.11176685342877642, 0.1096649294211199, 0.10756576259421376, 0.10553914982494148, 0.10343747879921475, 0.10130598260907706, 0.09922402114992579, 0.09714734959164588, 0.09516937676932688, 0.09309269012503087, 0.09100778383929421, 0.0889569468423778, 0.08691641969173888, 0.0849767946992303, 0.08294602540486877, 0.0809600573170781, 0.07895752507743665, 0.0769721546827182, 0.07497494391907054, 0.07302674141102551, 0.07111009486615218, 0.06919017493654823, 0.06728688779623213, 0.06542661498500668, 0.0635542520670629, 0.061741065945958386, 0.05990226802299266, 0.058085489132295484, 0.05636644613325386, 0.05458444185329964, 0.05280221986561377, 0.05107680044343859, 0.0493761466811643, 0.047786514779309994, 0.046125113056405216, 0.044504494209994, 0.042902161104122274, 0.041344191674778145, 0.03980086662354622, 0.03828861829235143, 0.036796983650732806, 0.03534822436175549, 0.03394929512322958, 0.03255984578212137, 0.031202881568641094, 0.029950850291319813, 0.028650628369361518, 0.027399253937204302, 0.026172544865905506, 0.024983831053000075, 0.02386785990234828, 0.022750735238026447, 0.021619821510939857, 0.02058968939130247, 0.019596619873972952, 0.018718547914222772, 0.01779148521102323, 0.016941438315166577, 0.016096268953830928, 0.0152961329720312, 0.01455740590087464, 0.013844909815587548, 0.013160828291054517, 0.012542118579712085, 0.01196827462367973, 0.011475214550785038, 0.010987442944051382, 0.010532683578132671, 0.01014245927166534, 0.009799440305546702, 0.009551769901750197, 0.009298105368659437, 0.009098851022178667, 0.008946618545173314, 0.008845590551846019, 0.008766299193036203, 0.008771753333482063, 0.008808050249438383, 0.008916326235126065, 0.009074419211586223, 0.009281200399883784, 0.009540953926973832, 0.009939136195122942, 0.01029140528107031, 0.010701113244837109, 0.011109807938904526, 0.011641236251077276, 0.012223819648730913, 0.012863542818434976, 0.013557741702219123, 0.014359880369994561, 0.015157577266835785, 0.01598437636333768, 0.016903080419250857, 0.017878701314415935, 0.018930606544010103, 0.02001835249970302, 0.021199567752314297, 0.022400360677554645, 0.023661938458184675, 0.024907591216782904, 0.026299873625432412, 0.027830785979791956, 0.029325206121344316, 0.030881294395216318, 0.03247273207318052, 0.034154792285579175, 0.03586516333970012, 0.03767048290883921, 0.03953380766003249, 0.041513715810759744, 0.04348661336644862, 0.04544425800718316, 0.0475509569693449, 0.04971497501056709, 0.05199499240956668, 0.05426749558778982, 0.056606906318971716, 0.0590019258581279, 0.06145853083469074, 0.06393649906429857, 0.06652066989903477, 0.06914441299742323, 0.07184853222504231, 0.0746104989318844, 0.07749226205205366, 0.08036271094773333, 0.08329670861252442, 0.08629013743035863, 0.08934465638880602, 0.0924407439156534, 0.09561870216042215, 0.09886859258510598, 0.10216248717357394, 0.10551560652054101, 0.10884763858428119, 0.11232837170220047, 0.1158576768303434, 0.11944697619937118, 0.12309034719784616, 0.126806263053112, 0.1305560352210512, 0.13441697639687036, 0.13827061621853493, 0.14218258562029157, 0.14609483767974768, 0.15012876562123884, 0.154191541299772, 0.15833479478568674, 0.16252955145403744, 0.16681230218855145, 0.17110530151810463, 0.17543593859466974, 0.17983700355920712, 0.18428948634808526, 0.18877387145534352, 0.19333042355071803, 0.1979282595863349, 0.20258371521668386, 0.20728719137019325, 0.21209575666008398, 0.21688702039876506, 0.22172410095148123, 0.22661534915334564, 0.23155475539953455, 0.23649281643539552, 0.24153227765515065, 0.24662781759198793, 0.2517513219807012, 0.25691779514220237, 0.26207537585334706, 0.26733257094541507, 0.2726455037858809, 0.27797698894129386, 0.2833473163676939, 0.2887499224578408, 0.29419723312925916, 0.2997232339807048, 0.3052386384094122, 0.3107922285931192, 0.31637697607871884, 0.3220048930189639, 0.3276165603676442, 0.33332020284416564, 0.33905429207821985, 0.34480707505045366, 0.3506020872337708, 0.3563862858767011, 0.36224237349766564, 0.36812352843196755, 0.37402077305238757, 0.3799522330972866, 0.3859106668534966, 0.3918882444700116, 0.3978885759470605, 0.403953673997697, 0.40999229476295823, 0.4160419565062125, 0.4221274673841665, 0.4282333596129358, 0.43435344615677396, 0.44049784295379846, 0.4466576570456293, 0.4528356378731792, 0.459028770184496, 0.4652343610411832, 0.4714551445951285, 0.4776663542467846, 0.48391324735832564, 0.4901691428729458, 0.4963575856054634, 0.5026385967770138, 0.5089592447243529, 0.5152397457048834, 0.5215239384698792, 0.5278154073597918, 0.5341041034303428, 0.5403186799659172, 0.5466190865124061, 0.5529149320689318, 0.5592197803689886, 0.5655036047674867, 0.5717979793537971, 0.5780689059883832, 0.5843341215939509, 0.5905413798749531, 0.5967987960197898, 0.603028186710219, 0.6092640771064696, 0.6154862568148627, 0.6216923843919726, 0.6278854843510602, 0.6340879795104205, 0.6402454723775388, 0.6463869532249102, 0.6524591757962033, 0.6585719870925105, 0.6646808511274997, 0.6707462492929162, 0.6767412023074979, 0.682766453965701, 0.6887644751623708, 0.6947155216903266, 0.7006595875403979, 0.706595046328046, 0.7124750328002433, 0.7183245463553205, 0.7241017816469114, 0.7298926720719192, 0.7356174662265919, 0.7413401939280023, 0.7470241257367054, 0.7526652367143399, 0.758270301395398, 0.7638884295453873, 0.769404270736545, 0.7748808072511316, 0.7802794025408519, 0.7856783277969748, 0.7910634522052364, 0.7963673110107955, 0.8016259968991655, 0.8068278828334163, 0.8119939805737099, 0.817019494930454, 0.8220975081763995, 0.8271190043913239, 0.8320828047097526, 0.8369903659142305, 0.8418941037777006, 0.8466788610230526, 0.8514078091319979, 0.856057278761167, 0.8606742914129563, 0.8652154225933572, 0.8697131087087636, 0.8741479877015346, 0.8784784585494873, 0.8827906679585583, 0.8870450835238864, 0.8912209132801451, 0.8953289643511546, 0.8993807862672316, 0.9033498428923462, 0.9072498562000236, 0.9110800367893233, 0.9148395932110414, 0.9185181698226941, 0.9221353164894104, 0.9256658958837762, 0.9291369411778823, 0.9325323259231653, 0.9358279759750987, 0.9390732049585492, 0.9423100651451785, 0.9453883612368874, 0.9483909254745422, 0.9513193250700164, 0.9541670265024064, 0.9568814006247405, 0.9595780238957311, 0.9621912586405205, 0.9646885609651527, 0.9671379585597203, 0.9695705755055424, 0.9718383580845994, 0.9740233932049329, 0.9760457954084143, 0.9780731036186657, 0.9800858531054393, 0.981925039311681, 0.9836790564920521, 0.9853368017505236, 0.9869198403669462, 0.9883987352776825, 0.9898081652116397, 0.9911281724350404, 0.9923793661138688, 0.9935171248699828, 0.9944815510323167, 0.9954516051913056, 0.9963271959764108, 0.997142593991186, 0.9978259989479478, 0.998402125694865, 0.9989042096666155, 0.9993136990976822, 0.9995976394992099, 0.9998263682452012, 0.9999591444899424, 1.0, 0.9999471789843047, 0.9998731377529689, 0.9996246775167448, 0.9992413039080226, 0.9988206625902212, 0.9983079704316823, 0.9976790242447175, 0.9969857474158964, 0.9962369023778656, 0.9953533577221062, 0.9943796914903532, 0.9932759635100212, 0.9921273167768958, 0.9908944027815679, 0.989561060443795, 0.9881370157913535, 0.9866165869047432, 0.9850131274324962, 0.9833172504946947, 0.9815349812002473, 0.979663718592143, 0.9777422331775324, 0.975689690386995, 0.9735127329174297, 0.9712947940425763, 0.9689898834450068, 0.9666534225339022, 0.9641695766567088, 0.9616089993440672, 0.9589608238375417, 0.9562315124436557, 0.9533457308662563, 0.9504647131041274, 0.9475394337771438, 0.944485938695761, 0.9413526004899707, 0.9380914591251441, 0.9348068116034901, 0.9315122855477544, 0.9280593097196616, 0.9245323392206181, 0.9208719580297685, 0.9172063757090051, 0.9134914099968751, 0.9096728018932722, 0.9057825914217874, 0.9017678388740639, 0.8977441638491636, 0.8937114199841577, 0.8895379320871365, 0.8852991444347352, 0.8809194153604704, 0.8765623610805151, 0.8722123454702487, 0.8677137949270415, 0.8631556499323304, 0.8584605599428012, 0.853795873064579, 0.8491326304770456, 0.8443393491008769, 0.839491657187346, 0.8345584342673229, 0.8296091697229575, 0.8245956191139923, 0.8195432057737149, 0.8144399406449374, 0.8092533748794081, 0.8040570625679613, 0.7988001602040498, 0.7935102446889861, 0.7881745686612128, 0.7827939700009181, 0.777371959128579, 0.7719821673795648, 0.766470876127654, 0.7609260191968882, 0.755283330981593, 0.7496824790070185, 0.7440786892491917, 0.7384070075208408, 0.7327060320313744, 0.726965765985408, 0.7212115633776707, 0.7154479058133512, 0.7096410922907264, 0.7038120866362173, 0.6979726162118962, 0.692101802737721, 0.6861480957372887, 0.6802514189522139, 0.674335929079667, 0.6683973583113186, 0.6624504206532187, 0.6565452951967287, 0.6505653878405795, 0.6445782033425815, 0.6385345230690261, 0.6325428200875985, 0.6265742728432981, 0.6205676927092436, 0.6145596801650919, 0.6084890010638894, 0.6024901493605497, 0.5965313271435475, 0.5905275042397801, 0.5845288139026027, 0.5785149370517881, 0.5725335027416837, 0.5665323734738302, 0.5605722706805467, 0.554621812102112, 0.5486731469446539, 0.542748270415398, 0.5368348677247504, 0.530940118707091, 0.5251225135652778, 0.5192560255411596, 0.513413105921348, 0.5075251705268687, 0.5017411302737202, 0.49600669171760275, 0.49026612120518015, 0.4845528195723963, 0.478893257314803, 0.47323504688973644, 0.4675561774570975, 0.46197042092323165, 0.456416045261547, 0.450877079971987, 0.44539187149787807, 0.44001595140062283, 0.4345917236690979, 0.4292089709057077, 0.42382491536740796, 0.41853272494050525, 0.41324433844893793, 0.40804036506159, 0.4028776634815259, 0.39779496578035484, 0.3927140441221949, 0.38767250233335754, 0.38268783766026093, 0.37775163588645855, 0.3728300025811385, 0.3679977561734224, 0.36327285965542616, 0.358532524644714, 0.3538466759009341, 0.3491514795133735, 0.34458427341000497, 0.34011644050792844, 0.33564917551417167, 0.3312389761498847, 0.3268985498042713, 0.3226025351407032, 0.3182988879444659, 0.31413037877096234, 0.31001823277485135, 0.3059503410681242, 0.3019552985640706, 0.29807586139620695, 0.294190832363105, 0.2903688358048583, 0.28658749574402603, 0.2828951095769493, 0.2792338576238792, 0.2756706909636216, 0.27216894844601536, 0.26879528717883827, 0.2654096992978535, 0.26201513756759115, 0.2587723273160106, 0.2555916920975783, 0.25254589958631724, 0.24948191763908026, 0.2464828485205565, 0.24355396619401412, 0.24069192917175988, 0.23782434513122003, 0.23510445961106924, 0.23245801842872252, 0.22986135228379656, 0.22732812167048388, 0.22483585307794482, 0.2224326995227533, 0.22008587027792362, 0.21780847216362617, 0.21559340406682553, 0.21345031297191427, 0.21135887795484082, 0.2093434093021062, 0.2073759966887488, 0.20547184466286075, 0.2036410230175351, 0.20186095512504199, 0.20013226295381434, 0.1984784622981553, 0.19688565333146596, 0.19535251219506156, 0.19388040938984838, 0.19250346473227087, 0.1911453543665935, 0.18984769674434696, 0.18856703844767592, 0.18739314468652976, 0.18628002703790073, 0.18521612158050368, 0.1842070916432143, 0.1833019171728421, 0.18239459971930577, 0.18152833370534305, 0.18073349506546826, 0.1799915739559961, 0.17931385518475854, 0.17867356975392998, 0.1780485823858615, 0.17751372232532606, 0.17702586596602976, 0.1765460852443159, 0.17615503551376113, 0.1758032707134648, 0.17549774295103082, 0.17523383300262343, 0.17508317403569845, 0.1748917115768266, 0.1747067577545369, 0.17460654710997817, 0.1745456240481065, 0.17455524528300304, 0.1745660703609066, 0.17458824667484968, 0.17467787755065142, 0.17480189377444258, 0.17496803130620375, 0.1751568306494, 0.1753697684662727, 0.17562242573640172, 0.17590448865644195, 0.17623148088127277, 0.1765672674113397, 0.17692080795575807, 0.17731128922628048, 0.17772625940566017, 0.17810553735401116, 0.17857379569254625, 0.17910874967816648, 0.17960627630178427, 0.1801233159552764, 0.18060835169881637, 0.1811675376913326, 0.18181406043750784, 0.18239008322939562, 0.18298228262427044, 0.18355364856305553, 0.1841786637515526, 0.1848425734590259, 0.18548338975006592, 0.1861340655921401, 0.18673165163234123, 0.18740623366002448, 0.18811059522841833, 0.18878677134645536, 0.18946594934453012, 0.19012632071476596, 0.19081131562408254, 0.1914753104549888, 0.1921600503051009, 0.19284108428349758, 0.19357514189353392, 0.19423950084826155, 0.1948482644055351, 0.19551301156922515, 0.19616984938367932, 0.19683980626826475, 0.1974759295755137, 0.19806492200107276, 0.19868720454626457, 0.19929661374466773, 0.19992993754157704, 0.20050704561978164, 0.20103237857125517, 0.2015881759425985, 0.2021272281433843, 0.20272545155665858, 0.20321952385844766, 0.20364278622127369, 0.20411417099151402, 0.20456566445156385, 0.20499226173689797, 0.205402555991673, 0.2058481490960205, 0.2062064100744842, 0.20654460831411028, 0.2067773534685771, 0.20708301098718568, 0.20740439585156747, 0.20764887534364426, 0.20786764615924114, 0.20810011570989392, 0.20826066550159905, 0.20833257662371013, 0.20844997921393574, 0.20853703089456532, 0.2085900412153811, 0.20861618471440074, 0.20867111707641436, 0.20862705843224671, 0.20855475068804147, 0.20844654720267342, 0.2083166094376933, 0.20816309417459145, 0.20797074579464428, 0.20774736949357614, 0.20748905168374035, 0.20720279853198081, 0.20688502032196004, 0.20653359079721514, 0.206144079193685, 0.20572736388506382, 0.20527709308781605, 0.20479402737668656, 0.2042762337755138, 0.2036890308676237, 0.20310818185464796, 0.20249150865332663, 0.20182712722414142, 0.20114119834086952, 0.20044393765603577, 0.19968392944012786, 0.19889030166371052, 0.19808491941056344, 0.19722169985602203, 0.19625781282685661, 0.19533931930480702, 0.19438501845345188, 0.19338161468056544, 0.1923592715855422, 0.1912977392269176, 0.19020689723296233, 0.18908220329527964, 0.1879303470388694, 0.18673895863391396, 0.18552360864176973, 0.18426813385622554, 0.1829822547320127, 0.18173157964641187, 0.18037783583692804, 0.1789881102292457, 0.177584475120844, 0.17615454906680061, 0.17462453263879682, 0.17315174662982108, 0.17167073656106857, 0.17013612594949104, 0.16857443603559252, 0.16699323567332605, 0.1653783439973178, 0.1637125117850345, 0.16205176203645108, 0.16036581056231403, 0.15865456927043448, 0.15692065141002115, 0.15524638173302854, 0.1534568555562281, 0.1516504909122925, 0.14978387562375034, 0.1479495961112793, 0.1461329681433444, 0.14425695761797697, 0.142365387183135, 0.14039861782513172, 0.13848463296778943, 0.13655815173913075, 0.13460905390662942, 0.13264445921111334, 0.1307261205977497, 0.12872548598283048, 0.12675017490204374, 0.12472659234512821, 0.12269628239163759, 0.12062464636698753, 0.11858590040109447, 0.11651837396452541, 0.11446711046247394, 0.11240812143350022, 0.11037184516816548, 0.1082962874765306, 0.10623640248797336, 0.10415213526237002, 0.10206675306012922, 0.10001554941257712, 0.09792511725607854, 0.09589977472181276, 0.09380673160960495, 0.09172041583841459, 0.08959990581256048, 0.08753215707135467, 0.08552551321003492, 0.08346036153083136, 0.08140414330604984, 0.07935878050452304, 0.07732084146948565, 0.07536228297334426, 0.07333558000715817, 0.07132344123145436, 0.06932841649928626, 0.06734501379721873, 0.06543820808072251, 0.06347694722769276, 0.06153454004636179, 0.05962303753363512, 0.057716555075091984, 0.05586263824533786, 0.05399113345630703, 0.05214131569855713, 0.05032537763446444, 0.048517558846831774, 0.04674638368911551, 0.04498246808525157, 0.04324254419643546, 0.04152163356226727, 0.039831142269357044, 0.03820266537190792, 0.036557169786498554, 0.034939381740777015, 0.03340867203552324, 0.03183962072954886, 0.03027816520208166, 0.02877600998269714, 0.027304395624241078, 0.025967974522331894, 0.02454523404957015, 0.023121707342588227, 0.021778346034770444, 0.020469637101166505, 0.01921486240995452, 0.017973560901274336, 0.016838183765898844, 0.015660976264524725, 0.014524415580797546, 0.013461249935896785, 0.012401036145635598, 0.011409714919636793, 0.010429699823118005, 0.009492702495173581, 0.008548872309797801, 0.0077034165598358646, 0.006995889333627669, 0.006217747861083514, 0.00548559134035998, 0.004797313399017305, 0.0041563522026911255, 0.0035344002403851185, 0.0029868553552458562, 0.0024828679627953956, 0.002092264051555853, 0.0016674167737270095, 0.0012482864148887845, 0.0009252318444601831, 0.0006477073574215256, 0.0005168232635541271, 0.00031836469244264924, 0.00013101480639785533, 4.114431541124076e-05, 0.0, 5.278981392238305e-05, 0.00010340096280921184, 0.00021232275634363025, 0.0003644913366436412, 0.0005679265621059724, 0.0008050334250621278, 0.0011126416964964759, 0.0015448625426608725, 0.0019427653956218803, 0.002394874731279704, 0.0028398325162604975, 0.0034066557024237114, 0.00403520377749586, 0.004699807009898527, 0.005415069973436589, 0.006206311449174184, 0.007020017424327977, 0.00792610948825286, 0.008839436571012688, 0.009807219422325823, 0.010785600010402602, 0.01186669611537034, 0.013013593680158708, 0.014194965971977516, 0.015428388824975473, 0.016710350471940378, 0.01804821615766158, 0.019456103091316505, 0.020895181200665667, 0.022387035636318102, 0.023988022904615876, 0.025577810935517142, 0.027228310432359994, 0.028927837832336687, 0.030682033531796205, 0.03244864386926054, 0.03431595301744341, 0.03621853454380923, 0.038189624749288706, 0.040210663095648365, 0.04234953644530783, 0.04446206814842075, 0.046582395335415236, 0.048807963021285476, 0.051083771592227954, 0.05344711810451747, 0.0558183959620549, 0.058196493041602786, 0.06067713134471691, 0.06320644570938369, 0.06584181334796826, 0.06846116848622397, 0.0711062310289638, 0.07383192707412545, 0.07657125357259607, 0.07939975270391146, 0.08227500367029991, 0.08520398679064116, 0.08817189894105489, 0.09116605316621654, 0.09423069273220978, 0.09734098677110822, 0.10055953425166106, 0.10375316625037503, 0.10692366650589949, 0.11022388076909391, 0.11356788028024742, 0.11696003648400223, 0.12039108203164943, 0.12389391729856107, 0.12740923750501743, 0.13096977726526343, 0.13456033442444343, 0.13821192298263835, 0.1419388185890496, 0.14567231497669025, 0.14945014881369084, 0.1532726109434375, 0.15713729509045535, 0.16097252229942, 0.1649312268248904, 0.16892755201736143, 0.17294940604352657, 0.17702269553350813, 0.1811503821624895, 0.1852955023986857, 0.18947857961808695, 0.19371329329318066, 0.19796979863012568, 0.20222165390767277, 0.2065590342467613, 0.21093112505184675, 0.2154160868832945, 0.21984737145448774, 0.2242712504207394, 0.22878486386200272, 0.23333290395235287, 0.23790279604222866, 0.24252001322935807, 0.24716973841732628, 0.25185163910229247, 0.25656536285938925, 0.2613079307536693, 0.26608450295893754, 0.2709307212234673, 0.2757629895709132, 0.28062717124651976, 0.2854764475212212, 0.29040810498463876, 0.2953765284111092, 0.3003610888980622, 0.3053727805042589, 0.31040075191645905, 0.3154667611163463, 0.3205528116453175, 0.32566963026081014, 0.33081066074017285, 0.33599814731262106, 0.34118363283580316, 0.34639605599410295, 0.351629266379728, 0.3568857515774372, 0.3620744704977386, 0.36738710834089705, 0.3727891673896707, 0.37812546927156926, 0.3834824340607392, 0.3888455331432255, 0.39424373602482893, 0.3995999837654404, 0.40504135625219595, 0.4104963949560373, 0.4159346279851107, 0.4214206587272666, 0.42698614649556316, 0.4324868866859265, 0.4380030131070973, 0.44347036351579117, 0.44902322332006883, 0.4545545415897396, 0.460130704011572, 0.46571445471065415, 0.47128314223730106, 0.4768847125296366, 0.48252005457401875, 0.48812991614519974, 0.4937470326836017, 0.4993891980167117, 0.5050170801067182, 0.5105882598923547, 0.5162369951911064, 0.5218875003363229, 0.5275534661385071, 0.5332050187342562, 0.5388226072989628, 0.5444815181109388, 0.5501390367205828, 0.5558313804172234, 0.5614805278111741, 0.5670570735511763, 0.57271371326925, 0.5783643268926797, 0.5840747933120106, 0.5897043110539862, 0.5952585062336313, 0.6008898965903938, 0.606512203274729, 0.6121337762836891, 0.6177357185360073, 0.6232869821072493, 0.6288738839898366, 0.6344474773224057, 0.6399883099656101, 0.6455366666756917, 0.6510799063486233, 0.6565954863885297, 0.6620953223448202, 0.6675405879653205, 0.6730120250934214, 0.6784585234121043, 0.6838907991151416, 0.6893022369208917, 0.6946775904004979, 0.7000477674112926, 0.705411231460951, 0.7107323477048367, 0.7160300920126537, 0.721298504423354, 0.72654790855568, 0.7317826450316735, 0.736977905881226, 0.7421462643007197, 0.7472737738080635, 0.752387259690277, 0.7574077813322623, 0.7624676525291287, 0.7674920148361581, 0.7724692302148322, 0.7774229274320524, 0.7824001320013193, 0.7872709778914765, 0.7921069398218638, 0.796890450521775, 0.8016556051502953, 0.8063009799551195, 0.810997647981764, 0.8156490983125855, 0.8202898725536414, 0.8248456908609608, 0.8293833718265087, 0.8338467053627994, 0.8382657734183264, 0.8425830630625494, 0.8469177697049911, 0.8511907770920332, 0.8554256081292183, 0.8596083354369253, 0.8637167107436085, 0.867796399668037, 0.871806314841051, 0.8757774268860158, 0.8796917409153037, 0.8835635957724554, 0.8873610611241106, 0.8911297640197933, 0.8948079815999417, 0.8984289167509402, 0.9019411608053284, 0.9054509896601697, 0.9088986863907036, 0.9122818737998932, 0.9156010166767085, 0.9188685570553787, 0.9220561356250223, 0.925228092423029, 0.9282782709310781, 0.9312645146598787, 0.9341082751866505, 0.936972999442066, 0.9397930689501854, 0.9425107753021568, 0.9451575696320438, 0.9477745189037271, 0.9502722075638848, 0.9526323779065984, 0.9549964080075168, 0.9572841811408548, 0.9594840354064202, 0.9616196249872717, 0.9637484803530324, 0.9657186610373122, 0.9676141325066415, 0.9693835208079759, 0.9711331778423091, 0.9727626334375609, 0.9743565584033432, 0.9758672684740981, 0.977372083854322, 0.9787063428145177, 0.9799196833971182, 0.9811000655167652, 0.9822173963359785, 0.9832288003604392, 0.9841575838412492, 0.9849623838933599, 0.985729634037843, 0.9864488266390943, 0.9870385258774783, 0.9875438789325987, 0.9879566475368677, 0.9882930910444138, 0.9884836089169821, 0.9886555206898127, 0.988737641075759, 0.9887476270229816, 0.9886487280416564, 0.9884704000676487, 0.9881941830421709, 0.987830384325227, 0.9874172157793792, 0.9868732874207646, 0.9862351222914197, 0.9855208911718337, 0.9847200458000173, 0.9837559239876507, 0.9827911264310627, 0.981811615441064, 0.9806552663716255, 0.9794131065417064, 0.9780632912483782, 0.9766519850707096, 0.9751317311125229, 0.9735489584332475, 0.9718781867942854, 0.9700763622165387, 0.9682363527340319, 0.9663662951756485, 0.9643412373117554, 0.9622318387861433, 0.9599939880094632, 0.9577222480810986, 0.9553575223412644, 0.9529152906885683, 0.9503880029002177, 0.9478294216076384, 0.9451274716488814, 0.9423481865924367, 0.9394862908870715, 0.9365451918621273, 0.9334982854880703, 0.9304032891386917, 0.927160952854335, 0.9239162026415306, 0.9205895592877755, 0.9172588241913807, 0.9137625243326687, 0.9101349485121536, 0.9064986662183058, 0.9027863976953304, 0.8990018400127353, 0.8951405189130236, 0.8911891893799974, 0.8871858609214426, 0.883110996103438, 0.8789701089724872, 0.8747551056242302, 0.8704400943973042, 0.866094581507916, 0.8616816157838805, 0.857201680894503, 0.8526579497654343, 0.8481011252658125, 0.8434252556955265, 0.8386912500377656, 0.833912134617249, 0.8290629187384699, 0.8241658878933119, 0.8192071244965847, 0.8141957766689367, 0.8091049318438314, 0.8039947174245369, 0.7987758495343465, 0.7935716323668285, 0.7883154877639146, 0.7830813437813434, 0.7777174519112021, 0.7722734420941755, 0.7668298791452198, 0.7613436506763658, 0.7558292407305132, 0.7502603555346415, 0.7446095143289252, 0.7389723497200013, 0.7332977720972694, 0.7276440202063436, 0.7218926024524995, 0.7161050612820467, 0.71029737302071, 0.7044625320260129, 0.6985166355668736, 0.6926422120238553, 0.6867381070269125, 0.6808100744699326, 0.6748580460153384, 0.6689352634627919, 0.6629345232493621, 0.656864415655915, 0.6508409506115136, 0.6448017622551419, 0.6387469390548555, 0.6326819609477512, 0.6265969479296588, 0.6205139564204871, 0.6144233586225858, 0.6083312300672434, 0.6022300158410304, 0.5961639012642902, 0.5900549710262298, 0.5839490052747088, 0.5778281187525319, 0.5717342499457669, 0.5656225783440796, 0.5595444705555798, 0.5534736020128195, 0.5473898546735365, 0.5413410413017727, 0.53529432153686, 0.529269893830318, 0.523259138313025, 0.5172663531017847, 0.5112876327164287, 0.5053207027162303, 0.49938188947767576, 0.4934644663803502, 0.487606474893676, 0.48173174386769313, 0.4758614324688065, 0.47004658578845715, 0.4642605706270861, 0.45849079692844324, 0.45276814877842714, 0.44706006464317233, 0.4414048956822148, 0.435783415753603, 0.4301970714157154, 0.4246472614469682, 0.4191744676167648, 0.4136967993652243, 0.40826180013544855, 0.4028321324564648, 0.39749007426179966, 0.3922521739824039, 0.386990238032731, 0.3817774356584021, 0.3765605222404354, 0.3714548210406059, 0.3664442423390295, 0.3614300996297791, 0.3564690325284491, 0.351548695346372, 0.3466975271989624, 0.34187385948584753, 0.3371358258126789, 0.33245235285647234, 0.32781400992052356, 0.3232439441781068, 0.31869595416311197, 0.31424495833228977, 0.3098507374016242, 0.3055605170056662, 0.3012773641194493, 0.2970115469261896, 0.29285975511773454, 0.28876904394073927, 0.2847707121251317, 0.2808008459178692, 0.27685704269832856, 0.27302293796271315, 0.26925266807417064, 0.2656199676549103, 0.26197015699948484, 0.25839539693049357, 0.25488452153352736, 0.25144364738181996, 0.2480031343551398, 0.24471083481399222, 0.24149226366310986, 0.23833129635899017, 0.23523763845918852, 0.23225335373853717, 0.22928997048226912, 0.22639185757720118, 0.22356995832568027, 0.22081795118953718, 0.2180635529761371, 0.2154601004705317, 0.212930805726621, 0.21045760583002643, 0.20805112208057222, 0.20569936863621974, 0.20342835031942985, 0.20126546414299737, 0.199122055174307, 0.19708054688492502, 0.19507030732886202, 0.19313002039294713, 0.1912564052247896, 0.1894543516050742, 0.18766361171149112, 0.1860037513680208, 0.18440732211144112, 0.18288894755166368, 0.18141697966053966, 0.17997036991202806, 0.17863003148576267, 0.17735024765118648, 0.17611951590179153, 0.1749616043849152, 0.17392889596870437, 0.17288056960770976, 0.17189440416434876, 0.1709859603508315, 0.17011915759399954, 0.16926128823830386, 0.16852036905069848, 0.16783468235846996, 0.1672392552153782, 0.16665762056244526, 0.1661390664412331, 0.1656659374456394, 0.1652464775052592, 0.1648048389837186, 0.1644989702964162, 0.16426373477055298, 0.16404691391536594, 0.1638767794107379, 0.16372472696504026, 0.16364910694775922, 0.16362051394995453, 0.16362904678180457, 0.1636791338504978, 0.16384736200141184, 0.1639683334604702, 0.1641300732845944, 0.16433659160063552, 0.164583312565137, 0.1648001160992505, 0.16513167395981568, 0.16555016936294187, 0.16593833354059725, 0.1663601166654781, 0.16679855847435823, 0.16728564933340728, 0.16778421672235488, 0.16833010622091482, 0.16890161744268278, 0.16953861941082382, 0.1701531949633085, 0.17076916125297953, 0.17143506280129941, 0.17212178746289386, 0.1728412419951756, 0.17356455603816862, 0.1742912355588695, 0.17505147226807138, 0.17582655959178312, 0.17657540564056146, 0.17738196480268464, 0.1782621825003745, 0.1790784584920365, 0.17990606478634982, 0.1806645063268803, 0.18152070045316515, 0.182388466258379, 0.1832486729863429, 0.18411090981520628, 0.18497262870820283, 0.18583668689571844, 0.18672189761145241, 0.18758116008338666, 0.1884392821634282, 0.18930473812370543, 0.19015610695677027, 0.19098362681838796, 0.191828682370873, 0.1926665029563795, 0.19351092971097972, 0.1943295900159469, 0.19511380961180064, 0.1959161539579281, 0.19670576985337246, 0.19747575904680964, 0.1982382471718861, 0.19903738716354677, 0.19976147118123444, 0.2004714186605343, 0.2010956038233752, 0.20178264826683848, 0.20244643200338028, 0.20309017250096043, 0.20371130708571253, 0.20430584431826845, 0.20488064783561427, 0.2054345358584252, 0.20595958276784043, 0.206459360718803, 0.20693677148644066, 0.2073838422338291, 0.20786584566499985, 0.20825090791048328, 0.2086114457499361, 0.20893682209029407, 0.20924637788337108, 0.20947048799816087, 0.20973039858793682, 0.2099575136250603, 0.2101829139266078, 0.21033980581430956, 0.2104771405702601, 0.21056853900920708, 0.2106279326983612, 0.21062522635460995, 0.21062279317862068, 0.21056087514045457, 0.2104910663564733, 0.21038440633750774, 0.21030266416448198, 0.2101145843302617, 0.20983057653152729, 0.2095832701759405, 0.2092981940322831, 0.20899546571591227, 0.2086326667510498, 0.20821789453877235, 0.2077843629843652, 0.20731351391851083, 0.20679239858023424, 0.20624884769966614, 0.20572492624816166, 0.20509881640693386, 0.20443859014549381, 0.20368660495631208, 0.20296469377364118, 0.20225267207531752, 0.2014492167467243, 0.20061124112747258, 0.19969176155569562, 0.1987906348881705, 0.19789586683716973, 0.19691548258095137, 0.19590135766038447, 0.19480490741322926, 0.19372981975123296, 0.192644782340088, 0.19149493739254925, 0.19031172773117022, 0.1890694421077405, 0.18782393953734397, 0.1865760822319649, 0.18525994165827206, 0.18391315867597757, 0.18255088054166543, 0.18114206733935256, 0.1796663585429821, 0.17820543093021682, 0.17671440294488291, 0.17525484412506556, 0.17369802770850776, 0.17211054069228365, 0.17050553177014532, 0.16887606992222565, 0.16715209653803484, 0.16548379269748942, 0.16380137116193394, 0.16207815952821783, 0.16033060793456302, 0.15863177583016388, 0.15682907676697422, 0.15500263227371391, 0.15316565879541308, 0.15131129593854944, 0.14941129419060792, 0.14752715967802643, 0.14560984268744342, 0.14369342677400399, 0.14176021240352427, 0.13982853004724766, 0.13786233079883772, 0.13588831728086456, 0.13389616847714786, 0.13189283634205407, 0.12986081068976876, 0.12783968191877396, 0.12581297865962057, 0.12377238745033105, 0.12172397168007905, 0.1197007818623094, 0.11763528230814484, 0.11558030207336385, 0.11350686826411881, 0.11143207191236358, 0.10942254867500782, 0.10733836886350255, 0.10523047803778995, 0.10315816413094933, 0.1010887367812687, 0.09908705856510329, 0.09701687232799813, 0.09497226343014202, 0.09291637675355649, 0.09086999613297572, 0.08883328554878132, 0.08680650144393227, 0.08482911000384671, 0.0828183195041585, 0.08077653053898673, 0.07879825486216807, 0.07683135453936768, 0.07490091082784268, 0.07295591078659819, 0.07111374090543214, 0.06918825182027465, 0.06728392526217451, 0.06543984205327287, 0.06357286476710558, 0.061679866599622456, 0.059866173996808686, 0.058073228347628986, 0.05632853460448369, 0.054575364459413404, 0.05288708132873884, 0.05117721540956386, 0.04949457239650324, 0.04787760061128335, 0.04624521067950942, 0.04464558219202725, 0.04307324426077398, 0.04153144234221605, 0.04011777445115026, 0.038625438182526194, 0.03714297843895957, 0.035727314662404704, 0.03434631092697573, 0.033080908475006804, 0.0317593117833495, 0.030442591965286436, 0.029204340116879664, 0.028003189501941698, 0.02691407374736798, 0.02577820416612286, 0.02473732503332723, 0.023678371486297013, 0.02266390003261475, 0.02163255115066232, 0.02071339491953431, 0.019867260181464962, 0.01902424587031497, 0.018223814503333165, 0.017554803095776454, 0.016828817234007056, 0.016091851517643384, 0.015469196192618929, 0.014890608350556622, 0.01444850917323042, 0.013947192591178305, 0.013459437669149303, 0.013062480758012151, 0.012712819667794221, 0.012457475099259872, 0.012196712772340681, 0.01203141498653027, 0.011865229703048081, 0.011751487228479674, 0.011676702049994827, 0.011668260300143054, 0.011687865525261647, 0.011783500523923487, 0.011928388983399311, 0.012135752981017888, 0.012378047994407554, 0.012730019808278932, 0.013066033612751651, 0.013456115969404249, 0.013928600132217125, 0.014422174568319936, 0.014929663515754435, 0.015537543131343264, 0.016197130265412918, 0.016975408813672845, 0.017730052204550387, 0.018534197748478386, 0.019400303046608953, 0.020320753201291456, 0.02128915229858778, 0.022318178363289164, 0.02336301837329861, 0.024503031226371336, 0.025693876987576678, 0.02700704610130538, 0.02829109107262638, 0.029593950154696836, 0.030992823637467373, 0.032444117258322885, 0.033980798605714624, 0.03553253298009886, 0.03716092334562066, 0.03881755022885084, 0.040528828929155915, 0.0422290694631026, 0.04405650795648913, 0.045942322900014945, 0.047868181806061144, 0.04984448577226771, 0.05193385198383096, 0.05400314400592128, 0.05605505970442009, 0.05824065072413834, 0.060475079897885246, 0.06281843045791499, 0.06514317264977672, 0.0674724430418367, 0.06990742795346169, 0.07239109629580744, 0.07498337501902926, 0.07755659171198967, 0.08013288337232555, 0.08281516682216625, 0.08554527499975045, 0.088304788362062, 0.09113235656578342, 0.09403053726876702, 0.09694749519835093, 0.09991192312427771, 0.1028948031854198, 0.10595682267245278, 0.10906545682159756, 0.11221690267776155, 0.11541307920013581, 0.11865206622918921, 0.12193735519719497, 0.12533361210832045, 0.1286982318898512, 0.13211013263226615, 0.1354980713778233, 0.13901104977537293, 0.14255897561293587, 0.14615467981238423, 0.14979081893601606, 0.1534950893433344, 0.15720816273090432, 0.1609401426960448, 0.16473865714805339, 0.1685765293826226, 0.17251088814487744, 0.17641942383750747, 0.18034013971502355, 0.1843351246715509, 0.1883686854682181, 0.19239602004189574, 0.19651097220170205, 0.20073108330958772, 0.20490650063135046, 0.20912038297360036, 0.21331287228878268, 0.21760900204652997, 0.2219590581086415, 0.22631850886061425, 0.23071184299431396, 0.23508650401067172, 0.2395530365578571, 0.2441189088462384, 0.2486362216530177, 0.25318719431019165, 0.2577668292106184, 0.26238374433100375, 0.26697828343541385, 0.2716645293823957, 0.2763781919070256, 0.28110700306512243, 0.28587670936135756, 0.29072838526638295, 0.2955435816740328, 0.3003879451525634, 0.30520257065959555, 0.3101107087657851, 0.3151002432991833, 0.3200490166214744, 0.32502472205521576, 0.3299449549655486, 0.3349828668633172, 0.34003943395379466, 0.34511839837475894, 0.35021768202987247, 0.3553224360875512, 0.3604639697952933, 0.3656237605006563, 0.37080355769573053, 0.3760021782967216, 0.3812463793817577, 0.38647860061109823, 0.39175738864479687, 0.3970248899595321, 0.4023124387662045, 0.4075549295842971, 0.412888445819018, 0.4182422668659083, 0.42360326951132243, 0.4289784245649173, 0.43439697781128933, 0.4397957164473325, 0.4451666183873309, 0.45059964287118853, 0.4560089936824217, 0.46146834536147346, 0.46693624827472396, 0.47239263029732953, 0.47787987922462377, 0.48343936237773005, 0.4889323213848114, 0.4944357205073776, 0.49992882351585094, 0.5054534301679585, 0.5109495259998555, 0.5164923734293607, 0.5220392594926877, 0.527586428178112, 0.5331409533752298, 0.5386427122903635, 0.5442096682763033, 0.5497756089403847, 0.5553979319220217, 0.5609545329264028, 0.5664348709289797, 0.57200467229838, 0.5775707123381999, 0.583184234542007, 0.5887360131780427, 0.5942795483243781, 0.5998289443643743, 0.6053752813816528, 0.6109066121457001, 0.6164463178235289, 0.6219568895273548, 0.6274876659271214, 0.6330102828495776, 0.6384590976840263, 0.6439723133312343, 0.6494792650138664, 0.6549651515139929, 0.6604380962929843, 0.665931768183079, 0.671373748387986, 0.6767272510429527, 0.6821542854780144, 0.6875636533003859, 0.6930013270067517, 0.6983691136248451, 0.7036994951431059, 0.7090379775419503, 0.714358120399361, 0.7195993537495072, 0.7248886467044148, 0.7301822362963515, 0.7354207732832211, 0.7406368952702439, 0.745777867691956, 0.7509540242179298, 0.7561525946434162, 0.7612679406033962