0.046751205332052674, 0.046077116673055356, 0.045503154172107194, 0.04488654958672674, 0.044225780667733985, 0.04367320506935045, 0.043137891701004724, 0.042769046003331576, 0.04224147441315118, 0.04169489662972878, 0.04120724095955565, 0.04073124155173357, 0.0401691923547794, 0.03972393623698126, 0.03921605233743755, 0.03878318458139304, 0.038348782447119444, 0.03795370478322725, 0.03751314817086945, 0.03702397549689719, 0.036595786837760824, 0.03616825139967585, 0.03578912570543372, 0.035359510041909396, 0.03499819920501878, 0.03457261457877625, 0.03415711465122318, 0.03361315210397266, 0.03323515232789217, 0.03297555033571159, 0.032588607760248675, 0.032212772898987066, 0.031805705927185894, 0.031457764866996495, 0.031145725490037413, 0.030813120315890008, 0.03049213997436967, 0.030073613082968225, 0.029790507285262082, 0.029493582210715477, 0.029226729955995782, 0.028967223606050783, 0.028834533860700427, 0.028577958848091344, 0.02823786992691247, 0.028027827325005493, 0.027828876986397348, 0.027659619219093975, 0.02748272652807732, 0.027306529649155677, 0.02715992585990802, 0.027027440575263222, 0.026896125344057126, 0.0267948879609269, 0.026764095907663044, 0.026685483865111215, 0.026625499218723914, 0.026581848416111498, 0.02655924714275723, 0.026559513218371283, 0.026573183017141625, 0.02660559370159517, 0.026612117808437332, 0.026687797261369262, 0.026802228073418134, 0.026908382841611837, 0.0270331089160797, 0.02722800780633375, 0.02738409059072045, 0.027443976527345346, 0.027659194560396057, 0.027889656422341154, 0.028104982616033197, 0.02837247279844373, 0.028751932795857388, 0.029040095262802684, 0.029351380149997646, 0.02959422990305226, 0.02996338991373914, 0.03039083953620722, 0.030791917922098386, 0.031214915004045586, 0.03173836256201907, 0.03219639527935682, 0.0326661518640728, 0.03318057095625649, 0.03372092833972564, 0.03420007425380124, 0.03480320864906163, 0.03544075531094955, 0.03608497562569305, 0.03675241225077295, 0.03747486677657163, 0.038186352932217206, 0.038942179191306374, 0.03970454045010415, 0.040494756281074906, 0.04128831163141944, 0.04213751766300939, 0.04296428036270999, 0.0438733811480249, 0.044891875786299176, 0.04583997898291942, 0.04681866768176796, 0.047707224598452294, 0.048762012596865474, 0.04994979614930488, 0.05103881808846695, 0.052159336461753344, 0.053333564923869134, 0.05451392332000076, 0.055666458174749786, 0.056919171428057615, 0.05820057592534973, 0.0594417807322602, 0.06079031852138215, 0.06217130412737557, 0.06357130831234614, 0.0649989788061504, 0.0664884010223367, 0.06796885454313398, 0.06947593787871002, 0.07101927020906253, 0.07259366986293479, 0.07425062011894419, 0.0758809886180539, 0.07747636021597627, 0.07918359578504149, 0.08092049820735371, 0.08266946116514749, 0.08446869323547053, 0.08631287567491927, 0.08816904816192339, 0.09005592847210357, 0.09206290655028082, 0.09400005174848622, 0.09585910984340976, 0.09788154180106386, 0.09993198359563427, 0.10207327135958776, 0.10417267571440703, 0.10634899907803791, 0.10850689548582124, 0.1106988356501185, 0.11279682540312581, 0.1150709185954185, 0.1174749526098846, 0.11978620133958359, 0.12212918184244063, 0.12441849232915932, 0.12683408955837192, 0.12925726888711128, 0.13172624792395288, 0.13422005854637828, 0.13684837677057643, 0.13937867203987042, 0.1418109262057123, 0.1444197443571371, 0.14705116244165928, 0.14970101709434946, 0.15237902154219785, 0.15508002841511678, 0.15780413467846843, 0.16055136558334285, 0.1633350808594534, 0.1661266866976203, 0.16904460787720202, 0.17187007964094086, 0.17472424772228873, 0.17751658405424273, 0.18043592989831686, 0.1833733606284041, 0.18633335447067276, 0.18931296533398392, 0.19232080765168205, 0.19533753500458978, 0.1983956651076856, 0.20144722966723982, 0.20451814474762733, 0.20754965535285047, 0.21066455470017814, 0.21381806811181459, 0.21695775395382108, 0.22011240700239804, 0.22330162377315094, 0.2264821392793179, 0.22975534587874288, 0.23295430654629723, 0.23617073940397582, 0.23935416867940168, 0.2426078099957271, 0.24590140345232123, 0.24917248096577616, 0.25245465337061884, 0.25574027171636127, 0.2590426683174781, 0.2622570027557184, 0.2655866771181968, 0.2689173375921486, 0.27221101272048404, 0.27554834493293606, 0.2789870004138566, 0.2823085899426477, 0.28563456294792566, 0.2888612299504123, 0.2922061056546568, 0.29567407790958067, 0.2989943693588399, 0.3023173446456474, 0.305655125503591, 0.3089779935566827, 0.312159920222955, 0.3154988526245931, 0.31882721810676423, 0.3222968720799384, 0.32558477446487455, 0.3287005867607291, 0.33200373597219873, 0.3352920854257244, 0.33859245157525136, 0.34184775794855815, 0.34508951352062617, 0.3483172339802092, 0.3515303848107646, 0.35471275339652963, 0.3578969633459669, 0.36104377264866633, 0.3641953615316174, 0.36732735663322513, 0.37053084318222246, 0.3736105779669458, 0.3766764954145431, 0.3797224884152333, 0.382749895331038, 0.3857887133953307, 0.3887712373374018, 0.39170646881087573, 0.3946500144324515, 0.3975688712275068, 0.40041510903183114, 0.4032874587503099, 0.4061361903988514, 0.4089464930901437, 0.4117257047294656, 0.4145312339872993, 0.4172389400548432, 0.41990118232522344, 0.4225500572202309, 0.4251659845194473, 0.42768774651680064, 0.43024267766639374, 0.43277647548367293, 0.4352507967940078, 0.43768638232784046, 0.44009606890087466, 0.4424507892879452, 0.4446965754266818, 0.4469799507336105, 0.4492183560392208, 0.4514697353874351, 0.45361043260985795, 0.4556106134956913, 0.45767848578604586, 0.45969711283991, 0.46165763647403857, 0.4635790463046137, 0.46556906567601286, 0.46737592801447014, 0.46913947483912216, 0.4707312674487713, 0.4724209292246824, 0.47403011698992814, 0.47561589765525475, 0.4771465873022367, 0.4787407138847524, 0.48014666241259574, 0.4814865531764468, 0.4827973786192921, 0.48405707678170395, 0.48526938621952775, 0.48642412158316645, 0.48741425077931555, 0.4884765769323181, 0.4894784416146423, 0.4904358066029692, 0.4913156825322397, 0.4921702444360302, 0.4929282627782996, 0.4936293250367912, 0.4942239732291372, 0.4948163709954722, 0.4954508459569139, 0.4959090502132217, 0.49631254333807867, 0.4966404440320252, 0.49693479154078896, 0.49717565598634456, 0.497353143403379, 0.4974721851754548, 0.4974498050199995, 0.497461417638752, 0.49744478234173456, 0.4973243640087803, 0.4970691245757474, 0.4968358607986941, 0.4965375014073616, 0.49626182543816993, 0.4958242344322345, 0.4952300167319269, 0.49468793174340164, 0.4940816204662688, 0.4934407930118738, 0.4927043305863141, 0.49196743356834927, 0.49110216962276226, 0.49018012953922124, 0.48920334059302834, 0.488166906359318, 0.4869527765626363, 0.485817338991848, 0.48461797063647455, 0.4833668476703546, 0.4820411594573208, 0.4807688787468832, 0.47930852792550865, 0.4777954828429173, 0.4762183128640635, 0.4746005859237179, 0.4728486011416235, 0.4711333908117111, 0.46936000427430763, 0.4675717013391024, 0.4656790483306279, 0.46379106359030076, 0.4617846840697621, 0.4597290131877759, 0.45756374631685065, 0.45541718339671333, 0.45313106953034027, 0.45089132178332225, 0.4485956492974688, 0.4462744984304694, 0.4438674632307381, 0.44149053460174537, 0.4389737088826391, 0.4364129959400392, 0.43378855925994175, 0.4311434638131778, 0.42845878716437924, 0.4257256252203159, 0.42294988231502423, 0.42013440494240384, 0.4172750870474835, 0.41430377429985754, 0.4113731134731037, 0.4083992966259035, 0.405341194429458, 0.402290292860449, 0.3992891898984175, 0.39614469073415254, 0.3929665159142081, 0.38976646690585437, 0.3865214648985198, 0.3831359779161536, 0.3798433397100827, 0.3765148085508693, 0.3732747982868684, 0.36986361703448856, 0.3663676552174016, 0.36291551968209884, 0.35943635321707335, 0.35595348522733866, 0.352420417597398, 0.348909215549158, 0.34532570579464955, 0.34172353638606384, 0.33798259574734735, 0.3343598792387833, 0.3307424093404902, 0.32707007340437516, 0.32337875417196776, 0.31968533297192736, 0.31595778243994616, 0.3122090761429463, 0.3084544952348804, 0.3046871423710221, 0.3010063555827454, 0.29720423766472753, 0.2933042416159958, 0.2895060718974556, 0.28569913949944487, 0.28199627748728784, 0.27816118086761177, 0.27436499244056867, 0.270527188316409, 0.2666929695976121, 0.26281998662009276, 0.2589986675387947, 0.2552617645488211, 0.2514342957859889, 0.24761474950630416, 0.24381889896493514, 0.24001375290219162, 0.23611318367379988, 0.23234070743886717, 0.22857260147237998, 0.22495089551216454, 0.22117770032267242, 0.21732016757983863, 0.2135921067002773, 0.2098748856691194, 0.2062299231676864, 0.2025301006295285, 0.19893268100622533, 0.19525779088408515, 0.19160642186353602, 0.1879137956745469, 0.1843177374061028, 0.180871396233647, 0.17730014772427485, 0.1737580041785128, 0.1701442688457508, 0.16667258550717115, 0.16324873318145536, 0.1598214449751378, 0.1564207364910968, 0.15307416423677953, 0.14972550927550551, 0.14640277468946875, 0.14311602504426058, 0.13986057282106826, 0.13666387071539066, 0.13346959666796182, 0.13033691789232024, 0.12720931160902704, 0.12411896452197478, 0.12110191237631138, 0.11808251940411434, 0.11514139539184219, 0.1121979394974864, 0.10929724379468544, 0.10655091748626944, 0.10372153806347874, 0.10096359145885751, 0.098228855624172, 0.09554317541816937, 0.09284788730092518, 0.09026602042129597, 0.08778666369977578, 0.0852866171909218, 0.08283486699878621, 0.08049383607280906, 0.07813053073736284, 0.07578098812503442, 0.07352555874956229, 0.07131908029311121, 0.06910139603711496, 0.06700092267076022, 0.06503815405592436, 0.06301913571459926, 0.06105287178478556, 0.059070082382916486, 0.05721799726228392, 0.05542373712349893, 0.05366896218723296, 0.05196485694952436, 0.05035660070174896, 0.04874970007004123, 0.04719073573012909, 0.045694028925742244, 0.04425174841761617, 0.042975719214714846, 0.04162865369649839, 0.04035169993872474, 0.03912512652910204, 0.03795887019780059, 0.036780860952781574, 0.03574255552018567, 0.03471657752687477, 0.03379337227641958, 0.032922963991862696, 0.03221978459725535, 0.03144211235408832, 0.03067146528347443, 0.030021279831111636, 0.02942769856565319, 0.02898900399213431, 0.02849625430226186, 0.028058965312452295, 0.02769059960139706, 0.027382541210443114, 0.027056065863563412, 0.026876894680342187, 0.026743220264703663, 0.026674276963287245, 0.026659702469946745, 0.026809167947317726, 0.026890168805755583, 0.02701887248441438, 0.027223013147628223, 0.02748605874405644, 0.027727096957498528, 0.02811662278804393, 0.0286819605031155, 0.029162162943890062, 0.029649083198498682, 0.030255857833985697, 0.030918339934673644, 0.031596066665135376, 0.032374263596948866, 0.03324533989879768, 0.03412388719377917, 0.03505747856097982, 0.035989955838061506, 0.037039724327539436, 0.038225308335642826, 0.03936638088813629, 0.04056338176055429, 0.04172632669957233, 0.04304456234912145, 0.044411867496841034, 0.045828409158850204, 0.0472942905763138, 0.048923455742650064, 0.05047369718307016, 0.05205508409373878, 0.05371883918376854, 0.055434968165511675, 0.05725415778012645, 0.05906653627915453, 0.060863000836382665, 0.06278977140042241, 0.06476405219323383, 0.06682574274522463, 0.06888905195732105, 0.07100566721537814, 0.07316544115062071, 0.0753730382114215, 0.07753180019405821, 0.07984533732282391, 0.082297779528969, 0.08468039282932288, 0.08710952823771964, 0.08954650576344358, 0.09207137936134266, 0.09470113609227557, 0.09730248818429882, 0.09994905537595866, 0.10264222692354733, 0.10537646055133207, 0.10815364954819587, 0.11097306895124238, 0.11383403235702112, 0.11666888809849156, 0.11961948425773777, 0.12263726096326787, 0.12565569855710124, 0.128711691502803, 0.1317133000494906, 0.13485485149502774, 0.13806787368608464, 0.14126722325128693, 0.14450067889686272, 0.14779933498001038, 0.1510964929096948, 0.15440431157023682, 0.15777449682296954, 0.16117746585143228, 0.16462628622624698, 0.16809210894154, 0.17162167146868437, 0.17514798716563634, 0.1787075275575095, 0.18217893758322956, 0.1858179369732114, 0.1895281102106445, 0.19321002225136025, 0.1969193306810416, 0.2006222664316678, 0.20438976240184245, 0.2081997382928461, 0.21201411396019562, 0.21585387318335, 0.21970527768637005, 0.2235964560379463, 0.22755583919871733, 0.23148814496076636, 0.23544586053540695, 0.23939476639504406, 0.24340539823381907, 0.2473793940872163, 0.2514398345806012, 0.2555176424500323, 0.2596843250603465, 0.2637878848579625, 0.2679283753476906, 0.2720718302560115, 0.27623603477629294, 0.28041124797436906, 0.28461569251614455, 0.2888603957504522, 0.2930972269149498, 0.29735197350134773, 0.3014831506899121, 0.3057891967390348, 0.3101722441070469, 0.3144855191446102, 0.31881122621718766, 0.3231043730194661, 0.3274595905429174, 0.33182815509776914, 0.33620053942554856, 0.3405819353380575, 0.3449632285920854, 0.34936318945873096, 0.3538089544636331, 0.35821956102662583, 0.36263963661006915, 0.3669993371410993, 0.37144527603861055, 0.37597314737212595, 0.3804166979551482, 0.384868262304819, 0.3892533544442559, 0.3937279318506959, 0.3981840057444493, 0.4026641969414205, 0.40714456297391416, 0.41162281116311095, 0.41610356827564926, 0.42054381480402764, 0.42502882113443086, 0.4295107892674284, 0.43398527334532705, 0.4384617138159819, 0.44299500043687196, 0.4474567556910894, 0.45191807272356216, 0.4563781987764271, 0.46083639374584556, 0.46518249712937887, 0.46964849341594184, 0.47410426618757534, 0.4785924319601691, 0.48302284361635434, 0.48738984219993414, 0.49181172572319476, 0.4962220115877322, 0.5006943648465991, 0.5050719555223429, 0.5094395213230815, 0.5138009736727329, 0.5181528520652741, 0.522478739003014, 0.5268111073539756, 0.5310212805556692, 0.5353413408155782, 0.5396412545689432, 0.5439458410921634, 0.5482030022010861, 0.5523792963826701, 0.5566074475892779, 0.5608132019222458, 0.564976606102465, 0.5691404400029072, 0.57340147589214, 0.5775032857470336, 0.581588406957397, 0.5855641403982016, 0.5896241059062944, 0.5936746060041047, 0.5976821229227403, 0.6016648129864676, 0.6055462370186117, 0.6094873259160858, 0.613525023504465, 0.6173886652282041, 0.621228724449585, 0.624981496247985, 0.6287788329768945, 0.6325926141316415, 0.6363225866372951, 0.6400236671214555, 0.6436502492328786, 0.6472964041043383, 0.6508213315380177, 0.6544097475411291, 0.6579581363549846, 0.6614599641611717, 0.6649295411659444, 0.6684482477746437, 0.6718260660518741, 0.6751684991481216, 0.67850365297941, 0.6817688893016266, 0.6848770657613081, 0.6880835415368787, 0.6912446646075128, 0.6943827472879259, 0.6974502011365066, 0.700538035028811, 0.7035081194395719, 0.7064366037753077, 0.7093314327241903, 0.7121726625792847, 0.7148605152560166, 0.7176267455358462, 0.720341038078946, 0.723010105565566, 0.7256196398584147, 0.7281640370815712, 0.7306715516777754, 0.7331662523645044, 0.7355624403697838, 0.7379073896706374, 0.7401937708836879, 0.7424352053159715, 0.7447102484923916, 0.7468331286520813, 0.7489062859116407, 0.7508190298435496, 0.7528028936509555, 0.7547117482775433, 0.7565787063980633, 0.7583851106724186, 0.7602447809963736, 0.7619153935095208, 0.7634041771873541, 0.7649807106512291, 0.7664934242155057, 0.7679669531339782, 0.7693490708684395, 0.7706933582275952, 0.7719472985764271, 0.7731396527165975, 0.7742140897044335, 0.7752888534778107, 0.7763867868064395, 0.7773179313061398, 0.7781878915465882, 0.7789869469760109, 0.7797333676666682, 0.7804360207289285, 0.7810516219393524, 0.7816034386751503, 0.7820863799184131, 0.7825093762470342, 0.7828085649159657, 0.7831069906430567, 0.7833355986644472, 0.7836039389733682, 0.7836794067995979, 0.7836334251972492, 0.7835886533615702, 0.7834757074702557, 0.7832385940269999, 0.7829959020553273, 0.7826569267080797, 0.7822742654420675, 0.7818191911711094, 0.7812877293830313, 0.7806898204839748, 0.7800406813696565, 0.7792979686908633, 0.7784858131010068, 0.7776713832693148, 0.7767123729028735, 0.7755720414726895, 0.7744969592175278, 0.7733494830748435, 0.7721772002541163, 0.7708810132222328, 0.769541533128103, 0.768106685613377, 0.7666056983380648, 0.7649514636798309, 0.7633292226308523, 0.7616985744911735, 0.7599273491556957, 0.7580902448021057, 0.7562254294296514, 0.7542523955928282, 0.7522207571491014, 0.7501209849304611, 0.7479583919410324, 0.745726331668593, 0.7434391639237502, 0.7411405004829443, 0.7387213892559461, 0.7362428917128409, 0.733653587143267, 0.7310627377610553, 0.7283784511310488, 0.7256678197129526, 0.7228944942523191, 0.7200281029093897, 0.7171360127485272, 0.7141955193008537, 0.7111792412816518, 0.7081041000616656, 0.7050223970537487, 0.7018258261386859, 0.69847330810831, 0.6951837851893663, 0.691836302892488, 0.6885238276602444, 0.6850529880754208, 0.6814708160570369, 0.6779107821949242, 0.6742994855975935, 0.6707340557696831, 0.6670113639668938, 0.6631455384859214, 0.6593505638141532, 0.6555079592698935, 0.6516904437216265, 0.6477472749174363, 0.6436860025590263, 0.639673450683899, 0.6356178470262432, 0.6315428674158929, 0.6274023335560057, 0.6232820069780756, 0.6190594963582788, 0.614804554213423, 0.6105356702382388, 0.6062155384277683, 0.6017275651604642, 0.5973668415491679, 0.5929703427445512, 0.5885890935793869, 0.5841204246440316, 0.5796174726005263, 0.5750957567039691, 0.5705486153705052, 0.5659483217826328, 0.561357905001494, 0.556849277402891, 0.5522007390018413, 0.547537884111212, 0.5427474030133359, 0.5380721595587507, 0.5334786937516696, 0.5287550115150065, 0.5240216134167723, 0.5191720957079912, 0.5144352599215785, 0.5097187345655947, 0.5049530882537173, 0.5001796727764214, 0.4953753277810133, 0.4905936765205231, 0.48574226566308465, 0.4809603593717431, 0.4761728693035152, 0.4714175126529221, 0.46662019052802517, 0.4618428215419096, 0.4570488412373618, 0.4522607680263691, 0.44745748159967363, 0.44268767214192195, 0.43792388466022686, 0.43317222568858105, 0.4284313797257817, 0.42370712773897234, 0.41899125724852015, 0.41435507579705677, 0.40966206190418436, 0.40498998774352646, 0.4003573658298619, 0.3957269000645668, 0.3910847261402461, 0.3865074645768114, 0.3819535480141367, 0.37735476629021497, 0.3728593659667928, 0.36847360495003106, 0.3640138604017847, 0.3595846515955498, 0.35507506786040377, 0.35072334176260295, 0.3463557941095169, 0.3420643773089049, 0.33780053670983606, 0.33361528217768616, 0.3294058881619331, 0.3252276292259806, 0.32109114267311656, 0.31699223905446555, 0.31301910285410894, 0.30898756343557987, 0.3049435536256856, 0.3010108075820952, 0.2971209690236657, 0.29323242606029265, 0.2894362109771623, 0.2857610918751588, 0.2820419569014619, 0.2783722838716818, 0.27466532974203683, 0.2711066861125377, 0.2676272530213961, 0.2641569118679986, 0.2607363201254814, 0.25733714817753617, 0.25402180523082946, 0.2507677663007778, 0.2475521320328544, 0.2443888955951585, 0.24120946823594575, 0.23816167300056038, 0.23525576964645586, 0.23229813467518995, 0.22944493174079927, 0.2265965822611565, 0.2238087017140764, 0.22106320188368014, 0.21839789926210434, 0.2157088969980767, 0.21317194930777456, 0.21068938920263658, 0.20824630512496897, 0.20587658265590225, 0.20366280257335462, 0.20139188534134034, 0.1991832230568106, 0.19698958003615968, 0.1949103803957101, 0.19280725072259253, 0.19085602281164518, 0.18895906688677, 0.18717517169307288, 0.18538147405961475, 0.18358014903620368, 0.18191361244279733, 0.1803025487571113, 0.17880098197094935, 0.17729526524414477, 0.1757998917242177, 0.1744190689882578, 0.17309440235108053, 0.17181927352779192, 0.1706079414309797, 0.16941669712050103, 0.16832146559431016, 0.1672798687990507, 0.16643494679834622, 0.1654827824578053, 0.16456107306775608, 0.16373501954435768, 0.16296643682004347, 0.16226783169893208, 0.16160984467282458, 0.1609114473682801, 0.16037591692395306, 0.15988878857775674, 0.15940529211551277, 0.15902022855675024, 0.15876762809372758, 0.15846232583254502, 0.15820726432142557, 0.15800159107457107, 0.15784445366642158, 0.15763673267010453, 0.15758652841775247, 0.15757677650869595, 0.15759846999518556, 0.15767042813069782, 0.15788454852381895, 0.15802209241345783, 0.15820417576136742, 0.15842505619592143, 0.15869298696292664, 0.1589367026540988, 0.15929276742121148, 0.15968345144774254, 0.16016621627662228, 0.16061693151896814, 0.16104772756767377, 0.1615761163085892, 0.16213487740065188, 0.16267638160832165, 0.16329958694704283, 0.16395492281992877, 0.16462767562090025, 0.16532522360317092, 0.16601116417223172, 0.1667607544213095, 0.16762029191302014, 0.16839927884717745, 0.16920274182529785, 0.16998461314454694, 0.17083849889833463, 0.17178616280951275, 0.17266517317056143, 0.1735643371727478, 0.17438153812913698, 0.17532892236090522, 0.1762883715499311, 0.1772544877817454, 0.17822920742898216, 0.17928769087985214, 0.18026765778275702, 0.18124465202165932, 0.1822456737467888, 0.18325343034849298, 0.18428449350346163, 0.18529960365144071, 0.1862360143132489, 0.1872680767746413, 0.18829675116927436, 0.189305783438884, 0.19032774737352523, 0.19132781036989935, 0.19233859095686573, 0.1933409285739725, 0.19443473187911434, 0.19540565244165042, 0.19623784809085446, 0.19721472143717725, 0.19817633835395157, 0.1992451962994402, 0.2001596881347118, 0.2010109910675058, 0.20191155480516046, 0.20279653904568706, 0.2036806180629715, 0.2045295979436392, 0.20540122394330348, 0.20620895715389714, 0.20699930629788796, 0.20774861180053056, 0.20850310320775717, 0.20926197105456748, 0.20996726531338278, 0.2106497478764198, 0.21123683699493495, 0.21187944073247883, 0.21255457091442068, 0.21312887037306066, 0.21367587728597406, 0.21419689048997903, 0.21468627146990646, 0.21502744828661516, 0.21547129264051418, 0.21587704415553846, 0.216403471276963, 0.21671351579605516, 0.2169545400626095, 0.21721073790467385, 0.21743338614394214, 0.21757258597823004, 0.2177320980346303, 0.2179134475537643, 0.21798817812120977, 0.21802735653985542, 0.21798111938511658, 0.2179532719412301, 0.21783372653914085, 0.21773153693956673, 0.21758578467861123, 0.21744360795855988, 0.2172054676051696, 0.21690240674615666, 0.21658639982107866, 0.21622814770935275, 0.21590801703233306, 0.21545500490626412, 0.21498647991911063, 0.21445426437580364, 0.21388416377002686, 0.21315487196719526, 0.21252222214068836, 0.2118832724554694, 0.2111530646951576, 0.21037961568758248, 0.20965014094371298, 0.2087795526098872, 0.20781291645227437, 0.2068731483028644, 0.20589112102990031, 0.20485129809409053, 0.20378704480782314, 0.20271798762811344, 0.20156369089200385, 0.20036935785176185, 0.19929356427828157, 0.19799919021527487, 0.19660238815977363, 0.19525400118252392, 0.19386859074549506, 0.19245715390761492, 0.19099587039898888, 0.1895001897200658, 0.18796536313897924, 0.1863941153362017, 0.18480892134068314, 0.18316250479645316, 0.1815485548154892, 0.17982476129759362, 0.17807059240466075, 0.17629698404753374, 0.17448009156783298, 0.17265993908083999, 0.17077957564937274, 0.16887083927893248, 0.16700075794942537, 0.16502700562284278, 0.16299556176594734, 0.16097746524910556, 0.15893305572064492, 0.15698552617684075, 0.1548741314665142, 0.1526575589957061, 0.15052063442466196, 0.14836015837144392, 0.14631526455579455, 0.1440922464795763, 0.141873502655971, 0.13962076658114778, 0.13734837438892705, 0.13507050091573516, 0.13277931511013444, 0.13050637612054514, 0.1281856149831651, 0.1258143340062342, 0.12347838942425635, 0.1211307344390249, 0.11875218803688611, 0.11638646175606565, 0.11415150046452317, 0.11174933234935452, 0.10934757071095641, 0.10685699062399463, 0.10446780727129203, 0.10208816560130878, 0.09969079213438818, 0.09729276751593885, 0.09500689496994473, 0.09259688301116233, 0.09013789292897162, 0.08775369133608765, 0.08537602609247907, 0.08303492005396707, 0.08066966417417956, 0.07836925214720163, 0.07602056315625785, 0.07368788952355793, 0.07143205332549274, 0.06912544712028747, 0.066864643259599, 0.06459768897520077, 0.06235404589018122, 0.06016083682540399, 0.05796151875725785, 0.05577940379194016, 0.0536339208237917, 0.05151504892103558, 0.0493833003779404, 0.04732494516429993, 0.04530893165401829, 0.04330325013718832, 0.04132762927293833, 0.039423389151781556, 0.037506185176990295, 0.03555770649684766, 0.03372125885959145, 0.031918492156532356, 0.030188830034939627, 0.028452961691556, 0.026757172658042817, 0.025102512488444726, 0.023490036067716977, 0.02190963416646372, 0.02038610903533504, 0.018994409822925013, 0.017550466043158075, 0.016158401609992115, 0.014865522821419935, 0.013572576761180177, 0.012333328692323592, 0.011152740553666905, 0.010028476591568958, 0.008862675046018502, 0.007864764305902341, 0.007010636146287819, 0.006106952740650368, 0.00526331247362562, 0.004440043428132457, 0.003723196492441702, 0.0031216693252024644, 0.0025176916777622698, 0.001978227062005037, 0.0015082131182492231, 0.0010986595193540984, 0.0008134527514229968, 0.0005296460510422022, 0.000316457871506527, 0.00012485954622710457, 5.9505783588611295e-05, 0.0, 8.000099351657807e-05, 0.00022624216884439683, 0.0005672001043988678, 0.0008332874148487233, 0.0010912146604913637, 0.0015213944985719094, 0.0020234842442052262, 0.0026138721340487215, 0.0032600336824457387, 0.003947638871440053, 0.004748444058622404, 0.005623335603265413, 0.00659763047861439, 0.007619785396875638, 0.00871056192137898, 0.00988935224552622, 0.011145965208735153, 0.012424988975074902, 0.013845536634876546, 0.01534863788099881, 0.016920817835646848, 0.018570684517883577, 0.02040152046333341, 0.022195352886162978, 0.024000386891090738, 0.0259728710429218, 0.02802522884389968, 0.030211269099268113, 0.032417185039265106, 0.03464172618339854, 0.037022276929668405, 0.03948192854546881, 0.042092362643008134, 0.04470177248897455, 0.047428281145602456, 0.050200141605963144, 0.05305648325785912, 0.055864806364264705, 0.05890461805157276, 0.0620797558498858, 0.06526245048982472, 0.06852436234738465, 0.07183399904614039, 0.0752575935106089, 0.07874895806153072, 0.0823270333488177, 0.08598114237526476, 0.08971118985970795, 0.09351702050758053, 0.09742075593803565, 0.10137464184182908, 0.10540477472380935, 0.10953741463058143, 0.11371501238122045, 0.11799771134599357, 0.12232295653527443, 0.12672427000554162, 0.13112467861361077, 0.13568463896265773, 0.14030443928031072, 0.14500272375195092, 0.14976851808803693, 0.15460589585392917, 0.15950490579397705, 0.16454402012608427, 0.1695659245117112, 0.17465713167002112, 0.17973820078118083, 0.18497410686704374, 0.1902176039185945, 0.19558211081223506, 0.2010036285527932, 0.20660028623779889, 0.21212004738692572, 0.21773148648449084, 0.2233713964058206, 0.229072680245157, 0.23471087693437986, 0.24054561216486317, 0.2465127448567603, 0.25243607793340994, 0.2584127634188121, 0.26445712909859276, 0.27053463987813864, 0.27664016877616, 0.2828198080861017, 0.2890457723647706, 0.2952096859023849, 0.30153831790428676, 0.30795730857122294, 0.31435234581983806, 0.32078636356367585, 0.3272606089657792, 0.3337693050652427, 0.3403497596833893, 0.346924869543717, 0.35353574213007993, 0.3600982812956491, 0.3667867471750754, 0.3734662446248806, 0.3802119853153233, 0.3869808643520871, 0.3937365182623983, 0.40055420224337357, 0.4074198750646766, 0.4142711886782475, 0.421141757561313, 0.42806626559628735, 0.4349676216547262, 0.441833323969734, 0.448775856973462, 0.4557303393944195, 0.462673368617233, 0.46965130930753235, 0.4767013424569235, 0.4836847079961479, 0.4906768963607942, 0.4975846682335622, 0.5046010767240399, 0.511721166433506, 0.518720847719402, 0.5256317214483159, 0.5326466249686134, 0.5396554499493111, 0.5466459819498708, 0.5536408662652161, 0.5605788526119793, 0.567558574026527, 0.5745234265484312, 0.5815530036699956, 0.5884754536991481, 0.5953134277350701, 0.6022172242266284, 0.6091006849072298, 0.615875662948285, 0.622726273336768, 0.6295751771803789, 0.636364911163457, 0.6431265740708911, 0.6499485847629306, 0.6566400036469552, 0.6631736695852863, 0.6698279695981846, 0.6764453252410985, 0.6831635476148717, 0.6896874551798364, 0.6960348048083734, 0.7025122792124762, 0.7089462876293414, 0.7154165455590416, 0.7217513289387557, 0.727933222501708, 0.734198145769151, 0.7404125466697373, 0.7465937178921832, 0.7527030110490514, 0.758794325586458, 0.7647954917110554, 0.7707451539781544, 0.776637575708336, 0.7824809939218534, 0.7882778097482426, 0.7940078255497848, 0.7996804133678072, 0.8053188871134525, 0.81086977697713, 0.8162380932118932, 0.8216836470348737, 0.8270598446151926, 0.8324512463666704, 0.8376770046891817, 0.8428079902920195, 0.8479047423156518, 0.852931761927623, 0.8578211492809262, 0.8627144761779808, 0.8675740507527243, 0.8723092927383491, 0.8769699739015974, 0.8814726622495185, 0.8859922706765092, 0.8904392158120511, 0.8947943711695123, 0.8990680941711592, 0.9032421735552394, 0.9073542083868533, 0.911431769770539, 0.9153700559309758, 0.9192268006655326, 0.9230503357118742, 0.9267354002452095, 0.9302924344391392, 0.9338200308240351, 0.9372616624512374, 0.9405251420902202, 0.9438045741201323, 0.9470960551686374, 0.9501765498209213, 0.9531702828139569, 0.9560697454803943, 0.9588884281725496, 0.9615417682835607, 0.9641906267135186, 0.9667446423229413, 0.9692262302241793, 0.9715879434418476, 0.9739254357243975, 0.9760912928021888, 0.9781671927910859, 0.9800451903694768, 0.981952566790244, 0.9838870182309332, 0.9855829286546087, 0.9871884799595092, 0.9885733818757575, 0.9900124121677644, 0.9914389130606784, 0.9926682180755356, 0.9938038184470611, 0.9948499259788289, 0.995796835646611, 0.9966407348828114, 0.9974004660766863, 0.9980653576932864, 0.9986264848399434, 0.9991028849352349, 0.9994572674305049, 0.9997467964263476, 0.9999399766890067, 0.9999925753451845, 1.0, 0.9999031542488785, 0.9997170670391835, 0.9994345536470862, 0.9991635683426586, 0.9986768763678767, 0.9980014335686602, 0.9973507428909649, 0.9966058412468332, 0.9957094326273583, 0.9947857347803482, 0.9938226356503915, 0.9927025810835437, 0.9914926962771325, 0.9901578367014531, 0.9887745767180541, 0.9873593205008794, 0.9857894818266378, 0.9841345878630235, 0.9824128766737008, 0.9805867681691234, 0.978575108822054, 0.9765966971791057, 0.974530443808999, 0.9723999557244338, 0.9701589617690684, 0.9678395100615809, 0.9654330533080648, 0.9629458116171994, 0.9603474113558764, 0.9577052293773423, 0.9550323153509659, 0.9522253360243522, 0.9493435119587296, 0.9463830773745538, 0.9433542621117124, 0.9403396454169826, 0.9371548434564037, 0.933903707814637, 0.930483681048498, 0.927113502101456, 0.9237457685086234, 0.9202250665475384, 0.9166398357655661, 0.913010854443298, 0.9092961212450137, 0.905397368981133, 0.90157647864325, 0.8976889465024968, 0.8937254069669616, 0.889711338987312, 0.8856731775804214, 0.8815318994717175, 0.877334052899485, 0.8730429644652006, 0.8687406511668857, 0.864425925098274, 0.8600101310810039, 0.8555449822469453, 0.8510763001777804, 0.8465102696570656, 0.8417735864649192, 0.8371377679786839, 0.8324531528270707, 0.8278445222426862, 0.8230525474894114, 0.818175144738697, 0.8133175312604212, 0.8084224069241596, 0.8034016940371806, 0.7984466108477016, 0.7934639438836028, 0.7884319299376649, 0.7833656694741115, 0.7782445568609242, 0.773117750428672, 0.7679850214242483, 0.7627958776021266, 0.7575810520346244, 0.7523553706256525, 0.7470917376583587, 0.7417872731752039, 0.7364859624008755, 0.7311652742669441, 0.7258623364936461, 0.7205025354336062, 0.7150736433262942, 0.7096954272113105, 0.7043029213456401, 0.6988931840177072, 0.6934771970250027, 0.6881047244576519, 0.6826632390618678, 0.6772733724680836, 0.6718173515629305, 0.666362179226389, 0.660917339899024, 0.6554644647703084, 0.6500036468866458, 0.6445593161043015, 0.6391190154764215, 0.6335407067608861, 0.6281292581051685, 0.6227300082210209, 0.6173166043388293, 0.6119069148831435, 0.6066121779760227, 0.6012014119351796, 0.5957677013196907, 0.5903924678319361, 0.5850315452963779, 0.5796659077234413, 0.5743393646815218, 0.569042609238094, 0.5637483644889069, 0.5584736661233175, 0.5531749032502886, 0.5479480993425014, 0.5426789318810907, 0.5375017497792116, 0.5323439230010245, 0.5272340185615846, 0.5221167028811912, 0.5170475526487498, 0.5119803190950686, 0.5069425939325581, 0.5018772576363925, 0.49690870208855764, 0.49198255093352633, 0.4870716414392829, 0.482193068596673, 0.47731439806115566, 0.47250787400593935, 0.46786213736559085, 0.46310767401593683, 0.4583961245402554, 0.453622531363568, 0.4490101679543528, 0.44443503117119953, 0.43989813805465977, 0.4354004431323249, 0.4310053759304285, 0.4265808075214694, 0.4221233140752033, 0.41779935516281513, 0.4135167581979926, 0.4092674971302401, 0.40507140973919686, 0.4010035791065829, 0.39688434007242657, 0.39281478788679564, 0.3886810211624567, 0.38472526885287184, 0.38079949569789845, 0.3769331910832124, 0.373111409501601, 0.36936410512710566, 0.36563036818071815, 0.3619676062642425, 0.3583287578890754, 0.3547406180206923, 0.3512502507110957, 0.3477580756459318, 0.34427055485957114, 0.3408919076767192, 0.3375638043739637, 0.33434897283627396, 0.33111461031460354, 0.3278231443357889, 0.3247116428459887, 0.3216477109527038, 0.3187547684282535, 0.31577212487203044, 0.3127047663488713, 0.30985125044946016, 0.30704461948431966, 0.3042564476390225, 0.30154898168437183, 0.29901337388291943, 0.2963842508661431, 0.29380997635465, 0.29132118211052405, 0.28885078474903536, 0.2862810949900062, 0.2839390056636691, 0.28164155205738745, 0.2795031858924269, 0.2772821488572918, 0.27499287268318745, 0.2728911323274165, 0.27083366810149573, 0.26893026084367705, 0.26694845748301166, 0.26501559158926463, 0.2631356055248315, 0.26130508435985117, 0.25938706839433273, 0.25767054164338626, 0.25601604816073475, 0.25437652214791906, 0.25277867525045966, 0.251253783674618, 0.24973529130793182, 0.2482510963563111, 0.24681973417324685, 0.24543015060009812, 0.24416899985031612, 0.24285059234820489, 0.24148362003697896, 0.24026630421543135, 0.2390865460420821, 0.2379060121104111, 0.2368050237493838, 0.2357382307463417, 0.234705447912498, 0.233706417781276, 0.2327028507848715, 0.23177509703529, 0.23090685503790492, 0.23003620675740058, 0.22919722247217006, 0.22845186467674644, 0.22766655352105156, 0.2269212966971829, 0.22620067403514482, 0.22551147166181243, 0.22481903218096783, 0.22419346993032205, 0.22364098212281644, 0.2230610527228253, 0.2225083510597746, 0.22191470380543052, 0.2214214498010031, 0.2210040984379816, 0.22054340546833037, 0.2201048423878516, 0.2196762081275562, 0.21928024052564024, 0.2188603190210011, 0.2185058043875549, 0.2181656558988769, 0.2177522621672792, 0.21745028705247954, 0.21717401782093224, 0.21688555454784156, 0.21660600492130036, 0.21631947015375602, 0.21605885436232117, 0.215818665796099, 0.21557007328391598, 0.21532851853852497, 0.21512246287473857, 0.21488955824963063, 0.21469252616292658, 0.21446872210407808, 0.2142515761535494, 0.2140243238016661, 0.21381911203887868, 0.21368562388132517, 0.2134757351383618, 0.21327042734620205, 0.21292756941959323, 0.21274499961443047, 0.21255729368800533, 0.21235963037455682, 0.2121545020135547, 0.21202877332434916, 0.21179694074880856, 0.21157729441627704, 0.21133550384675542, 0.21108901728860602, 0.21080321581136421, 0.21054827333646245, 0.21030590035812963, 0.2100279189129153, 0.20974006452575295, 0.20934546339605267, 0.2090475164996959, 0.2087653859363374, 0.2084278657466787, 0.20807453357531894, 0.20779882264858496, 0.20740089049217297, 0.20693319481501357, 0.2065180446420836, 0.20608569248630573, 0.20572046812876307, 0.2052413873606409, 0.20474383494780646, 0.20423613377735256, 0.20371192607136435, 0.20319706313678124, 0.20263368795685782, 0.20200579732924878, 0.20141217612478263, 0.20079650689741046, 0.20010479179376622, 0.19945063542192898, 0.19877700648998134, 0.19806976544969349, 0.19748207698959788, 0.19670525106133158, 0.19591093328560835, 0.1949706231427478, 0.19415394579863599, 0.19341661556956655, 0.1925308683690783, 0.191623636248468, 0.190712065027297, 0.18975753027231973, 0.1887739087491256, 0.1877748264590233, 0.18675182499541654, 0.18568886790929748, 0.18461885971781214, 0.18356546695440074, 0.18243835921656118, 0.18128765090217222, 0.18015763386209346, 0.1789530253679135, 0.17772864232981764, 0.1764791998971711, 0.1752069027823607, 0.17391138725911795, 0.17259237414727022, 0.17132112733260652, 0.1699455466107816, 0.1685500766741429, 0.16708723341095186, 0.1656562854312496, 0.1643130889104366, 0.1628203245809952, 0.16131022045012477, 0.15971956422654346, 0.15818079732069623, 0.15677590698240504, 0.15517269135734854, 0.1535562986865263, 0.15183869261577382, 0.15020434179803524, 0.1486903781759233, 0.14699790618097805, 0.1452936582161124, 0.14354340142750652, 0.1418178226437424, 0.14010595769687234, 0.13834610641563036, 0.13657273972302328, 0.13473448537395405, 0.13294067326915243, 0.13122009236442364, 0.12938348201222521, 0.12753720882381203, 0.1257081025479733, 0.12383931347451031, 0.12185780315523702, 0.11998688043281848, 0.11810262569336992, 0.11630444899566023, 0.11438451554685186, 0.11250256335597986, 0.11056865105043226, 0.10863332676112082, 0.10668998867148792, 0.10475308720607746, 0.10285519672461108, 0.10091127120244521, 0.09896935390642271, 0.09702745435195462, 0.0950906587312804, 0.09307188126499402, 0.0911520978750232, 0.08923152706492844, 0.08738071763095284, 0.08545373162294084, 0.08353368949706493, 0.08162125301567957, 0.07971712463371891, 0.07790690889576146, 0.07601091423405039, 0.07412359863976717, 0.07225935083994585, 0.07041049589881447, 0.068512664909205, 0.06670405449314233, 0.06498231943062459, 0.06319187019612542, 0.06142097854842232, 0.05953392755640902, 0.05782098456296413, 0.05624897947523741, 0.05454899662624758, 0.05287325944691517, 0.051200011622492034, 0.04957736923919455, 0.04799299144338947, 0.04641927149883792, 0.044872954080916044, 0.04340843870967781, 0.041912569888465236, 0.04033790453444017, 0.038922314450931056, 0.03753423488504591, 0.03625774007742826, 0.03491849775448397, 0.033573117636040734, 0.032312439300562074, 0.031086925858176732, 0.02999585666463537, 0.02883127263166518, 0.027556261130885887, 0.02649867845525812, 0.025476550616247717, 0.024605344784331722, 0.023644340482385118, 0.022669327137862304, 0.021808933292547728, 0.020992300493916743, 0.02030973373845521, 0.019572218675531276, 0.018868450416341817, 0.01823659939491543, 0.01765578171509493, 0.01716664318495514, 0.0166841811806712, 0.016162642727916447, 0.015801694312760083, 0.015490680494936257, 0.01532894049755519, 0.015108542786902684, 0.014910938145519177, 0.0148122558572983, 0.014770441265910794, 0.014783799066213823, 0.014857622755368389, 0.014913886521919863, 0.015114622993059513, 0.015370599513514322, 0.01565394916624371, 0.016027491111128323, 0.016460128942795946, 0.016948277361174158, 0.017495643673946782, 0.01813221920202769, 0.018797143988018686, 0.019574686385778996, 0.02036086760161463, 0.021214254196098556, 0.02204778226208597, 0.02304671508221087, 0.024137151104120035, 0.02525812888820751, 0.026444677824760954, 0.02767932024903772, 0.02900039741924713, 0.030516625248880335, 0.03195298171290795, 0.033463015501136284, 0.03503484034839132, 0.03669156608635766, 0.03833902752628654, 0.040147783047248024, 0.04202239538335361, 0.043916289447121296, 0.04592947098675192, 0.047988842676715944, 0.050132960222189334, 0.0523411699993856, 0.05460954066506975, 0.05694801048779957, 0.0593583495923565, 0.06182661752344799, 0.06436096382238508, 0.06707985283991248, 0.06973162442082244, 0.07239816674823617, 0.07520192935706863, 0.07807328941281652, 0.08101851766970407, 0.08402293269901646, 0.08710294989310548, 0.09023907068854939, 0.09344135445501262, 0.09674048724238804, 0.10006940622720013, 0.10341984398697421, 0.10688595288331665, 0.11041411288767199, 0.11392797401012368, 0.11758855914952639, 0.12132123750644011, 0.12509288163321458, 0.12892199319276357, 0.13273020133640798, 0.1366834451911555, 0.14078051251065987, 0.14482691868418554, 0.1489310353659771, 0.1530072265787037, 0.1572351626344041, 0.16162980414043512, 0.16594405230770637, 0.17018768711811103, 0.17463011875518059, 0.1791195541909277, 0.1836401535186705, 0.18822484714809426, 0.19293513792474887, 0.1975996898971051, 0.20231311237904978, 0.2069804049036403, 0.211799824932042, 0.21672178132694594, 0.22161285443319848, 0.226546450863393, 0.23152367322574827, 0.23653862612685034, 0.24151909014428327, 0.24662058962197275, 0.25175476706950595, 0.2570326669507891, 0.2622161349891795, 0.26728457780821624, 0.2725591824166349, 0.27785866273003434, 0.28320268690014616, 0.28854797008806915, 0.2939623025199011, 0.29934980548317025, 0.3047623381439484, 0.31019852362680517, 0.31565697880761756, 0.3211229152741007, 0.32662343387819043, 0.3321412912909068, 0.33764839480491704, 0.3432004231834436, 0.34870182720332754, 0.35428445693818933, 0.359873202790372, 0.3655075713230245, 0.37110129377534007, 0.3767524041766621, 0.38235040639446755, 0.3879547479425813, 0.39350562993133337, 0.39912482425568074, 0.4047643234113981, 0.41037545635636213, 0.4159834188625899, 0.4215689207999437, 0.42716852681074996, 0.43266587916159344, 0.4382591472316475, 0.4438360998633767, 0.4493626663715129, 0.45490940269575597, 0.46054534998510166, 0.466037214222347, 0.4715137031030572, 0.47689720390608037, 0.482347525011331, 0.48773750224987517, 0.4931421147048592, 0.49851804557036994, 0.503947105971699, 0.5092526837329517, 0.5144198638043956, 0.5196844050080119, 0.5249125946640307, 0.5302175973257492, 0.5353563965842227, 0.5404627952117709, 0.545534925074806, 0.5505709770689161, 0.5554709317596922, 0.5604420439801076, 0.565377622903562, 0.5702531074524027, 0.5750808325133415, 0.5798419245239261, 0.5845733391258234, 0.5892975536924177, 0.5939186513569402, 0.5984884826615304, 0.6029967577274511, 0.6074611379863328, 0.6118831470286775, 0.6162330731488231, 0.6205255589046114, 0.624654342118706, 0.6288413586331058, 0.6330550405942813, 0.6370955628773113, 0.6410734049509104, 0.6449381693856153, 0.648793105334788, 0.6525364828329633, 0.656257767102197, 0.6599059965376459, 0.6635566507503206, 0.6670477600031242, 0.6704886727121786, 0.67383545552654, 0.6771107318928186, 0.6802127401061181, 0.6833539860449369, 0.6864100172432205, 0.6893900563406364, 0.6922884992713851, 0.6952211530024092, 0.6979407069485598, 0.700490302470985, 0.703068046923049, 0.7055617628425846, 0.7080201729581344, 0.7103383799070289, 0.7125070621682239, 0.7146678682063561, 0.7167407954392192, 0.7188484910883806, 0.7207295546375567, 0.7224709559081384, 0.7241949505506323, 0.7258317691937551, 0.7274344831186356, 0.7288886302856686, 0.7301231513424963, 0.7314221499876313, 0.7326264194155634, 0.7338636756221151, 0.7348635884373118, 0.7356564141737942, 0.736497853332085, 0.7372446386245487, 0.737886008331664, 0.7384460734687882, 0.7390392614950534, 0.7393952762550403, 0.7396650215298228, 0.739747314289345, 0.7398552821984191, 0.7398785335914969, 0.739798493441963, 0.739626132264733, 0.7394622734281228, 0.7390935382981261, 0.7386726045075497, 0.7381277685375681, 0.7374982873867304, 0.7366228366231867, 0.7358429465070985, 0.7351066482755731, 0.7341206243716679, 0.7330496792236209, 0.7317820426827367, 0.730555153402789, 0.7293375336664719, 0.7279165300980573, 0.7264120036091042, 0.7247950964859037, 0.7231277948980747, 0.721304616986888, 0.7194781453951922, 0.7175645118997264, 0.7155649644149522, 0.7134807073219176, 0.7113620404158076