0.0447851350207542, 0.04425431796525742, 0.043741945688633196, 0.04319405386533176, 0.04271749265909051, 0.04227008864671452, 0.04180685928403419, 0.041350955630600275, 0.04093547571832804, 0.040486702898782305, 0.03995876105486513, 0.0395326429981988, 0.03910640744829019, 0.03872117612670706, 0.0382897224480876, 0.03777176212458917, 0.037356317984354355, 0.036938060334856256, 0.03654844480365357, 0.036122594642628486, 0.03566670709713991, 0.035246562478100756, 0.03482602224918045, 0.03443298639962115, 0.034009724883175024, 0.03369172337731633, 0.03326087159421174, 0.03283876523546487, 0.032393967343810136, 0.031991429004013354, 0.031590853690155234, 0.031199390758554373, 0.030812904759064303, 0.03039372568357009, 0.03002189800473568, 0.02967346115719814, 0.029305098133527666, 0.028941413188124487, 0.028524369599422807, 0.028177814291982496, 0.027833092847082276, 0.02749081439669033, 0.027151529536029742, 0.026815735473101277, 0.026483880832468335, 0.02616663640323563, 0.025842536295376948, 0.025524049602250617, 0.02525929933523736, 0.0249466049210991, 0.024584625112439137, 0.024296845310274224, 0.024014283506625565, 0.023778317989781726, 0.023501911052091796, 0.023182551880101418, 0.022929298726957884, 0.02268137539783733, 0.02239807423190672, 0.022167040635645688, 0.02198107059845653, 0.02175343766518184, 0.021533234287261768, 0.02132744701365533, 0.02112165348463632, 0.020883004223901328, 0.02069888023732302, 0.02052077867569679, 0.020294335643645696, 0.020136329876522918, 0.020105520798319485, 0.01994066399579076, 0.019788084548067478, 0.019606293365560048, 0.019482245564233967, 0.019339687852803357, 0.019236897857862683, 0.019141566396006476, 0.01904029303942722, 0.01896244830613006, 0.018981060291017454, 0.018907262905227172, 0.018846574639649755, 0.018764333571974948, 0.01873293152315833, 0.01876291357090098, 0.018745137309802713, 0.018740329386997753, 0.018611230845152833, 0.018648601977114376, 0.018857994706688336, 0.018883736775360028, 0.018924924291007197, 0.0189501304397116, 0.019024311274849538, 0.0190797944266657, 0.01918194151669103, 0.019294237420028212, 0.01943055625961591, 0.01956197395621947, 0.019708280182412868, 0.019862264990541993, 0.02002805194459407, 0.020106457833777038, 0.020308577963157482, 0.020633480197268763, 0.020834630596556214, 0.021050405952267287, 0.021109466355535088, 0.021375456025731012, 0.021738265735111336, 0.022002660694210155, 0.0222790003462867, 0.022570928381586086, 0.02287136285109128, 0.023140033946096573, 0.023471661223862975, 0.02381373955916219, 0.02416329221768884, 0.02452798263221643, 0.024969117040049862, 0.025348748461814907, 0.02574403294921051, 0.02617520516467411, 0.026598333540159134, 0.026903991876965988, 0.02737558831515159, 0.02785494831689682, 0.028503670008816418, 0.028980401641752595, 0.02932534112410911, 0.029857863974038355, 0.030399190622035787, 0.030966999608634107, 0.031525394590095436, 0.03217715500866203, 0.032747849037994305, 0.03333477092366543, 0.03381762053146939, 0.03445060789959483, 0.035160099671102354, 0.03580112402765964, 0.03645509799801978, 0.03722796071297059, 0.037893984349854956, 0.038410792306754225, 0.03913395115369386, 0.039864273212405786, 0.04062626176728706, 0.041369445506419224, 0.04213281041207181, 0.04289465776265152, 0.043667222365049496, 0.0444881250850381, 0.04527727818653217, 0.046150999703368716, 0.046956096363989654, 0.04777719479072966, 0.0485688946053364, 0.04942497185501664, 0.050257855478397895, 0.051140002839226775, 0.0520306556375501, 0.05287164146686236, 0.053786651058389104, 0.0547376540038638, 0.05565957630766207, 0.05658918316788407, 0.0575093932098158, 0.05845658909509854, 0.05944130588221312, 0.06039813420878103, 0.06136353712776273, 0.06240571375730685, 0.06337888217619769, 0.06422342573636891, 0.06523689473292561, 0.06625263469309219, 0.06743535717951067, 0.06843613841416808, 0.06940502472690736, 0.07043551008805746, 0.07147398044013129, 0.07253014403118167, 0.07358164895795477, 0.07449641926021916, 0.07557953954096068, 0.07666053580762806, 0.07785985963459893, 0.07892338447379103, 0.0800000512475969, 0.08107470688984478, 0.08215487925966422, 0.08320575698117433, 0.0842995519016837, 0.08529260693539156, 0.08640300272416364, 0.08750909943036408, 0.08862174290020035, 0.08971957014730078, 0.09089379567820541, 0.0919772441326477, 0.09299124820102049, 0.09408804341909578, 0.09518208815619664, 0.09632817302551823, 0.09740985093876356, 0.09855340188051871, 0.09962729236822607, 0.10070383068285184, 0.10164854078859673, 0.10274427977036107, 0.10388025898870364, 0.10495486479250936, 0.10602493734505809, 0.10713811573328129, 0.10819223914331662, 0.10913415805569353, 0.11019603626238762, 0.11124771750901852, 0.11237843178069522, 0.11339915861396464, 0.11449735254444214, 0.1154976987913502, 0.1164966832893932, 0.11737668762552877, 0.11838396643154525, 0.11939355731457518, 0.120376318687657, 0.1213483685256929, 0.12232318413316114, 0.12327143214238723, 0.12418510578531212, 0.12511478142032162, 0.126031772605986, 0.12695644837277734, 0.12784496296601736, 0.1287316599429307, 0.12959432338378724, 0.13044471402152324, 0.13134055065261346, 0.1321576861158302, 0.13286867175721198, 0.13367637887143086, 0.1344666865361457, 0.13534570326639145, 0.13608783335232935, 0.13679794860381883, 0.13751878061630554, 0.13822519825595686, 0.1389165882908624, 0.13959238233495588, 0.14026574109865012, 0.14090706661796368, 0.14153208921298097, 0.14212658409649231, 0.14271916348945354, 0.143269227699084, 0.14382740049325074, 0.14436505674847555, 0.14478971022532425, 0.14529773505926696, 0.14588926357227908, 0.14633206052775902, 0.14675614832876446, 0.14703788636378515, 0.14743882377066764, 0.14792923486545362, 0.14826233020883214, 0.1485762246168626, 0.1487780197825929, 0.14906372384769065, 0.14930310623355117, 0.14954016670555823, 0.14975089879230216, 0.1499527950570307, 0.15010978208329032, 0.1503484261624403, 0.15044319958274385, 0.15051957649678951, 0.15045350487629156, 0.15050617653174636, 0.15069546747149068, 0.1506724508805167, 0.150631677722058, 0.15037017728280555, 0.1503163338770721, 0.1502784527201195, 0.1501555370833821, 0.15000500956376223, 0.14994008091092662, 0.14972085583090686, 0.14948108382448022, 0.14922003069017065, 0.14893704813447478, 0.14853574828978094, 0.14821938537343465, 0.14789474957229706, 0.14751857886839587, 0.14711551295144532, 0.14685681448103904, 0.14637878958266454, 0.14576072435534707, 0.14526334393637105, 0.14473988741960497, 0.14421779668369322, 0.14363893601255578, 0.14315554517738827, 0.14251281974477503, 0.14185232316936663, 0.1410669695589148, 0.14038149254192925, 0.13962524328750595, 0.13889308765961225, 0.13813269056488836, 0.1375055270671332, 0.1366701839656288, 0.13576609419298172, 0.13490165044002486, 0.1340155230206704, 0.13314868209349445, 0.13221376810095706, 0.13135859798783306, 0.130371875322338, 0.1293707738269288, 0.12827225774020826, 0.1272502327817251, 0.12626174089571662, 0.12519056061438325, 0.12410168919981919, 0.12301208083635257, 0.12188528121532662, 0.12086472675577291, 0.11968839040159655, 0.11850197633800728, 0.11717112290063961, 0.1159789125431342, 0.1148593681738664, 0.1136166899142701, 0.11236081777229852, 0.11104035344014412, 0.10976447298101204, 0.10864368249121743, 0.10731472859061897, 0.10598055408318836, 0.10448298055883751, 0.10315615923155011, 0.1019024875074572, 0.10053375305181013, 0.09915613015820367, 0.0977732557032581, 0.0963781305715841, 0.09493406990458245, 0.09352875059991184, 0.09211401196480203, 0.09087199658040562, 0.08941779922898792, 0.08794955349524512, 0.08650294362498102, 0.08505721127059988, 0.08348551036043875, 0.08205697936191089, 0.08073139895470723, 0.07927703306612971, 0.07782446482956601, 0.07638755200208157, 0.07493743274013587, 0.07349745177569078, 0.07205331888032838, 0.07061345808582839, 0.06916451578191282, 0.06773599331578097, 0.06633952643131677, 0.06491750289928509, 0.0635029266958016, 0.06201752232076707, 0.06062913636277919, 0.0594505375341053, 0.05804630480965423, 0.056660390693240574, 0.05530593443637742, 0.053953445425883685, 0.052505947823242305, 0.051203366389550364, 0.049912077641765126, 0.048639873034244746, 0.047373138665051905, 0.04618591921582236, 0.04494082214602784, 0.04371560187379048, 0.042469531985712024, 0.041290333274642974, 0.040253090737134636, 0.039096666711977514, 0.037967575664404916, 0.03682459058219267, 0.035754992313652034, 0.03476503893249747, 0.0337387935670456, 0.03274154229264258, 0.031677602040531855, 0.03075094707060856, 0.029995715984504373, 0.029100142643174357, 0.028208543952894977, 0.027386297458515663, 0.02659698212261033, 0.025772505560322293, 0.025058812814791817, 0.024440446447502585, 0.023780200003562662, 0.023155986281359883, 0.022581964988669923, 0.022029536573854272, 0.021453829576409057, 0.02098628186821982, 0.02055454039862138, 0.020159619411086217, 0.01980249633235549, 0.019480691215000914, 0.01920238921915907, 0.018964419437051447, 0.01886347277175368, 0.018696637422829517, 0.018694384266419502, 0.018609310919343026, 0.018579088063148924, 0.01844208208066034, 0.0185396779523218, 0.01877701783354784, 0.01895130139085264, 0.01917674981686105, 0.01948084088870828, 0.01980551915312144, 0.020090972542957566, 0.02053370860020182, 0.021024559806094394, 0.021619173874591835, 0.022201971054927577, 0.022859040050077845, 0.023547046129415466, 0.02429061216125339, 0.02513783634173812, 0.02598706122876416, 0.0268335874636694, 0.027808275608653864, 0.028838223563030653, 0.0298417915714864, 0.030994099376027925, 0.032321678084978385, 0.03356366457268517, 0.03486674852639521, 0.036145300300545774, 0.03758120122723431, 0.039196468312620435, 0.040729842370510735, 0.0423276534037274, 0.04388683469877484, 0.04562535509332116, 0.04753446158932963, 0.049374617767763654, 0.05127991029370126, 0.05317805519248724, 0.05522150736766816, 0.057328400206690555, 0.05949177478829577, 0.061715963348376715, 0.06396697122602649, 0.06631776543802716, 0.06872804916347801, 0.07119824196260854, 0.07372870287423258, 0.07637106553394661, 0.07901642662285197, 0.08168462298076135, 0.08446271701058526, 0.0873018943412291, 0.09034254288627386, 0.09328635671658266, 0.09618975761645171, 0.09928445199392631, 0.10243989664781766, 0.10566286621384402, 0.10893871258676235, 0.11226514427826702, 0.11566379390199748, 0.1191223062739292, 0.12273977272167988, 0.12630498858618716, 0.12989746636951832, 0.1335962262493439, 0.13735580260271285, 0.14104899551778943, 0.14494448465482007, 0.14906309383517727, 0.15304146249446096, 0.1570822961115549, 0.16109208027573835, 0.16526624319365132, 0.16946716030321737, 0.17375285980786487, 0.17809073583142182, 0.1825286438223069, 0.18696458680976488, 0.1913900167365625, 0.19594256621227737, 0.20054471151955736, 0.20533321691804085, 0.21001681676532305, 0.21453468909299916, 0.21935840692449046, 0.22422358367497824, 0.2292333955117016, 0.2341698903214809, 0.2392573423696124, 0.2442766958754062, 0.24934858694832257, 0.25436532058905015, 0.2595509548609664, 0.26477859138049115, 0.2700477042768995, 0.2753577227332619, 0.2807833201915136, 0.28616375526408944, 0.29147102054729174, 0.2969512038048874, 0.30246543222239264, 0.30809210660060155, 0.3136634705944628, 0.3191352537644173, 0.32479736466165837, 0.3304867807916397, 0.33633350496701814, 0.34206085579136564, 0.3477675843117666, 0.3535686974998014, 0.35939806036035904, 0.36520685064978103, 0.37109600578198126, 0.3770866167342422, 0.38301071864775, 0.38896072410051447, 0.3947812818938858, 0.400798515926773, 0.4068461165226624, 0.4128876422445751, 0.41894313282167056, 0.42505661951919904, 0.43113295281900543, 0.4371488196131387, 0.44326324024058145, 0.4493860898657651, 0.45565031848201193, 0.4617715243243006, 0.4678178705376004, 0.473976719122534, 0.4801410833021355, 0.486210728882329, 0.4923956571862854, 0.4986801163815433, 0.504845516276794, 0.5110128551568334, 0.51719790350778, 0.5233629426144244, 0.5294276375886947, 0.5356015571457032, 0.5417659074448168, 0.5480398453161286, 0.5541679876204761, 0.5602364571480076, 0.5663598972601798, 0.5724718382086367, 0.5786531898852834, 0.5847280892920407, 0.5905528974655385, 0.5966351191024886, 0.6026896871754025, 0.6087305023620626, 0.6147285008078694, 0.6207202939932666, 0.6266618664111497, 0.6325770364494939, 0.6384958792282163, 0.644352114893248, 0.65022580719023, 0.6560212159807699, 0.6617897973384872, 0.667372616840146, 0.6731029291136714, 0.6787965587253197, 0.6844460844187475, 0.6900552842773966, 0.6957606350706487, 0.7012705624481947, 0.7065923619529718, 0.7120517353802197, 0.7174648927396036, 0.7229717622679652, 0.728273526852617, 0.7334808078731381, 0.7387082941359413, 0.7438895765618774, 0.7489790233684408, 0.7540701044218859, 0.7589961691824945, 0.7639966140840969, 0.7691082312916879, 0.7739672964709943, 0.7787761376562425, 0.7834374327280079, 0.7881534979071448, 0.7927856963691016, 0.7973844248185461, 0.8019207751682493, 0.8063840600462309, 0.8107956370904246, 0.8150880949843179, 0.8193773900914371, 0.8235982577772221, 0.8278635155628384, 0.8319328322272689, 0.8358505098909742, 0.8398045067157767, 0.8436884236604744, 0.8474642061749137, 0.8512114515474116, 0.8548714781446676, 0.8584731927830501, 0.8620001503592934, 0.8654726865788992, 0.8688468885555959, 0.8720714526150763, 0.875305965997941, 0.8784608829628797, 0.881690278565308, 0.8846666971425827, 0.8876064007919942, 0.8904352601985371, 0.8931924876544132, 0.8957226564902947, 0.8983519172790161, 0.9009243485091181, 0.9033818889543677, 0.9057570124142721, 0.9080255967942603, 0.9102383999075303, 0.9124866781353165, 0.9145157404890444, 0.9164671983865302, 0.9183023985506646, 0.9201004794180458, 0.9218161152153318, 0.9234488868725265, 0.9249984206031872, 0.9263377683264078, 0.9277358827052214, 0.9290222465777838, 0.9302413222919597, 0.9313695382180605, 0.9324111093630054, 0.9333594597663518, 0.9343253409123147, 0.935083692771055, 0.9357604313239491, 0.9363927624772099, 0.9369002683261274, 0.9373168860490595, 0.9376638899862371, 0.9379286759491487, 0.9380904161636353, 0.9381925461025774, 0.9382106243517637, 0.938144716244625, 0.9379949235336619, 0.9377545385678545, 0.9374382847720869, 0.937065646759617, 0.9365786969429539, 0.936010119616575, 0.935161545413501, 0.9344551909170882, 0.9338242274034415, 0.9329139314726103, 0.9319242810041625, 0.9308246722589669, 0.9296808333939043, 0.9284703074551168, 0.9271645482796449, 0.9257803095058137, 0.924208547094189, 0.9226826035601345, 0.9210905950653961, 0.9193975413714126, 0.917624990996174, 0.9159109252461688, 0.9139653162234764, 0.9118791738197872, 0.9098051741499462, 0.9076583003069022, 0.9054631466165951, 0.9031694318423371, 0.9007685145081188, 0.8983409381825223, 0.8958427270932159, 0.8932713394438377, 0.890634931130406, 0.8877763406348778, 0.8850239335395329, 0.8821965091673102, 0.8793543864792601, 0.876375850177185, 0.8733863042963816, 0.8702705852486391, 0.8670946583543213, 0.8638353023061999, 0.8605442060675773, 0.8571390574865868, 0.8537372653077837, 0.8502750534943834, 0.8468496496334917, 0.8432586550627025, 0.8396166846197779, 0.8359242297046401, 0.8321818406871552, 0.8283832787279606, 0.8245437540070986, 0.82060796769208, 0.8166785985620889, 0.8126998279946456, 0.8085976232925887, 0.8045333092187398, 0.8005012035439275, 0.7963284707002076, 0.7921139559344129, 0.7878278441284103, 0.7835366227766852, 0.7792493654294991, 0.7748727400326295, 0.7704606026219759, 0.7658632541390408, 0.7614017773592995, 0.7569743263032108, 0.7524229729206366, 0.7478387817561382, 0.743329151838559, 0.7386697872895878, 0.7338402512060317, 0.7291538344674524, 0.7244369965040168, 0.719688048280714, 0.7149159233008896, 0.7101660716426773, 0.7053381706193979, 0.7004903695371351, 0.6955895030365742, 0.690709394803334, 0.6857866772154535, 0.6808736182808584, 0.6759431861655949, 0.6710721243150944, 0.6661017482020545, 0.6611874671624531, 0.6561917343821033, 0.6511921905261652, 0.646011149908687, 0.6410273662677167, 0.6360958679923506, 0.6310803450572423, 0.6260595279709235, 0.6210722788784138, 0.6160397463710489, 0.6108946869069096, 0.6058780818232979, 0.6008572481986749, 0.5958510801892934, 0.5908248765343906, 0.5858928588283161, 0.5808599226630012, 0.5758366438511163, 0.570799583571467, 0.5658002389357824, 0.5607835034119962, 0.5558084163165845, 0.5508434338113788, 0.5459614751288051, 0.541010758210944, 0.5360156779236597, 0.5311076277821921, 0.5262142267013847, 0.5212577684681782, 0.5164065999896491, 0.5115891348867381, 0.5067632816261041, 0.5019547917987307, 0.4972299001381758, 0.4924514993702671, 0.48763939890954894, 0.48291782483950535, 0.47821851683162947, 0.47364173181958874, 0.46897741101489027, 0.46431646188276854, 0.45971718794867517, 0.45514736517937177, 0.4505971525005337, 0.4460888264187804, 0.4414909366859489, 0.43705873220692015, 0.4326511340368061, 0.4282525524009217, 0.42390076938439286, 0.41965554414473377, 0.41535082903585785, 0.41115277313416293, 0.40690903725275135, 0.4027050651610848, 0.3984791288884571, 0.3943621395937947, 0.3902435911769048, 0.3862040487244954, 0.3821994949943342, 0.3782786180966065, 0.374340262965282, 0.3704280635379841, 0.3665713589448633, 0.3627541949491411, 0.3589837586395124, 0.35524582417889844, 0.3516411945559294, 0.34797363864270614, 0.3443526568651578, 0.3405997865346617, 0.3370929923141267, 0.33369334562821446, 0.3302491696518152, 0.32684646356496594, 0.3234650223203862, 0.32014880417538744, 0.31681904307779757, 0.31359257388105755, 0.3104050055838966, 0.3072810466804815, 0.3041704172196463, 0.3010541056307959, 0.2980342842221068, 0.29505454367742306, 0.2921941766566936, 0.2892863099516003, 0.28642443207484763, 0.28360824702610943, 0.2808374688407494, 0.2781015537888144, 0.27542206194087737, 0.2728447635589873, 0.2702457746968281, 0.26769370694542527, 0.2650407518093593, 0.2625992052085492, 0.2603655945782214, 0.2579767363765916, 0.2556355183969904, 0.25336838738854356, 0.251116276778777, 0.2487738955522281, 0.24663137693629952, 0.24452598938270145, 0.242543598779216, 0.2405025255753997, 0.238391186259926, 0.23644914219908938, 0.23454230209852675, 0.2326231421028085, 0.23079383103137902, 0.22904925306335994, 0.22728077146554737, 0.22554948581535778, 0.22396820204620532, 0.22229661525331007, 0.22066463744556528, 0.21907838914637398, 0.2175327455870889, 0.21586246664745795, 0.2144159201727642, 0.21306985501064518, 0.21167195708844036, 0.21030758737650979, 0.20908252024223992, 0.20777083501083587, 0.2063949562298846, 0.20517194878645317, 0.20397925191921518, 0.20284740902474838, 0.20171063891591545, 0.20047158054703912, 0.19941343302346767, 0.19837777641849935, 0.19748486534038118, 0.1964803615170061, 0.19551298121596974, 0.19456733546021113, 0.1936507064753346, 0.19266643129901748, 0.19181744357258024, 0.19105808033856228, 0.1902428031888613, 0.18945247164218784, 0.18870692361378621, 0.18796181098213285, 0.18731259879308923, 0.18660563607555436, 0.18592509655072512, 0.18529015146972028, 0.18465587401851727, 0.18386399528842212, 0.18329892146979562, 0.18274499516287515, 0.18219231300590133, 0.18166296056781628, 0.18115864299216583, 0.18065040423479592, 0.18015449286358545, 0.1797084221060703, 0.17923195802500422, 0.17876937438636886, 0.17832008072613117, 0.17788348278757884, 0.17744529543611154, 0.17703402783449246, 0.17661236156806898, 0.17622346952756252, 0.17584257025342614, 0.17555487017065755, 0.1751780740322808, 0.17487455123332574, 0.17451221180316404, 0.17416285971834228, 0.17379080307009728, 0.17346745839218491, 0.17316138044688764, 0.17284986928753532, 0.17254425177223595, 0.1720862665682685, 0.17180985900946957, 0.17165133179427097, 0.17134929111259561, 0.17104988002656124, 0.1706977091909628, 0.17040860185751522, 0.17004194409925102, 0.16975771245902385, 0.16946673118038263, 0.1692036521822183, 0.16889603816875032, 0.1685914431351422, 0.16827520015096387, 0.16795525271465725, 0.16763136359847974, 0.16730327472487805, 0.16702546399601242, 0.16668121233749092, 0.16633496807755743, 0.16595176100044362, 0.16560365849903916, 0.16536588753610687, 0.164990697373936, 0.16461534779618292, 0.16424200079105292, 0.16386224327512985, 0.16336274800827277, 0.16298997993796854, 0.16260549661502566, 0.16226764628656343, 0.16185285987855283, 0.16147452626000267, 0.16103765726253397, 0.16059450634176817, 0.1600485738711585, 0.15960300352264192, 0.1591268327200511, 0.15865673512621883, 0.158172725671646, 0.15772648611315015, 0.1572091653143819, 0.15658932711664525, 0.15606325273277535, 0.15552150123585237, 0.15495780998953407, 0.15438723709461213, 0.1537952802945456, 0.15319692255792156, 0.15258443842283634, 0.15196161913801662, 0.15132150269954683, 0.15076764370441212, 0.1500892123552803, 0.14940373306087382, 0.14863183977698288, 0.14794031772630895, 0.14736561744443144, 0.14663140484095866, 0.14589162705589415, 0.14502904132072914, 0.14429028578556952, 0.14350630234775638, 0.14274294756121336, 0.14196413763474877, 0.14121834276833917, 0.14040419649687746, 0.13946588878456784, 0.13864359271185753, 0.13780381188481244, 0.1371186179554524, 0.13622503494510863, 0.13520982866542813, 0.13431973179236575, 0.13338577250956063, 0.13247388640964716, 0.13154806237991748, 0.13066368191115774, 0.12970488713833264, 0.12870957201930933, 0.12773598854598245, 0.1267518150397878, 0.12578471622586537, 0.12477675284056533, 0.12376398664443053, 0.12273917753462099, 0.1217064297498239, 0.12074107877925157, 0.11968310595991495, 0.11850186107231626, 0.11745154066456176, 0.11639010609540981, 0.11535584723413095, 0.11426932283519287, 0.11312428206188563, 0.11203010574710248, 0.11092632614706177, 0.1097964857955262, 0.1086775761390217, 0.10756019543354299, 0.10642317983283035, 0.10527928635080017, 0.10408451691647856, 0.10293392933579636, 0.1017993014721635, 0.10063046091546073, 0.09945643531030908, 0.09840429062728843, 0.09720520437399173, 0.09589295392479269, 0.09471430850805879, 0.09353113984016276, 0.0923610539753922, 0.09116813418909836, 0.09000385559997351, 0.08880300882437167, 0.08760229435255736, 0.08643596212042445, 0.085231301479582, 0.08391935760244841, 0.0827328213246664, 0.08154208106602498, 0.08041981648842639, 0.07921396480679131, 0.07795886984449951, 0.07676374497911524, 0.07556797159450136, 0.07439259886830914, 0.07319444947819223, 0.07203590105394643, 0.07083716991431684, 0.069643028449618, 0.06843631713634375, 0.06725340481278044, 0.06602958500914384, 0.06485963561440504, 0.06369113341837969, 0.06263413356251178, 0.06145628581740893, 0.06020543082601535, 0.059055771984815514, 0.05790982345851313, 0.056743998962043136, 0.05560958572502276, 0.05459836059809566, 0.053456141809416824, 0.05232503666360986, 0.05130717829285846, 0.05018381927380544, 0.04890147407131049, 0.04783014275703084, 0.04676248313053132, 0.045692246506120575, 0.044634539715089926, 0.0435749383609927, 0.04252852724848905, 0.04148770203596019, 0.04067198182958478, 0.03961611217558157, 0.038579514421851445, 0.03756081818202714, 0.036558839171759755, 0.03540830025860529, 0.03445762249375316, 0.03356657817406831, 0.03261944321039373, 0.03168161412154197, 0.03085248479033443, 0.029921184689873034, 0.028929946259985947, 0.028038223948924537, 0.027156449910074227, 0.026407973842021874, 0.02553098672246127, 0.024537870933290237, 0.023711590632005435, 0.022893607565805683, 0.02212545413383932, 0.021320237664887796, 0.020643264598578518, 0.01984715254956439, 0.019069533264161963, 0.01825476578573035, 0.01751851358247865, 0.016894610681968403, 0.016171908358938808, 0.015467675854620435, 0.014729723123489587, 0.014066466097437799, 0.013498704628544222, 0.012851675929470395, 0.012222419801369106, 0.01161022208969133, 0.011014475755503619, 0.010468889746464816, 0.009900268001319802, 0.009348725447277143, 0.008841075910060453, 0.008318633245461076, 0.007813381394223632, 0.0073247808372221964, 0.006852381658723323, 0.006430033828640506, 0.0059846675345423435, 0.005491490702787314, 0.005088300408282045, 0.004697823777977098, 0.004481108098902593, 0.004096347915345427, 0.0035559967234004043, 0.003237352883607388, 0.0029290370519876713, 0.0027138007052997094, 0.002417564821037274, 0.0022098296392486804, 0.0019375855781406006, 0.0016856567167321623, 0.0014704489781565118, 0.0012549732977047427, 0.0009939281333205198, 0.000824998854690176, 0.0006708081828451331, 0.0006409749154069505, 0.0005027560186442544, 0.00042683309696461065, 0.0003251236660802933, 0.0002455386557455413, 0.00021114976554388384, 0.0001702647384990038, 0.0, 1.9806595247364633e-05, 5.1008807708239874e-05, 0.00015932227416036148, 0.000207123113942556, 0.0002718814184157166, 0.0003536036669412186, 0.0004523134912080109, 0.0005612048202845687, 0.000694881532848905, 0.0009513950121059101, 0.0011052872091238243, 0.0012821341259650573, 0.0013990777040072126, 0.0016301391764873047, 0.0020145497174812476, 0.0022614520204584094, 0.0025329296443682113, 0.00278017854486039, 0.003104310504221113, 0.0034788224146821162, 0.0038380668627636845, 0.004218356184399105, 0.00469466124875114, 0.00510664411885624, 0.005515771078472932, 0.005979518479594653, 0.006464896082709184, 0.00702979364459388, 0.007550290324201737, 0.00808818666523969, 0.008657473764037747, 0.009249603026556, 0.009888225210015068, 0.01052217740822612, 0.011094080049345267, 0.011785568044809444, 0.012495262678171255, 0.01319975742197569, 0.013950513433254916, 0.014781299899801582, 0.015561802764164545, 0.016365488304453255, 0.01710346853223176, 0.0179650496771408, 0.018944382343533118, 0.019831297164295308, 0.020743936628014752, 0.02165826563253236, 0.02262517890191857, 0.023674514403059514, 0.024682778541562856, 0.025718982905552863, 0.026782878033734938, 0.027874274391234147, 0.02899303630743064, 0.030139076431324987, 0.031483455201631594, 0.0326623260797339, 0.033878061201827354, 0.03501641975848633, 0.03631642441709926, 0.0376367517632711, 0.038992089440435786, 0.04037450907527077, 0.04186638809494985, 0.0432933462969318, 0.04477331788902936, 0.04626227151714529, 0.04778420926309192, 0.04929428168723844, 0.05088681821666727, 0.05251928939808223, 0.05417010821057758, 0.055851678745446734, 0.05762237433261082, 0.059358710578025733, 0.06099626420200724, 0.06281862316782233, 0.06466782385907702, 0.06667832534103858, 0.06856725093447985, 0.07043852201021987, 0.07240827854054542, 0.07441155445100474, 0.07642126048162538, 0.07849590108691637, 0.08055206086667363, 0.08269940215385001, 0.08487770305370156, 0.08718364728604446, 0.08941427163830652, 0.0916699167698094, 0.093979573867704, 0.09632697639421417, 0.09866085648925214, 0.10109044526250233, 0.10372281410189994, 0.10620191317457132, 0.10872651082314475, 0.11125463093800685, 0.11387281709712592, 0.11641207484605468, 0.11912687018698234, 0.12187539449812519, 0.12468244185732516, 0.12749783532362913, 0.13045667605014777, 0.13333381203291136, 0.13625508802725125, 0.13925423174269452, 0.1422580559868392, 0.14528956612358243, 0.14838457790678697, 0.15152237502876548, 0.15464793597329, 0.15787747258015541, 0.1612247701449137, 0.16452276607539645, 0.16786482045952086, 0.17120607579618574, 0.1746408183346362, 0.178095644551533, 0.18161435424482725, 0.18517279832986355, 0.18875757709304014, 0.1923980566901948, 0.19610223440678448, 0.19981948451688886, 0.20357840645595374, 0.2072969110297479, 0.21114967071019683, 0.21505668737863426, 0.2189822384077805, 0.22294712369962794, 0.22690377421851904, 0.2309543418052618, 0.23520322596866855, 0.2393089629158113, 0.2434622034613045, 0.24758330850386978, 0.25183879344613636, 0.25609031288233125, 0.2604323793191315, 0.2648122743078714, 0.2691823138349725, 0.2736445326820824, 0.2782689905238937, 0.2827868711756378, 0.28734823469520687, 0.29190781367111124, 0.29655947037884817, 0.301171189947104, 0.30591003248748944, 0.3106825984997145, 0.3155302477253247, 0.3203658594571954, 0.325162825541365, 0.3300809439261505, 0.33503086096153023, 0.33999571850878524, 0.345012050653005, 0.35011443314093654, 0.3551865454450119, 0.36029315118020316, 0.3653413425918994, 0.3705270592396453, 0.3759560714574307, 0.3811701041850811, 0.38642416319668926, 0.3915385241223684, 0.3968899313412982, 0.40234854086906097, 0.40773969970378465, 0.41316043539360536, 0.4185448923654048, 0.42403050351175325, 0.42962853357507463, 0.4351494930872836, 0.440698247480713, 0.44613336893031447, 0.4517521231429097, 0.4574662465260328, 0.4631084760323106, 0.46877187792233355, 0.47437015208713285, 0.4800844542959537, 0.48578545545073326, 0.49153125983042545, 0.49728928165192593, 0.5031313017069506, 0.508904312621342, 0.514679315221377, 0.5204844544132975, 0.5263025698497786, 0.5320746132432774, 0.5379233953091735, 0.5438613338467262, 0.549713317122512, 0.555575926375402, 0.5613623392636501, 0.5672532271530526, 0.5732317405312414, 0.5791154315301705, 0.5850048737667505, 0.5908131673562782, 0.5967209135256544, 0.6026051145171085, 0.6085088465670669, 0.6144071786572258, 0.6204056513414006, 0.6262780649065568, 0.6320328359975472, 0.6379157810786146, 0.6437877640271552, 0.6495729366662208, 0.6554307534910262, 0.6613057026783945, 0.6671248581910475, 0.6729284016806318, 0.678787519524828, 0.6845486509857835, 0.6902138401712488, 0.695956289573663, 0.7016774565729074, 0.7072705189477094, 0.7129602592430594, 0.7187846315232204, 0.7243942968217587, 0.7299833037911736, 0.7355020921325447, 0.7410509322530953, 0.7465510736208847, 0.7520450398649648, 0.7575074024595387, 0.762851618656275, 0.7682585922631487, 0.7735542487090395, 0.7788910290615162, 0.7841834753234465, 0.7895068851289159, 0.7947010275083449, 0.7997862145836359, 0.8049069811888541, 0.8099813569102935, 0.8151696692405547, 0.8201293065935653, 0.82500188212674, 0.8298872329948107, 0.8347267667986472, 0.8393684541448422, 0.8441310578327726, 0.8489343776450234, 0.8535672507057481, 0.8580920315258869, 0.8626239999076838, 0.8670972658178993, 0.8715761582304962, 0.8759216836228031, 0.8802612931396712, 0.8844845119063673, 0.888650760359745, 0.8926112333472241, 0.8966772679892272, 0.9006870541599947, 0.904611257688481, 0.9084657627629051, 0.9122500892917463, 0.9159637123684674, 0.9196437117771783, 0.9232094469307078, 0.9267048109124111, 0.9300261950303875, 0.9333909785857416, 0.9368137351396764, 0.9400033321525909, 0.9431215031986815, 0.9460334776446034, 0.9490218186279266, 0.9520336220130816, 0.9548432821196847, 0.9575761565883977, 0.9601525302646033, 0.9627388165645743, 0.9652684120148948, 0.9676828793886773, 0.9700143384201454, 0.9722930864225939, 0.9744531363017814, 0.9764893569261087, 0.9784883452748279, 0.9804008566207634, 0.9822197346542879, 0.9839592193378858, 0.9855561509888515, 0.9871267047738522, 0.9886058759610541, 0.9900212270015127, 0.9913146782314425, 0.9924844753100961, 0.9936032223885898, 0.9946302843967042, 0.9955315490869945, 0.9963798626033125, 0.9972135175277502, 0.9978654549969663, 0.9984290120291758, 0.9988592887138528, 0.9992505163296472, 0.9994984311546773, 0.9997122621551326, 0.9998313804382425, 1.0, 0.9999129325483743, 0.9996789466079908, 0.9994282375810979, 0.9990872923037091, 0.9985841806631376, 0.998071689931842, 0.9975298689474148, 0.9968210855814812, 0.9960228226894304, 0.9950974795957791, 0.9941251856230942, 0.9931436804568735, 0.9919787866178671, 0.9907280955540997, 0.9893948408444388, 0.9879716451584782, 0.986421471914371, 0.9848316739055936, 0.9831537948298026, 0.9813062098188523, 0.9794640920388679, 0.9775137595717385, 0.9754928315283243, 0.9733822490773635, 0.9712517147515676, 0.968956890701598, 0.9666619888844471, 0.9641929148734154, 0.9616473716914211, 0.9588678918095017, 0.956189268521646, 0.9534357743745294, 0.9505870972905633, 0.9476568253041233, 0.9445949297982478, 0.9415118215793252, 0.9385225447212026, 0.935257580699908, 0.931924839960582, 0.9284422446097296, 0.9249846058514801, 0.9214379624217062, 0.9178397288634526, 0.9141707092893533, 0.9104047114160533, 0.9066011266677605, 0.9027903493322006, 0.8988427843845395, 0.894832634202146, 0.8907504730206987, 0.8866190130949851, 0.8823141055057152, 0.8780769249023923, 0.8737749884237088, 0.8694376645692212, 0.8650086388507853, 0.8604536626453965, 0.8559197985009521, 0.8513275983574186, 0.846812529514284, 0.8420927052399311, 0.8372353802327802, 0.8324377063354802, 0.8275911629586411, 0.8228512916798391, 0.8178921476799433, 0.81277412597373, 0.8077594127633323, 0.8027026738078209, 0.7975335061477127, 0.7924061699703343, 0.7872542264707397, 0.7820432920542745, 0.7767955203767566, 0.7714647114478216, 0.7661544018801701, 0.7608814176355344, 0.7554949093328653, 0.7500817427312788, 0.7447526565825002, 0.7392760306845471, 0.7336457254178221, 0.728153186579748, 0.7226370289051965, 0.7172221395738241, 0.7116482026232386, 0.7059530094302712, 0.7003700071807322, 0.6947703774228253, 0.6891352297103619, 0.6835098316617819, 0.6779672946806284, 0.6723055762241509, 0.6666396483550778, 0.6608882282352303, 0.6552268624351684, 0.6495696449128647, 0.6438963998788793, 0.6382208787580951, 0.6325924786555316, 0.6269107843630524, 0.6212886397571941, 0.6156106415089415, 0.609942590212835, 0.604233787916081, 0.5985940936803964, 0.5930149076623116, 0.5873883180113331, 0.5817762666737745, 0.5760598049646779, 0.5704944932164218, 0.5649875128073044, 0.5594388954336977, 0.5539071133218723, 0.5482976956248737, 0.5428157108975029, 0.5374928631691511, 0.5320255540507332, 0.5265856560336749, 0.5211258982310382, 0.5157488345413072, 0.5102992812518093, 0.5049893927816326, 0.49970291342413636, 0.4944417189883304, 0.48920756275086025, 0.48398497484077424, 0.4788118763034004, 0.473669474427288, 0.4686448125188793, 0.4635573631380043, 0.4584069383539629, 0.4534123777984933, 0.4484528208809111, 0.4436767938518187, 0.4387726725832798, 0.4337787786180736, 0.4289861136338636, 0.42423280488494663, 0.4196808543939269, 0.4149893348340817, 0.41013044400589055, 0.4055695498312226, 0.40117744235497904, 0.3966791952955631, 0.3922300396263449, 0.38772416755610123, 0.3833874485051561, 0.3791939666886833, 0.37493384690708453, 0.37072549781392805, 0.3665964554840947, 0.3624886772113241, 0.35830810220363113, 0.3543239423321935, 0.35038646553660235, 0.34654804742519313, 0.34270047548226124, 0.33900795878980894, 0.3352525356980694, 0.3315559245832708, 0.3279346963135314, 0.3243520024842674, 0.3207079063768715, 0.3172566200056506, 0.31385609435367856, 0.3104864073874697, 0.30719176139601173, 0.3040407481396559, 0.30083747359859403, 0.2976917053634719, 0.294558645499401, 0.2915326074462149, 0.28861204930821727, 0.28568792854160363, 0.2828210267161805, 0.27989120767427067, 0.2771528195963112, 0.2745973615563273, 0.27194168983425926, 0.2693441750368696, 0.266804189489629, 0.26432114677267493, 0.2618294763621363, 0.2594669175193538, 0.2571560852148972, 0.25496204707520365, 0.2527465434026621, 0.250586419214914, 0.24848106523151794, 0.246429897238092, 0.24438102068745424, 0.24244304206588435, 0.24054788241140554, 0.23870998592940373, 0.23692110601729652, 0.23518794788157532, 0.23349577340374028, 0.23178058530233253, 0.23019487493783197, 0.22865330577169007, 0.22710816330249498, 0.22566141826341268, 0.22423588617487197, 0.22287553285106954, 0.22155625774546006, 0.2204288651036284, 0.21917328384675236, 0.21783068981385995, 0.2166908456109442, 0.2155906269291374, 0.21456073489191146, 0.21353549248088394, 0.2125134133976743, 0.21157395911292146, 0.21067199708592468, 0.20984824718983458, 0.20901497786630377, 0.20826819319178164, 0.20750516920218975, 0.20678170865272993, 0.206052083304184, 0.2054096962688826, 0.2047939403303913, 0.20421861016285517, 0.20367484334017594, 0.20313111877086718, 0.20265219143378335, 0.20220089073775077, 0.2017767038900886, 0.201379077719222, 0.20098004624269186, 0.2006372026348267, 0.20035516506732093, 0.20005343280601728, 0.19977601593627833, 0.19950837469569319, 0.19927876357024946, 0.1990838302118218, 0.19889372417909626, 0.1987238771453852, 0.1985255037319912, 0.1983996083269916, 0.19842213061504754, 0.19830879843928745, 0.19821692106545818, 0.19815171717244992, 0.1980971090373738, 0.19804264852068562, 0.19802331805399426, 0.19801756568895093, 0.19800375493192374, 0.1980244951900775, 0.19799290388488658, 0.19803916809105368, 0.19808966747372161, 0.19807911656477903, 0.19814546316732035, 0.19838599033140084, 0.19842971112081612, 0.19848304815562554, 0.19847610508510088, 0.19855306048927007, 0.19853931123613372, 0.19863069149384088, 0.19871730091550555, 0.19879240602068904, 0.19887058355394013, 0.19906345762205466, 0.1991162690105939, 0.19917051843741454, 0.1991634476431355, 0.1992249454754951, 0.1994248640872568, 0.19945709589706945, 0.19949111929402039, 0.19946026607031656, 0.19950128738085818, 0.1995427565474312, 0.19956937752018516, 0.19958854290026504, 0.19952767100080976, 0.1995388995761384, 0.199574251069985, 0.19955365616064863, 0.1995215672230018, 0.1993543898605818, 0.19931369832265985, 0.19938688382402547, 0.1992907628525476, 0.1991836602513669, 0.19901014688424193, 0.19888601863204078, 0.1986706463276513, 0.1985240031159589, 0.1983569213972923, 0.1982177608787636, 0.19800500738795995, 0.19772769003304924, 0.19748751284727195, 0.19722763525119583, 0.19703722127073448, 0.1967272080651633, 0.19634814726992325, 0.19601580032290092, 0.19566480413210222, 0.19536689956475814, 0.19496914376127772, 0.19449136756409513, 0.194071119436328, 0.19363087069690554, 0.19315346158303803, 0.19267522459702796, 0.1921895617992015, 0.19166745240171376, 0.19112515602614263, 0.19061737728818026, 0.190027643452117, 0.1894206671627315, 0.18879597986976443, 0.18815317651994987, 0.18748506689115915, 0.18680591342410238, 0.18613475887066425, 0.1854132506129541, 0.18467366261586973, 0.18376855926600966, 0.18301061810422142, 0.18224618592427513, 0.18143266131286234, 0.18059528350375992, 0.17985110603874896, 0.17895335868864493, 0.1780402226085698, 0.1771113054403861, 0.17616629009949433, 0.17506804518820987, 0.1741074595815287, 0.17313964385931604, 0.17212923957044066, 0.17109741836314196, 0.17004147913654755, 0.16896936610872854, 0.1679152952627608, 0.16679982682480965, 0.16566804115586414, 0.16466047168159284, 0.16347900338020732, 0.16223846838230588, 0.16104714438590856, 0.1597580509152316, 0.1585529307246154, 0.15733050651634767, 0.1560537809182071, 0.15480341817021462, 0.15357314131445265, 0.15228378142869065, 0.1509806734131556, 0.14970192699849913, 0.14836795608331133, 0.14703741686574165, 0.14568134717129727, 0.14431611289910085, 0.14295207961192033, 0.1415675578818795, 0.14006193835426126, 0.13867548744997313, 0.13727483164941875, 0.1360253470805561, 0.13457878241230187, 0.1330755975712301, 0.13163180384523343, 0.1301823400055647, 0.1286897868977315, 0.12723444543211657, 0.12582683819784934, 0.1243511481327014, 0.12287272219524153, 0.12128219790928901, 0.11981262021203484, 0.11836209068078032, 0.11687353069235802, 0.11538037091411227, 0.11394497225918765, 0.11243707629524072, 0.11093705958589743, 0.10943053124961748, 0.10792578027673622, 0.10630320308928988, 0.10481769104345483, 0.10334152438159709, 0.10184681413265996, 0.10035086873445617, 0.09886487718355176, 0.09736786505346276, 0.09592752184698927, 0.09442807662687075, 0.09293489791573468, 0.09146866233369608, 0.08998587573935207, 0.08856233796718785, 0.08708893785627293, 0.08562645668174267, 0.08409246453475541, 0.08266138690073316, 0.08127017499935714, 0.07984663957225703, 0.07843180416920459, 0.07710463492868609, 0.07569803621375112, 0.07428825783070231, 0.07291134469616224, 0.07154681003364201, 0.07006115451503474, 0.06873818822292914, 0.06740303276441312, 0.06609324170947284, 0.06478965072495824, 0.06353444068348933, 0.06224130447731169, 0.06090839543285175, 0.059645374585926995, 0.05839201187716815, 0.05728946428769222, 0.05604015122636315, 0.05483806503197943, 0.05362449263950113, 0.0524313896965238, 0.05116579241803326, 0.050023699259258175, 0.04888860722734064, 0.04777549058295425, 0.04667664879445068, 0.04561303660674213, 0.04454138401294061, 0.043602684939982136, 0.04254969716380372, 0.04152017876488079, 0.04036278457831813, 0.03939703300963612, 0.038502475763814506, 0.03755614111786994, 0.036627487919054603, 0.035771399004878385, 0.03487157182823042, 0.034006567544438066, 0.03314695864375272, 0.032308662461822624, 0.031429745781353685, 0.03064090845497363, 0.029975155226201766, 0.029207202492607443, 0.0284627743479299, 0.02772073396230495, 0.02702422055505673, 0.026362193031234202, 0.02570532544805666, 0.025069623321966057, 0.02448220342923328, 0.023884632165919423, 0.023387808962752138, 0.022823994461492976, 0.022285947654825382, 0.021700901838514756, 0.02122088751292238, 0.020753400536340616, 0.02031298961940781, 0.019891567704572836, 0.0196329326593666, 0.019231526963349184, 0.01871707933552513, 0.018386849370844605, 0.018073964698703954, 0.01796693804438843, 0.017665811222055874, 0.017342067679128825, 0.017103559957149368, 0.016888447341163324, 0.016631128754054893, 0.016469360191114682, 0.016301861451784076, 0.016179716269533517, 0.016074729500379848, 0.01618911566484686, 0.01609381516215818, 0.015914900524752494, 0.015891090909369365, 0.015887594753861912, 0.015924757933163346, 0.015958756341161524, 0.016051370640294924, 0.016122263965841, 0.0162156938922751, 0.016320863780471494, 0.016459136719368758, 0.016638492923873077, 0.016814990982185255, 0.01701266420641083, 0.017279037602539772, 0.017511896267328974, 0.01782234966804759, 0.018093318949111235, 0.018388982315460375, 0.018633112786731007, 0.01898497619525337, 0.019457484372652226, 0.01983230922869691, 0.020230840180529678, 0.02074463923347676, 0.02117650419176885, 0.02158031390036046, 0.02207120853352944, 0.02258331745477308, 0.023085310515939074, 0.02364222731725457, 0.024337037704229642, 0.02491498002974377, 0.02551764482795187, 0.026031112783807337, 0.026694665176495328, 0.02748010842758069, 0.02816214295271442, 0.028866486315682484, 0.02965413354177481, 0.030393588984839993, 0.031160685176351618, 0.03194728919552297, 0.03275671631724651, 0.033465123420553196, 0.03433393067734214, 0.03537099075856768, 0.036249460511712434, 0.03715200998100062, 0.038077916917283176, 0.03902656821968967, 0.03998033782519747, 0.04097518112055802, 0.041990512327529546, 0.042954321747949095, 0.04401932024279272, 0.045120991746068206, 0.04621621982463682, 0.047329786408044715, 0.04858176012482035, 0.04971773052512301, 0.050800891713857044, 0.05199789711958849, 0.05321506141440522, 0.054596231127951235, 0.055835904876410394, 0.057100759089305154, 0.058397052950466405, 0.05956245364654143, 0.060930985863710166, 0.062315901193087796, 0.0637829928306761, 0.06519470977221788, 0.06665254604939504, 0.06810563710491752, 0.06958239959618442, 0.0711272308172612, 0.07264547810695193, 0.0742684368795979, 0.07582839041345446, 0.07741813703265345, 0.07888625755770505, 0.08055222086957231, 0.08224422029174294, 0.08394843012791314, 0.08567361911058992, 0.08754013176220587, 0.08929381265448985, 0.09102204685105494, 0.09284076961043558, 0.09468482823893831, 0.09664331498812034, 0.0985271688787381, 0.10033225398628359, 0.10229088205083134, 0.10427310860584686, 0.1063205230042323, 0.10834629938499488, 0.11041315811594443, 0.11249210788296124, 0.11459947062599171, 0.11673186519921515, 0.1188966371909931, 0.1212061841623366, 0.12341323656288208, 0.12565554560566483, 0.12790497323901473, 0.1302191012766593, 0.13250686211155574, 0.13489176765719346, 0.13730489236588647, 0.13974663142835198, 0.14221737250146999, 0.14474487187545157, 0.14727128599215245, 0.1498293518533895, 0.15243973546639839, 0.155058927492927, 0.1577661294804551, 0.1604449274172769, 0.1631601174026204, 0.1658257817004441, 0.16862355388434877, 0.17153759751479178, 0.17438652252555575, 0.17727199948123878, 0.1801219478783645, 0.1830890221379712, 0.1861291953496513, 0.18915565850454025, 0.1922174535101471, 0.19525652367120686, 0.19839670521667868