0.032001038870507974, 0.0314000163687108, 0.030868403827088248, 0.03036459532297076, 0.029900818638687574, 0.02945516412097393, 0.029056478403607505, 0.028596228801321674, 0.028251996642135534, 0.027919924385926494, 0.02763540839238716, 0.027317639569398065, 0.027057444462964254, 0.026751668288547015, 0.026456069534303413, 0.026109218524413873, 0.02583868498178545, 0.02556186988360059, 0.025301556393956953, 0.025045395144392777, 0.024804471875289155, 0.024556638686418972, 0.02425824066629573, 0.024030614283717402, 0.02380714034892261, 0.023633265479748013, 0.023415633037353025, 0.02318287262694283, 0.022988444960940903, 0.02280356854208545, 0.02265924243837802, 0.02249207468873045, 0.022256850295434293, 0.022127732404148948, 0.022008634545203177, 0.021872299712886727, 0.021780200363006718, 0.02177429933940969, 0.02169717039724949, 0.021638043105573095, 0.02157419576267887, 0.02155506296461533, 0.021482679259483495, 0.021508590028123224, 0.021549310625968054, 0.02163074182626176, 0.02170097731674156, 0.021845315970747802, 0.02194730820808004, 0.02207258728664212, 0.022159076606411088, 0.022339002444293144, 0.022547862296554335, 0.022767403728429964, 0.023008705699344534, 0.023321952621101982, 0.023601878900256258, 0.023829577927201133, 0.024171176476893985, 0.024534334164096273, 0.024992547654315956, 0.025391678963703163, 0.025777588840065282, 0.02623710346681613, 0.02672196386266616, 0.027204160272637674, 0.02774449171949474, 0.028286671159750726, 0.02888039209289645, 0.029498942089830144, 0.030114654604227686, 0.030788630914644965, 0.03151988882690391, 0.03224131513418046, 0.032991486580522346, 0.033742468556073595, 0.034555124674662784, 0.03541228330265949, 0.036280624710916635, 0.037179666059722456, 0.03810453913376733, 0.039067014130576214, 0.040048795410056376, 0.041076774497292357, 0.04213670298243589, 0.0432770544753993, 0.044396404503722335, 0.04546493512646606, 0.046667729082243564, 0.047902022875953444, 0.04925388304828296, 0.050542870855616415, 0.051833208320905204, 0.053204169932817943, 0.0546116934877654, 0.0560099807265671, 0.05749755082244004, 0.05909118502464055, 0.06064058321896378, 0.06223039490154933, 0.06386066738624728, 0.06553147554295218, 0.06723404115103343, 0.06898736170802551, 0.07078107783532948, 0.07261186414911185, 0.07448750126326507, 0.07640402239653689, 0.078361689762112, 0.08036076194381353, 0.08237130987281478, 0.08445776432699861, 0.08654738904653042, 0.08871994518919651, 0.09093177982305066, 0.09319424799838001, 0.09548532800850823, 0.09785724301258529, 0.10022735239539321, 0.10264222100728784, 0.1050379492946329, 0.10755046986567848, 0.11005627451084399, 0.11265782579526504, 0.1152988923733354, 0.11806192656528348, 0.12077393353336321, 0.12344329986975904, 0.12625863100834503, 0.12911478125154507, 0.13202650184811565, 0.13496404687185556, 0.1379197317817045, 0.1409465984703358, 0.14401538364056396, 0.14714057178570925, 0.15029216927305994, 0.1534746896756664, 0.15671453274072888, 0.1599969330159348, 0.16333608923980547, 0.16670174676332913, 0.17007332391513091, 0.17352985809649601, 0.17702698923997484, 0.18056117728438761, 0.18413992766071607, 0.18784949344238375, 0.19149721234199835, 0.1951900024521661, 0.1989233810530835, 0.20270401872280538, 0.2064753930382587, 0.21034622604276224, 0.2142548957437313, 0.2182011101715396, 0.22218454983071742, 0.22624392958001024, 0.23029581965170584, 0.23438601755605262, 0.23841259102723128, 0.24259002646044606, 0.24689204745179844, 0.2511186817637615, 0.255381242114777, 0.259577719520843, 0.26392252263529387, 0.26828099234221076, 0.2726833776989167, 0.2771128342717776, 0.28155513911695595, 0.28604038358697936, 0.2906527757540294, 0.29517695546333456, 0.29973235456644254, 0.3042166346129416, 0.3088438887141186, 0.3135075630142977, 0.3181772099292985, 0.32286930091086136, 0.32756556737214493, 0.33230319595073043, 0.33708010378791525, 0.34185424154599753, 0.34664812609658496, 0.35146096771718704, 0.35629194688730315, 0.36113489028074747, 0.36600025209142084, 0.37088083820168344, 0.375750918029897, 0.3806624484828608, 0.38565790730506316, 0.3905817582123437, 0.3955192972378661, 0.4003661339101285, 0.4053398659642408, 0.4103688596775496, 0.4153431379724508, 0.42032302221172513, 0.42525597212599503, 0.43025041078067394, 0.4352532505280438, 0.4402449402099582, 0.44523524197721903, 0.4502552510464474, 0.4552361044228566, 0.46017914231506174, 0.46515863899460486, 0.47021659176331565, 0.4751708330590682, 0.48012116287056733, 0.4850392526056719, 0.48998009477874277, 0.4948733234995759, 0.49979689697914365, 0.504705413518594, 0.5095375106888076, 0.51442053208589, 0.5193868006770463, 0.5242129875907163, 0.5290223129055743, 0.5337333115437787, 0.5385143502442348, 0.5432481508149836, 0.5479792040529322, 0.5526814514449848, 0.5573967684609114, 0.5620337484683644, 0.5666099731498219, 0.5711921594154482, 0.5757412732996695, 0.5802172706335155, 0.5847021965174317, 0.5891594712809405, 0.593565691696437, 0.5979326457694227, 0.6022505087501008, 0.6065371751616528, 0.6108113169605287, 0.6150077840869361, 0.6191612713375393, 0.6232438794223027, 0.6273109807465904, 0.6314132786351659, 0.635372302177402, 0.6392856917366159, 0.6431339690038234, 0.6469532390727919, 0.6507209257500703, 0.6544356557558314, 0.6580960978280324, 0.6617116132089832, 0.66525829522866, 0.6686658510438913, 0.6721066796330059, 0.6754829706036926, 0.678767559112935, 0.6820164995637512, 0.6851888048767053, 0.6883029173141171, 0.6913478490925342, 0.6943036038535074, 0.697211195210814, 0.7000611721807418, 0.7028228925856935, 0.7055126644675335, 0.7082132896434463, 0.7107466560478415, 0.7132178638756186, 0.7156104460684924, 0.7179315114757908, 0.7201531527858553, 0.7223308007391562, 0.7243625869946168, 0.7263949022527336, 0.7283450460507368, 0.7301932629082817, 0.7319808215258319, 0.7337518034911805, 0.7353625844978151, 0.7368927531982831, 0.7382793977076147, 0.7396539292165463, 0.7410309468319565, 0.742221529586986, 0.7433304852370238, 0.7442539325917318, 0.7452100182205466, 0.7461756342323738, 0.7469394938706432, 0.7476192734277426, 0.748150323083995, 0.7486678985725266, 0.7490478853277172, 0.7493922074435692, 0.7496441605746968, 0.7498609306244165, 0.7499220301408825, 0.7498150392282107, 0.7497096540574176, 0.7495112260571473, 0.7493498724850215, 0.7489504471405211, 0.748328154780847, 0.7477768254065805, 0.7471321391461948, 0.7465030582827817, 0.7456598920518972, 0.7446549414131469, 0.7436502170658028, 0.742555184624024, 0.7414430775004429, 0.7401595386143601, 0.7387680063158241, 0.7373174153018532, 0.7357804035860757, 0.7341411844855537, 0.7324339764474858, 0.7306650245807038, 0.7287819299921259, 0.7268145707329942, 0.7246673815335989, 0.7225445971427883, 0.720397166188732, 0.7180904003294507, 0.715701061396877, 0.713247522966036, 0.7106926765422154, 0.7080830476789125, 0.7053663376554945, 0.7025725430568556, 0.6996559468847263, 0.6967152215832538, 0.6936271068553356, 0.6905398460069025, 0.687372563877881, 0.6841445900640256, 0.6808196861146798, 0.6774540466736776, 0.6739772163268165, 0.6704303453859097, 0.66677356887564, 0.6630947141364095, 0.6593766873596947, 0.6555566700773555, 0.6516717003829876, 0.6477601504553847, 0.6437438421554944, 0.6396378089881195, 0.6355070776407735, 0.6313168555424451, 0.6270967462656849, 0.6227875582006274, 0.6183229171969348, 0.6139190471255874, 0.6094573410282789, 0.6049201952649428, 0.6003510049571075, 0.5957799744334352, 0.5910995367041275, 0.5863724395693487, 0.5816213803069056, 0.5768024494037496, 0.5719813033524226, 0.5670761183799937, 0.5621343496119322, 0.5570806281402627, 0.5520783377994366, 0.5470968850865188, 0.5420134467805742, 0.5368990488039593, 0.5317620373792155, 0.526588592568599, 0.5212872266890022, 0.5160744290443466, 0.5108318468738928, 0.5055616495298872, 0.5002659336056128, 0.49503195265135586, 0.4896804574337017, 0.4843141469262827, 0.47893420608684695, 0.47354186147616445, 0.4680211957901491, 0.46262268481839036, 0.45720908161177004, 0.4518590263382846, 0.4464123765383965, 0.44090294034807503, 0.4354567316368266, 0.43000589354677254, 0.42453990297474425, 0.4190870379210433, 0.4137356027265829, 0.40827225127746775, 0.40281846011061384, 0.39730947286546187, 0.39188597204428544, 0.38654765859944673, 0.38113380167411404, 0.37573627011163746, 0.37032050148704104, 0.36496300356635014, 0.3596370329767758, 0.3543137564564276, 0.349011340089955, 0.34373636288614556, 0.3384787612735884, 0.3332088190877888, 0.3280070520781517, 0.3227702413258643, 0.31762829413021043, 0.3125113307482286, 0.3074710216335276, 0.302403518079455, 0.29732854943090437, 0.2923342465764009, 0.28737358894915027, 0.2824286194572788, 0.2775423750949095, 0.27273581719632833, 0.2679198802132501, 0.2631464257569159, 0.2584768801643807, 0.2537839178331098, 0.24907602621498603, 0.24448963257145245, 0.23994970185778192, 0.23544845396756076, 0.23100582691433755, 0.22657151220734437, 0.2222334069309083, 0.21794423965177576, 0.21374615278221737, 0.2095535375929388, 0.20536257185173215, 0.201287271055922, 0.1972653743116069, 0.19339388727038415, 0.18946998859966613, 0.18561158703352465, 0.18181127249454962, 0.17807341705559152, 0.17440706916730822, 0.17079354810851613, 0.16712993822270314, 0.163658027767944, 0.16024362247550228, 0.1569481968418645, 0.153644391753106, 0.15040627896431238, 0.14723041835821685, 0.1441192216624978, 0.14109959527449312, 0.13811515988961967, 0.13510353882927187, 0.13226482181146482, 0.12948772411040851, 0.12685999383676227, 0.12419728768046503, 0.12154978439926403, 0.11903052579455185, 0.11657631053322176, 0.11421931658889373, 0.11189175416623949, 0.10961733125249862, 0.1074260665389424, 0.10530096550030958, 0.10317978872425483, 0.10119454875510776, 0.09933729507075038, 0.09746865022165294, 0.0956665225466949, 0.09394827782637903, 0.09227576022899918, 0.09060030720493961, 0.08906858818929388, 0.0875981484513126, 0.08615168891374785, 0.0848084076749757, 0.08363769038848802, 0.08239799361888811, 0.08122368074135415, 0.08003206746077014, 0.07899584302712229, 0.07801569660335422, 0.07709512887213495, 0.0762317024609982, 0.07546942200264839, 0.07471346305694687, 0.07398031498195841, 0.07334458935675059, 0.07276339548727434, 0.07223256628573695, 0.07175899700397759, 0.07134667314126845, 0.07097601862642619, 0.07065679634305821, 0.07034022802424716, 0.07012738671891551, 0.0700618996338179, 0.06992804627671229, 0.06984491588381532, 0.06982880025702498, 0.06984052692833748, 0.06980028691097492, 0.06991801806172719, 0.07007470448516595, 0.07027330058273369, 0.07050559716905902, 0.07080703693708915, 0.07110886656078137, 0.07144803930639158, 0.07181809202107124, 0.07222920929548557, 0.07266329289355432, 0.07314188686151972, 0.07365127510810271, 0.07424190438082867, 0.07480322624692148, 0.07531515471742047, 0.07594607649840221, 0.07660003872854168, 0.07734548974404994, 0.07803434328349095, 0.07870143270805532, 0.07944343395606714, 0.08020430529408695, 0.0809226297911117, 0.08172570274083969, 0.08263337651781823, 0.08344871386602934, 0.08428020698293168, 0.08509972997871924, 0.08596245505612671, 0.08679817595393499, 0.08768499320217639, 0.08857763266690181, 0.0894734378472758, 0.09037526848146424, 0.091315588480086, 0.09221793137217586, 0.0931233072830387, 0.0940535097036028, 0.09495818889523155, 0.09583320576353287, 0.09674132422456438, 0.09764547332669032, 0.09855698456072033, 0.09944833910078758, 0.10041127133151168, 0.10127848693487611, 0.10214121478254586, 0.10299236833922219, 0.103841612804528, 0.10469883423442579, 0.1055248353389449, 0.10633924142153137, 0.10706248485516329, 0.10785931698365123, 0.10866624341600767, 0.10941848170824092, 0.1101511088443879, 0.11082596765031963, 0.11152148925339417, 0.11220517618192376, 0.11285008440168032, 0.11347037614773815, 0.11413642010808621, 0.11469654917276614, 0.11521101879990875, 0.11572769543217368, 0.11621814661117788, 0.11669924616649531, 0.1171324022167545, 0.11757865035377647, 0.11795025598156793, 0.11829466566006873, 0.11860365706406674, 0.11889130126235861, 0.11923169966691118, 0.1194465939304099, 0.11963391714446997, 0.11975502592012585, 0.11988798551881406, 0.11999826619243227, 0.12006254119968157, 0.12009280412670932, 0.12017542847179187, 0.1201248643017842, 0.12008256457187154, 0.11996434367253239, 0.11981541031517869, 0.11957778395646355, 0.11937127158755055, 0.11914735361961207, 0.1188642257457071, 0.11854477187897491, 0.11817092613318633, 0.11778020387650125, 0.11746684212549145, 0.11698546867363951, 0.11647262697790288, 0.11586180193569978, 0.11529201012757846, 0.11480930995137789, 0.11414953268153945, 0.11345980859038654, 0.11268430008864498, 0.11193941104894455, 0.11125189234219711, 0.11042551267518169, 0.10948616275393364, 0.10861076575832747, 0.10770026596508074, 0.10682788791837906, 0.10583930713112971, 0.10489745581081654, 0.10383994060867541, 0.10275709690085148, 0.10164490553701683, 0.10051060971898533, 0.099275277912027, 0.0980974755118699, 0.09688913124849052, 0.09580020002616031, 0.09451438022302036, 0.09312899445034335, 0.09181360668159724, 0.09047356736744523, 0.08917696654556487, 0.0877810132627084, 0.08633425745301276, 0.08490488145639974, 0.08345542313248815, 0.08207356406599366, 0.08057504610723067, 0.07901382368714427, 0.07749574096141339, 0.07596226740055605, 0.0745100503667111, 0.07293604143771726, 0.07131365578266578, 0.06972987286807676, 0.06813667994200134, 0.06660937346011545, 0.06499017928370897, 0.06339654269968613, 0.06176836586964411, 0.060139674012349646, 0.05845751600613004, 0.05683559438587051, 0.05530202306869956, 0.05366533723748328, 0.052033736066047415, 0.05039699078181236, 0.048778296293122775, 0.04718345752579067, 0.045575547433015465, 0.04397646191547519, 0.042330206827259076, 0.04075849049273105, 0.03918620721402459, 0.037633705967427405, 0.036091952696539524, 0.03459443221118718, 0.03307469420793438, 0.03160397885336565, 0.030115541857577793, 0.028648403211685672, 0.027228400711172968, 0.02580369972632111, 0.024450913408187103, 0.02307276736399138, 0.021724788723287824, 0.02043599577313759, 0.019146676784510378, 0.017775789225218486, 0.01656934256824318, 0.015391553940899, 0.0143648489841651, 0.013234142045923741, 0.012097640441631152, 0.011054087055107261, 0.01004955181208944, 0.009136622435110904, 0.008206924043172251, 0.007299386722200744, 0.006463806899708642, 0.00567366078020977, 0.00498144125704606, 0.004278682648410422, 0.003559840733813281, 0.002969012925609657, 0.002427102586113171, 0.0020170611710622196, 0.0015664730552233655, 0.001126986225286618, 0.0007973081734159647, 0.0005234507951493528, 0.00027625075024813013, 0.00012090370525677623, 4.2251236296035614e-05, 0.0, 1.8439284675156617e-05, 0.000183787184560738, 0.000315797876245468, 0.00046471730437273954, 0.0007402799430912369, 0.0010819067208772903, 0.0014335591820096266, 0.001916821700581492, 0.0024990028869980472, 0.003109577172067294, 0.003789575096418665, 0.004589511137102605, 0.005404445851902468, 0.006299238623538957, 0.0072628791322648075, 0.008302003156770994, 0.009356554787106022, 0.010555225621684138, 0.011892660710622237, 0.013230001207276177, 0.014645708509264152, 0.016164833767679385, 0.017734729608798763, 0.019379682553102198, 0.021111043479084934, 0.022922565144365085, 0.02474689501262463, 0.02672762526616927, 0.028786878089852724, 0.030921553697109097, 0.03313435818436431, 0.035447123587449926, 0.0378150100683338, 0.04024764060940165, 0.04277917401682832, 0.045390861470728225, 0.0481397620281548, 0.05090525796231585, 0.053731605442073414, 0.05666753403518373, 0.05968541151531771, 0.06281350312658461, 0.06599124244067857, 0.06921298473554485, 0.07256136365913612, 0.07598976977522272, 0.07951408211183766, 0.08310018329906553, 0.08683603741823423, 0.09057406199248871, 0.09439578130631421, 0.0981990560975695, 0.10219819626224118, 0.10631351066586273, 0.11045816132024064, 0.11468036220217033, 0.11898141407621274, 0.12335704180380587, 0.12784788044950535, 0.1323703058804621, 0.13696992098446045, 0.14164757495571306, 0.1463985808619643, 0.15115844499594008, 0.15606595023616632, 0.16104250850818994, 0.16611615474645144, 0.1712260432478613, 0.17638218537818612, 0.18163287353873936, 0.18694999754139632, 0.19224945331958818, 0.19770797954280134, 0.20331669021927185, 0.20888291057022554, 0.21451346721948727, 0.22018063217856776, 0.2259399257980477, 0.2317977881216469, 0.23767023225072262, 0.24360248050940764, 0.2495612526233161, 0.25561318710255365, 0.2617262746865756, 0.26788435178605763, 0.27409472145994784, 0.28037040362376564, 0.2866799885127563, 0.29294139407003095, 0.29936090632018036, 0.3058216785665831, 0.3123533037624284, 0.31889090531574776, 0.325511998682332, 0.3321248554249396, 0.33877869959556767, 0.34539030635781676, 0.352131794606803, 0.3588997066337718, 0.36570447639474013, 0.37253883164544765, 0.37947456274682556, 0.38635580133944913, 0.3931680642611639, 0.40012099183334726, 0.4070952422944605, 0.4141573369358238, 0.4211627803006872, 0.4281689485516578, 0.4352194351860593, 0.442287341165381, 0.449330305691284, 0.4564336249790226, 0.46362025205721463, 0.4707341620044948, 0.47782287246341987, 0.4849637578956765, 0.4921108511994059, 0.499243078039922, 0.5064004162139774, 0.5135031720251119, 0.520666977259014, 0.527825314148327, 0.5350268878554745, 0.5421649058802608, 0.5493254200818328, 0.5564464227137041, 0.5635599063267536, 0.5705521876700846, 0.577659320880079, 0.5847472614500577, 0.5918151657360452, 0.5988621040298991, 0.6058959475135857, 0.6128967452057028, 0.6199200242060793, 0.6268663669159716, 0.6337890706747196, 0.640666911463753, 0.6475397457802575, 0.6543952537220438, 0.6612055324052747, 0.66798380555042, 0.674712523787768, 0.6814241132955735, 0.6880342255332351, 0.6946773872087392, 0.7012766258090001, 0.7078577041184427, 0.7143630630756836, 0.7207486485931842, 0.7271717927998025, 0.7335430655637686, 0.7398600363844144, 0.7461257468153233, 0.7523905588734212, 0.7585403619393757, 0.7646372439028867, 0.7706816074585009, 0.7766683203322388, 0.7825999182136242, 0.7884712908206347, 0.794283224678875, 0.7999367638577867, 0.8056382769678528, 0.811285234546529, 0.816846988191807, 0.8223398180162748, 0.82783937663572, 0.8331825891376899, 0.838398609251653, 0.8436143994237677, 0.8487572271057315, 0.8538511419786348, 0.8588424727350601, 0.8637029789009334, 0.8685524536814094, 0.8733227159728135, 0.8780327860393073, 0.882640595193658, 0.8871189636478279, 0.8915728663735781, 0.8959427836152215, 0.9002337191724441, 0.9044339855263469, 0.9085707942557137, 0.9125983791030357, 0.9165414599586109, 0.9203691976039932, 0.9241451340786981, 0.9279110744412752, 0.9315005392807041, 0.9350055417282707, 0.938380692928948, 0.9417194535367289, 0.9448992373952603, 0.9480668588851417, 0.9511400263970833, 0.9542307655616715, 0.9571013483449421, 0.9597545250818159, 0.9624650556166253, 0.965078907166394, 0.9676230713120977, 0.9700412215451103, 0.9723739878531872, 0.9746024986551212, 0.9767372519236809, 0.9787906025890272, 0.9807360593846793, 0.9826149006862408, 0.984370358421727, 0.9860338183911653, 0.9875659264727498, 0.9890495037053938, 0.9904914373740799, 0.9917786433487743, 0.9929742980450504, 0.9940479899079796, 0.99506373864098, 0.9959591182302981, 0.996790960409052, 0.9975279962630529, 0.9981085479480122, 0.9986652169597292, 0.9992226297194746, 0.9995741007935262, 0.9998360142297644, 0.999903688469825, 1.0, 0.9999923723632607, 0.9999007506365244, 0.999715646135137, 0.9994256603033583, 0.9990581981744155, 0.9986598602978516, 0.9981032750260497, 0.9974607772013245, 0.9967842810143221, 0.9959647532146914, 0.9949801178385521, 0.9940079173013335, 0.9929496463756714, 0.9918719179736548, 0.9906359470101084, 0.9892741513107026, 0.9878850509574342, 0.9864144753426909, 0.9848082310189741, 0.9831842089264465, 0.9815190171599455, 0.9797271313029898, 0.9778581069600786, 0.9758666785519173, 0.9738519103304029, 0.9718542231509533, 0.9696748090247196, 0.9674262001566545, 0.9650396185230709, 0.9626628382499314, 0.960258955839261, 0.9577347934985906, 0.9551440333446056, 0.9524715182080453, 0.9497520825450707, 0.9468913713302901, 0.9440527723008563, 0.9411470576803121, 0.9381830087125801, 0.9351471371851116, 0.9320991096350877, 0.9289346597222267, 0.9257139831476442, 0.9224593587702926, 0.9191264744280196, 0.9157433128157001, 0.9123069573437829, 0.9088204049038855, 0.9052668192374688, 0.9016849075407048, 0.8979534560391974, 0.8942888197380496, 0.8905724846993647, 0.8868153123434634, 0.8830003152442578, 0.8792161415330576, 0.8753021046897175, 0.8713500850537435, 0.8672757902317174, 0.8632613993982415, 0.8592781348128408, 0.8551766720909023, 0.8510426249942189, 0.8468432614921374, 0.8426513363765475, 0.8384635062261435, 0.8342055895168922, 0.8299208867434991, 0.8255464869645398, 0.8212193317638337, 0.8169145926112809, 0.8125281310126792, 0.8081202599321036, 0.8036299172316923, 0.7991903308633534, 0.7947983533143602, 0.7903083435630316, 0.7858037302958975, 0.7812659193924084, 0.7767373987204316, 0.772192499255525, 0.767639923379784, 0.763076618654298, 0.7584025531994346, 0.7538340874841243, 0.7492544710566986, 0.7446618837129816, 0.7400513923041468, 0.7354436034135589, 0.730829658187602, 0.7262449189081951, 0.7216191969660747, 0.7170364647787226, 0.7124072405088309, 0.7077830142329049, 0.7030579880696812, 0.6984594362828299, 0.6939384919737834, 0.6893344451413188, 0.6847391176294261, 0.6800912069515619, 0.6755236897692651, 0.670962138005341, 0.6664116564463086, 0.6618714088021327, 0.6574225086060413, 0.6528962217596211, 0.6483259970637336, 0.6438443929524896, 0.6393783773532621, 0.6349715465943612, 0.6305342409531107, 0.6260787091490521, 0.6216885569808096, 0.617318153901299, 0.6129683864716037, 0.6086401118944036, 0.6043199558123936, 0.6000389247503144, 0.5957809998567304, 0.5915488247663192, 0.5873394550964892, 0.5832108264620077, 0.5790466500357536, 0.5749127343311784, 0.5706850473051365, 0.5666281489012288, 0.5626149011277048, 0.5586050974169339, 0.5546230493794961, 0.5507602669213894, 0.5468250932699813, 0.542909454316666, 0.5390473669180524, 0.535220007869873, 0.5313583659093989, 0.5276099253103316, 0.523848664779657, 0.5201697818732601, 0.5165215322240767, 0.5130345667578781, 0.5094342196646251, 0.5058444275344113, 0.5023290953962234, 0.49885230474685627, 0.4953786093258311, 0.49198359104486067, 0.48856142166218103, 0.485248388229938, 0.481969244269667, 0.47882423865297424, 0.47560267693575103, 0.47240857795002544, 0.4692719131249143, 0.4661756814101061, 0.46308430724415134, 0.46007323944058903, 0.45711285883264124, 0.4541769700542165, 0.45128046871312055, 0.44844295131382506, 0.4456229364990245, 0.4427725318563774, 0.4400426114150046, 0.43734905040430483, 0.43467807610998577, 0.4320602517298917, 0.42947729894832287, 0.4269333407118194, 0.42442655489653514, 0.4219766992219551, 0.41954241079417276, 0.4171255908167551, 0.4147714477822136, 0.4124546624950302, 0.41013619644879407, 0.40789908617594695, 0.4057148309891479, 0.40354588855094387, 0.40141339327500863, 0.3993740891935257, 0.39730704851968035, 0.39524734714810816, 0.39326229801261486, 0.3913134879509307, 0.3894005754451942, 0.3875232066633459, 0.385611772738311, 0.3838131391608644, 0.38204503467455864, 0.3803164965523954, 0.3786087291666339, 0.376942893766709, 0.3752962123291211, 0.37368110752010564, 0.3721807214158328, 0.3706172741023148, 0.3690287197569398, 0.36754236756572484, 0.366085837348878, 0.3646480235967582, 0.36325111640632185, 0.361931760009334, 0.3605838484747103, 0.3592657589678846, 0.35799264339539677, 0.35672973060436686, 0.35547207528085234, 0.3542678975492442, 0.3530890836165278, 0.35188709945044366, 0.3507632956577122, 0.3497154454800816, 0.3486263264157675, 0.3475608010222096, 0.3464347171416299, 0.345424835874574, 0.3445081555721077, 0.34352235426243577, 0.34255766817524613, 0.34151572406865965, 0.3406034684778613, 0.3397651051500882, 0.33887238633261957, 0.3379967328811378, 0.33706482498353346, 0.3362309228212742, 0.33551493249929015, 0.33469036958782516, 0.33388317522054184, 0.3329752082108827, 0.3322147316462163, 0.3315599481975559, 0.33080331384902995, 0.3300603292134158, 0.32928222041331756, 0.3285701194449361, 0.3278079707202878, 0.3271199997674919, 0.3264365327785514, 0.32576118426601325, 0.32508639069693285, 0.32440206665513505, 0.32373824547689883, 0.32307790983826984, 0.3224262353689029, 0.3217716918342214, 0.32116648974670076, 0.3205121337659451, 0.3198628495275447, 0.3192267539055548, 0.3185842338897164, 0.31797703407812933, 0.3173364366282814, 0.31669950570466926, 0.3160706120418621, 0.31543753391725077, 0.31480928144084386, 0.3141774729287563, 0.3135455298687123, 0.31279551354475804, 0.3121758932618818, 0.3115793888071605, 0.3109383598513729, 0.3102908371746139, 0.30967046479413496, 0.3090053881391812, 0.3082714338129538, 0.307604073573252, 0.30692729097147425, 0.3062394062643444, 0.3055442394367043, 0.30492668864967065, 0.3042017323343091, 0.30347218988566077, 0.30271773995503454, 0.30197918157003856, 0.3011812555705623, 0.3004329833747937, 0.29967303877461976, 0.298942260542974, 0.2981537906684917, 0.2973896087369639, 0.29657758933977996, 0.2957572578687341, 0.2948374508514433, 0.29401015719801044, 0.2931464850560562, 0.2922920084491713, 0.29146259040577815, 0.2905717485647796, 0.2896680690977187, 0.28873726470217126, 0.28780945148382964, 0.2868695185100676, 0.2859137141433884, 0.2849441481657062, 0.2839821111750787, 0.28298227608552434, 0.28196981141929994, 0.28094451624051175, 0.2799062094985511, 0.27888136158240356, 0.2778131981215459, 0.2767614962136482, 0.27566552832913843, 0.27455861155238864, 0.2733213250718822, 0.27220622470463995, 0.27107762567485727, 0.26992487505887763, 0.26875487683024446, 0.26755570403005124, 0.26635423696796745, 0.26520720629600125, 0.26396406550422946, 0.26270922388581425, 0.2614744544841895, 0.2601916501829175, 0.25890203941938156, 0.25759773107142553, 0.25628264598120926, 0.25492102468177463, 0.2535881816072373, 0.25223310425503365, 0.2508748589054827, 0.24950314410258478, 0.24808982735313054, 0.24669558871365113, 0.24523029110108086, 0.24381524735201718, 0.2423837402624484, 0.24103787295305887, 0.23956326789352744, 0.23808035392791335, 0.23658900630261356, 0.2350891453277301, 0.2334866326780649, 0.2319815660481736, 0.23049288426131465, 0.22895722804943236, 0.22741104937597686, 0.22584415389253887, 0.2242796312754703, 0.22277277040293103, 0.2211805930206253, 0.21958334798680898, 0.21795607929783714, 0.21635159259025302, 0.21477954842655708, 0.21315712299648445, 0.21153075640406124, 0.20977788804145756, 0.20815901980664958, 0.2066429519770922, 0.2049891254349083, 0.20333289874508256, 0.20166183820010838, 0.20000241125402868, 0.1983257970879302, 0.19666241621156336, 0.1949957099508814, 0.19332072325134209, 0.19164915679124372, 0.18999284356985088, 0.188314451542031, 0.18663539580716113, 0.18488493069593967, 0.18321436136745617, 0.18153112710262234, 0.1798549878827968, 0.17817626754750981, 0.1765526191841235, 0.17486400808149247, 0.17317657205262496, 0.17149430801497464, 0.16981535136975853, 0.16804053700927887, 0.16638155951300837, 0.16478148560924394, 0.16311303521602954, 0.16144858664118467, 0.15981164387265007, 0.158153533722879, 0.15644512943895764, 0.1548074403673553, 0.153173486405289, 0.15161673640184065, 0.14998302515318385, 0.14825604392670322, 0.14665472920928088, 0.14505730310807416, 0.14358180764024409, 0.14197985327375542, 0.14038541159042833, 0.13880953297113394, 0.13724570698601482, 0.13558729437422765, 0.13406075689671973, 0.13253476951105855, 0.13102152931938008, 0.12951553498407464, 0.12804951851917096, 0.12655622958333967, 0.12510251609212958, 0.12362830744692553, 0.12216751626398423, 0.12075395148810639, 0.11931596894719344, 0.11784384940228601, 0.11644314640970216, 0.11505495576758322, 0.11364764169591102, 0.11228946931955254, 0.1109464895252434, 0.10961168729138246, 0.10828975270475406, 0.10702549381824383, 0.1057249120104718, 0.10442132313690344, 0.1031562276069186, 0.10190651844343945, 0.10066703063928471, 0.09944924618325951, 0.09826299553685301, 0.09707448697505246, 0.09590279313289184, 0.09468936061077733, 0.09355882155853536, 0.09245258922758763, 0.09134853247619681, 0.09025971416597527, 0.08918468698337254, 0.08812751802361346, 0.08706861103836452, 0.08604596179814084, 0.08503878549347882, 0.08404385726447917, 0.08306901073958788, 0.08220083923246291, 0.0812470319002897, 0.08031486875107133, 0.07932211782041419, 0.07844194919730132, 0.07756845816041048, 0.07672078102781747, 0.07588864061586323, 0.0751734960522954, 0.07436036407025995, 0.07354957104866837, 0.0727819788028919, 0.07203389386495257, 0.07132446860076254, 0.07061183247676348, 0.0698992430644098, 0.06922779441166736, 0.06857400025184747, 0.06785066847663772, 0.06724261671188582, 0.0666947365367131, 0.06610563547892245, 0.06553246893899473, 0.06504448998253326, 0.06449444924429013, 0.06396420776750128, 0.06345317071187588, 0.06296079838796335, 0.06238362275261668, 0.06194017176000961, 0.06149405587388261, 0.06107593098464065, 0.06066937936250722, 0.06028015349492914, 0.05989727753214819, 0.059623207555024586, 0.05925424682257818, 0.058903899387445995, 0.05856259665193237, 0.05824857842138963, 0.05787441245836607, 0.05760196829501335, 0.05734051899649112, 0.05710801559267423, 0.05686684768485926, 0.056629230174303165, 0.05641395041782744, 0.0562103989471769, 0.05605757646155727, 0.05587233719871336, 0.05566702818429288, 0.05551293680487535, 0.055369744210444154, 0.05527282225274743, 0.055146507116746284, 0.05501486517683309, 0.054915180272638656, 0.05475321407990276, 0.05468347443497767, 0.05461959328375223, 0.05467017580736188, 0.054605150140315334, 0.05453500218941115, 0.05449672269439792, 0.0544686080409946, 0.05440220643708711, 0.05439896897411764, 0.054364461586984096, 0.05437791698521031, 0.05439516527923084, 0.054448362198803314, 0.054469688269368516, 0.054532531202159756, 0.05456116353423005, 0.05459734807702415, 0.054613929167624864, 0.05466704252838681, 0.05472472391801015, 0.054786740662464695, 0.054852855112433936, 0.054986742654371805, 0.055052243003390094, 0.05513179680278372, 0.05520954023415138, 0.05529317258672692, 0.055346485478152685, 0.05544434773737765, 0.05557613965775436, 0.05567365132397224, 0.055774432114060295, 0.055858459387397134, 0.05596680949353354, 0.05597654195763011, 0.05609885098588828, 0.056215937404189696, 0.056339039189484484, 0.05644599629214371, 0.05657289634685627, 0.05667090655923808, 0.056767512395678454, 0.05684313752291999, 0.056939242775631886, 0.05704862287738184, 0.05713734959746188, 0.057224335528297046, 0.05731476443695756, 0.057397156663955694, 0.0574758733483149, 0.05755447779319295, 0.057630658003275485, 0.05769178813988677, 0.05776409829524191, 0.05783091829183899, 0.057895927177250825, 0.05795691847812098, 0.058012015457510516, 0.05806488350952209, 0.05814171353146238, 0.05818199036671097, 0.058219193649706465, 0.058279608923640654, 0.05830628362488722, 0.05830733346414878, 0.05833135025716757, 0.05835059793662711, 0.058300947265948394, 0.058318118361965744, 0.05832279467522102, 0.05832287527466536, 0.05831445882771704, 0.058343989113440416, 0.058313542879765555, 0.05834537734504399, 0.058295820906774806, 0.05824446983764012, 0.05807165224377655, 0.05802968893375955, 0.05800575562508718, 0.05793991088551286, 0.057866156941210056, 0.05785031569969708, 0.05775280858421191, 0.057562644811369405, 0.05746815267845983, 0.05736396304693299, 0.05732324444247371, 0.05719153518530627, 0.05701082476091482, 0.05687517234073762, 0.05673180348013085, 0.05665717476569811, 0.056489045402534147, 0.056335548895870426, 0.056158407644826894, 0.055978166192452584, 0.05573570507902037, 0.05555516176437132, 0.0553881730703508, 0.05518958595189271, 0.054984746519731016, 0.054739899230898156, 0.0545267758444427, 0.05425578718800617, 0.05403294904122696, 0.053799756841843405, 0.05366162992536317, 0.05339641905773475, 0.05313386990710502, 0.05286230444499205, 0.052587727196394145, 0.05223705883113904, 0.051964859705092147, 0.05165467816173336, 0.051371139459130494, 0.05107895916383575, 0.05088883731956289, 0.050567260267707956, 0.050145488129439045, 0.049834524949140306, 0.04951644058938776, 0.04919529410309106, 0.04886399917409628, 0.04857334272378179, 0.048225525343891906, 0.04787547078396677, 0.047501811737037096, 0.047149815845968786, 0.04684576128209255, 0.046480336942538926, 0.0461146054256242, 0.04565422503475128, 0.045299101752181506, 0.04495556440419398, 0.04458650859880888, 0.04421352310950566, 0.04391867826026641, 0.0435286741954634, 0.04304811242202652, 0.04267298037308478, 0.04229382441005489, 0.041921820044732244, 0.0415347949651429, 0.04113868687645884, 0.040748919326621544, 0.04035739523750312, 0.040008841571526975, 0.0396091893324669, 0.039241407724397215, 0.038841235422731595, 0.03844431476469611, 0.03797048147602105, 0.037589415195284956, 0.03720824243607374, 0.03682370623012292, 0.03643838376578579, 0.036065129553269785, 0.03567790987656025, 0.03527935903684577, 0.03489614437091014, 0.03451379664714003, 0.03415571467377157, 0.03377311389547829, 0.033374035492968135, 0.03300008263947296, 0.03262824021145255, 0.032244548246353394, 0.031879440208193645, 0.03158025388240175, 0.031211394283487074, 0.03084874352579533, 0.030429920892136978, 0.030086871235630364, 0.029832951061970068, 0.029483543886009905, 0.0291418802921401, 0.02874544257235932, 0.028426056812739728, 0.028078020077904744, 0.02776958107212039, 0.027463220322923525, 0.0271807573169994, 0.026877353463946364, 0.026646095612889043, 0.026343730724261494, 0.0260502429226757, 0.0257670517414677, 0.025490081256864177, 0.02511820278343535, 0.024870170532773798, 0.024624027758890627, 0.024371581257984554, 0.0241323216877749, 0.02398862475589622, 0.02374472990996439, 0.02351031640489988, 0.023281534996049097, 0.023065679399955314, 0.022877860532739516, 0.022676390394184197, 0.022487783606130178, 0.02230422382819688, 0.022129685072299905, 0.0219639495640036, 0.02180683505038836, 0.02166351723424456, 0.02152254698554679, 0.021390124816748755, 0.021255478239086904, 0.021141164139262536, 0.020919104035062835, 0.02083472902750994, 0.02075159702012222, 0.020681323041601102, 0.020602102953840636, 0.02058054352752485, 0.020503947123680453, 0.02043579250003792, 0.02042756345279574, 0.02036975967477226, 0.02030371961965506, 0.0202705330746716, 0.020246710070301425, 0.02019299390785701, 0.020192265224837812, 0.02015555789549097, 0.020173646165312347, 0.020196276219217008, 0.020319777937135818, 0.020340667338904012, 0.020374429109391416, 0.02041679500617259, 0.020469419747986987, 0.020430685395840954, 0.02051541615253068, 0.02059826908856482, 0.020691077066010057, 0.02078797574563608, 0.02096572242166465, 0.021062321087068063, 0.021223383944775614, 0.021331496577451488, 0.021451400108652905, 0.02147225299867022, 0.021627448809314297, 0.02179862845827738, 0.021959700668503283, 0.022125647196544668, 0.02229482973215806, 0.022471130124825038, 0.02262767056393054, 0.02281737430471774, 0.02301088918263533, 0.02330963681736678, 0.02349859242118683, 0.02365673202267516, 0.023870175586233083, 0.024089985733117207, 0.024326559024989394, 0.02455700201405104, 0.024813215667690607, 0.02505337045515326, 0.025300284333696754, 0.025555318091614616, 0.025814319047310415, 0.0259902694031296, 0.026271612621591403, 0.026553068713503936, 0.026861708525292714, 0.027141273098577015, 0.027425344308284215, 0.027710190478320268, 0.027997932117415414, 0.028258372065542787, 0.02855566149572318, 0.028843407670247265, 0.029144445088482535, 0.029446315280987338, 0.02981489709739175, 0.030110640868576642, 0.030391802682034296, 0.03069944927748371, 0.03101005538349931, 0.03127366552018243, 0.03159575780936634, 0.03199011159291367, 0.03230211491582497, 0.03261798973802664, 0.032869783117535835, 0.033200514873256266, 0.033624088663271164, 0.033940569411498915, 0.03426136100652869, 0.034585798276192146, 0.03491327971426586, 0.03514738592361567, 0.03549149848205509, 0.03583179403521559, 0.03620059915762262, 0.03653026664621931, 0.036903234862049224, 0.037225073113182294, 0.03754821648213267, 0.0378296329625077, 0.03815954864440546, 0.03845881414666964, 0.038787857279650055, 0.03911308969547304, 0.039459587586709206, 0.03977467357822101, 0.04007012924931446, 0.04038361798169711, 0.040694048004265855, 0.04097483006476586, 0.04128261732071753, 0.04161610165932965, 0.041911301069496656, 0.042204068021280794, 0.04256707705992798, 0.042845413457032244, 0.04309663008122384, 0.04338042504521292, 0.04366256866583202, 0.04389123064313531, 0.04417558864816408, 0.04442961650954008, 0.044706329122539086, 0.04497646319898632, 0.04535217978757988, 0.04559588626386151, 0.04585250393464177, 0.046094886884444436, 0.04633709324141152, 0.046459498823022624, 0.046714467206656035, 0.047035374306464844, 0.04726415057494875, 0.04748941637195771, 0.047631057399478316, 0.04785877403287344, 0.04814005334848491, 0.048343244690304904, 0.04854226187334254, 0.048809772133404594, 0.04899086789850755, 0.04915022390603045, 0.049332467840183136, 0.04951180969429555, 0.04969145187867851, 0.04986354165656163, 0.050001835463971224, 0.05017026537530955, 0.050332925595798945, 0.05042773835714638, 0.0505869076121805, 0.05072458241264961, 0.050867752971607755, 0.051002221348412764, 0.05120132421800458, 0.05131074745631695, 0.05134775247016207, 0.051459365484396974, 0.051563512443380304, 0.05167123698007483, 0.051760230054622394, 0.05185049237514141, 0.05192709993862509, 0.051998605774018276, 0.05208816826467112, 0.05214677336332768, 0.05222307919166834, 0.05227164525285661, 0.05231754845592324, 0.05231790378334993, 0.05236308402931241, 0.05248061515616847, 0.05250454675630067, 0.05252741556480214, 0.052522103272321596, 0.05254482208620792, 0.052519332559392645, 0.052539930889155255, 0.0525540604675663, 0.05263127587994554, 0.05262462116928178, 0.05256653071612023, 0.05256240270240519, 0.052553184871778895, 0.05253550810324768, 0.05251709671083737, 0.052456632277662535, 0.05243358601232692, 0.052404043273250205, 0.052363145052882414, 0.05232263943009709, 0.0523884631880679, 0.05232315099363164, 0.05225932666652582, 0.05215379472391367, 0.05209666257957717, 0.052003376347372156, 0.0519456487435158, 0.051883584314908845, 0.0518583028279173, 0.05178323379923151, 0.05173177165914974, 0.05165096335900882, 0.0516127443721197, 0.05152625851238743, 0.051441697272095084, 0.05132127655821907, 0.05124386183138743, 0.051127730302234324, 0.05105218445368236, 0.0509731719595256, 0.050892825572246045, 0.050807705877779615, 0.05079302327544777, 0.050694269119585106, 0.050597796382587615, 0.05050505113731347, 0.05041198860927979, 0.050347125202720694, 0.05025364840825093, 0.050162916499897583, 0.05015096564582687, 0.05005520605114943, 0.04989648733476151, 0.04982129820939645, 0.04974712184348664, 0.04975566264773978, 0.04967331154539567, 0.04950796180409669, 0.049447834794431225, 0.0493874993867756, 0.049337959393294176, 0.04927690339190322, 0.049229688426700946, 0.04917012176528694, 0.04911313626686244, 0.04920090517062797, 0.049131540766639885, 0.04900569983623939, 0.048965871829788524, 0.048931443012190906, 0.048896933325577985, 0.048873567219442526, 0.04898992594444106, 0.04895910425252494, 0.0489407301727287, 0.04885923423623531, 0.04887234253566928, 0.048942659627332415, 0.048960722727486514, 0.048987483385975826, 0.049091867619053375, 0.04912639626917782, 0.049208297155304365, 0.04926140196651542, 0.04932716768454613, 0.04940133399887027, 0.049490876580981814, 0.049585814079587384, 0.049697151657710735, 0.049818359675300454, 0.04993512583864919, 0.05007760951387282, 0.05027341279006724, 0.05042832485209548, 0.050595038672809116, 0.05077697467352852, 0.05096651491239608, 0.0513045587321946, 0.05150040693258161, 0.0517157842686321, 0.051935483867496635, 0.05218887730696525, 0.05241765294323748, 0.05270821717578141, 0.05301195746047256, 0.05335915781171201, 0.05368577936134929, 0.0541200199551397, 0.054465525725529075, 0.05483150114857943, 0.055261665624638336, 0.0556611010250651, 0.05610141570794037, 0.05654041829606849, 0.05700068189154592, 0.0574017542341841, 0.05791310258718549, 0.058555337615235244, 0.059083486413222655, 0.059634462787148866, 0.06014564356448459, 0.060748805782335616, 0.061489162075247336, 0.06211409293793866, 0.06276462627284576, 0.06344550316305403, 0.06414494332790699, 0.06480144020542487, 0.06555818316043768, 0.06633520645682625, 0.0672323828463165, 0.06803874172285927, 0.068866992665666, 0.06972812345319458, 0.07061559618956918, 0.07151687428132286, 0.0724583497786106, 0.07341647551768926, 0.07441031130733475, 0.07542957746834811, 0.07651365453849014, 0.07757982007139863, 0.0787207784399444, 0.07983841625351387, 0.08098741848250218, 0.08213914328888995, 0.08335384533166021, 0.08470970637476871, 0.08596908767943348, 0.08726450646859148, 0.08849412855296929, 0.08987265347911066, 0.09135104063523038, 0.09277880886121016, 0.09424047067563257, 0.09577148467351142, 0.09729635302940383, 0.0988464800545052, 0.10044434560055258, 0.10207725616154506, 0.10371508622819016, 0.10542212463790993, 0.10718058192688454, 0.10895313219259088, 0.11076120137865401, 0.1126565652973183, 0.11453003968677854, 0.11643395217589439, 0.1183870932453498, 0.12037893779791814, 0.1223953787683774, 0.12446675344178984, 0.12659596114063906, 0.12874177980558738, 0.13092762212829562, 0.13315720623712082, 0.13542317297002904, 0.13777254549664197, 0.140114915173114, 0.14250089246593417, 0.14491083994870133, 0.147386235127167, 0.14990930489403836, 0.1524689183349541, 0.1550715869919902, 0.15770861766317176, 0.16039908840896605, 0.16321261226887662, 0.1659795922025067, 0.1687948078875464, 0.17164370987063887, 0.17455623336224813, 0.17755089146336142, 0.18055215088653118, 0.18360201834245518, 0.1866665230625316, 0.1898172259420495, 0.19311709643375277, 0.19634736485108112, 0.19963002334761376, 0.20290765152848372, 0.20630056538747935, 0.20979621479109928, 0.2132776997224699, 0.21681026379431048, 0.2203421456191423, 0.22398262524602697, 0.2277274786926179, 0.23145620456182656, 0.23523629362872547, 0.23905692971797726, 0.24294064742640797, 0.24681440378294472, 0.2508066025294647, 0.25484591282848124, 0.2589151334231395, 0.26305252104693916, 0.2672481865936856, 0.27148002851693065, 0.2757611345185745, 0.280098954081202, 0.2844786906193992, 0.2889338644375533, 0.2934117902184806, 0.29794200501117324, 0.30256703639052973, 0.30719618977694746, 0.31181762819749936, 0.31656306060551753, 0.32135860831752294, 0.3262736552501747, 0.33116106717184124, 0.33604243907868026, 0.34104562632613555, 0.3461982009220705, 0.35128879205128377, 0.35643500221071445, 0.3615596844730623, 0.36682445397069313, 0.3721898527561918, 0.3775464001070672, 0.3829549651123583, 0.3883316419032862, 0.39385344375891695, 0.3995029514995314, 0.4051067749234907, 0.41076170744697427, 0.4163749165716615, 0.4221422394914869, 0.4279220717002221, 0.43378266132564774, 0.43968642550777726, 0.4457101022387061, 0.4516916402682188, 0.4577002172303534, 0.46378064088226345, 0.4699072174992655, 0.4760618630377809, 0.4822819782905252, 0.488592353106181, 0.49489457084275296, 0.5012429275135869, 0.5075710302966513, 0.5140178825774091, 0.5205992220825643, 0.5271148104246625, 0.5336757273836313, 0.5402028425777253, 0.5468613092872694, 0.5535986536681674, 0.5603277750916481, 0.5670966500542711, 0.5739045908260039, 0.5807509084412824, 0.5875372604381708, 0.5944706005008863, 0.6014347506650911, 0.6085167886073135, 0.6155316941263382, 0.6225911065372854, 0.6296752445755343, 0.6367937101219145, 0.6439153590136385, 0.6511034261797948, 0.6583230578672015, 0.6655697945964023, 0.67284502927183, 0.680034388924156, 0.6873787393970986, 0.6947802107771928, 0.7021596341487659, 0.7095610858844349