0.02730208143825938, 0.02687044517659134, 0.02637346458682755, 0.025802009661431983, 0.025399763848850482, 0.025022283738938136, 0.024739258756045254, 0.024391245077834262, 0.023947768209855686, 0.023649615291198942, 0.023358822381748967, 0.023162433881228576, 0.02287213809648538, 0.02254159293902312, 0.022275872986803374, 0.022015012931786853, 0.021773441524261788, 0.021519801579148942, 0.02115981895203258, 0.020930939774059517, 0.0207012285002245, 0.020492353645797674, 0.02026163974953563, 0.02012846874603323, 0.019893712082193326, 0.019669370577366316, 0.01940257808476488, 0.019205903633265218, 0.0189581853583203, 0.01878502361337876, 0.01861753962805004, 0.0184891347641702, 0.018332080036367045, 0.018109133751839316, 0.017983365241497348, 0.01786500651366727, 0.017796361636760304, 0.017691014136692412, 0.017630903509136434, 0.017547847125031737, 0.01748058204510887, 0.017470465861543064, 0.017430240253860835, 0.01734706749378754, 0.017352057085369736, 0.017372169317386173, 0.017407871577716876, 0.017459604115900185, 0.017527782860142213, 0.017612802073044276, 0.017715036848277913, 0.017820153070365337, 0.01795973661760355, 0.018172574779254755, 0.01834038504988467, 0.018529605887474286, 0.018787199024096604, 0.019013173636200028, 0.019154425232969386, 0.019441822350745677, 0.019746545226981233, 0.02006341281619372, 0.020405573114775408, 0.020778441082936652, 0.021157645157214213, 0.02155766959287379, 0.02193195536290339, 0.022380916272167022, 0.022884637668544476, 0.023368924306608828, 0.023876202795293466, 0.024353972299791585, 0.024915085059274426, 0.025550254731003735, 0.026147795127966632, 0.02677098122930503, 0.027396553251012357, 0.028074751980295767, 0.028739836034308457, 0.029473487430694806, 0.030230965487100712, 0.031033563165719376, 0.03183821211440571, 0.03277270703199416, 0.03361876804269068, 0.03449841702981911, 0.03533187384769767, 0.03628749524824116, 0.037194787136522856, 0.03821664890820263, 0.03926315799520863, 0.040441125660596766, 0.04152654520394201, 0.042668879832912586, 0.04381807796828705, 0.04500191539472235, 0.046043907350659434, 0.047318840652645654, 0.04882971816936094, 0.05012803914730433, 0.05146525030039789, 0.052729118368033824, 0.05415661225994127, 0.05554477697804742, 0.05704416672395302, 0.058571932682321644, 0.06013796721711527, 0.061724495128375585, 0.06338101404139306, 0.06502700688174787, 0.06670828836202025, 0.06843100333370467, 0.07018290075361697, 0.07188300161634018, 0.07371891860385824, 0.0755865502405677, 0.07759840087612926, 0.07951777184702127, 0.08133925461859805, 0.08335620017125082, 0.08540499642733186, 0.08763341796256394, 0.08972978327031432, 0.09172449593280459, 0.09392310276396718, 0.09615476897426634, 0.0984113298281894, 0.10071208890410745, 0.10307648000480864, 0.10544248632342122, 0.1078452462014397, 0.1102701486987869, 0.11274848171688653, 0.1153539761432206, 0.11789303066119342, 0.12047342722184655, 0.12296516242945174, 0.12564251396741766, 0.1283754879099485, 0.13111457421329026, 0.13388795986563212, 0.13677510020378836, 0.1396073518580733, 0.1423668938988873, 0.14529050537668567, 0.14824551571453298, 0.1513350795760704, 0.1543407279194848, 0.15735191331300524, 0.16043662873986766, 0.1635559509761878, 0.1666507074627493, 0.16984546393220853, 0.17305268598520337, 0.17630992889871686, 0.17959634550662168, 0.1829090840847663, 0.18625440944268729, 0.18967287553198828, 0.19307067162684147, 0.19649978072463234, 0.19994496321060357, 0.20343691017282758, 0.20694593752860097, 0.21049659688371278, 0.21407452654940376, 0.21765583246975306, 0.22129008655942334, 0.22492553823036288, 0.22861189473581012, 0.23232102843437646, 0.23612327927918159, 0.23986843686453493, 0.24357494736376745, 0.24737935145898834, 0.25120429670826794, 0.2550464784976331, 0.2589117307462186, 0.2627637962692724, 0.2666709317273928, 0.2705943957904251, 0.274575032135839, 0.27852500070145203, 0.28254248231209844, 0.2865204454301777, 0.2905171472595427, 0.29456074653823056, 0.29858757488293436, 0.3025900970479924, 0.3066544433605011, 0.31073067592560805, 0.3147385502239866, 0.318845874660692, 0.32299025340700216, 0.3271026973291948, 0.331221096942198, 0.3354770193968634, 0.33958858755105326, 0.34368500119978396, 0.34782068197011756, 0.35196264840104774, 0.3559831479308785, 0.36014952615611767, 0.3642993220560218, 0.3684573058536106, 0.37260926921259857, 0.3768842130210236, 0.38100683046089, 0.38503553775807187, 0.3891687297133897, 0.3933789355788408, 0.397484276907561, 0.40158481423068926, 0.4055909607795846, 0.40968879029473215, 0.41386675305406717, 0.41792431558173637, 0.4219720430135857, 0.4258586401492509, 0.4299013981139453, 0.43407162450518355, 0.43805056067736514, 0.4420152297501813, 0.4458260212518824, 0.44977516955687674, 0.4538390096694872, 0.4577173828157627, 0.4615767590743411, 0.4653891484928072, 0.46920930855687754, 0.4729957300514173, 0.4767660052542256, 0.48050857897362964, 0.4841401351468739, 0.48783460211528684, 0.4914584009855737, 0.4950861635208727, 0.49867576671313163, 0.5022299418140448, 0.5057421384044493, 0.5091978138059102, 0.5126339727701866, 0.5160292154251779, 0.5193536915311173, 0.5226693526759737, 0.5260877808529231, 0.5292961448878521, 0.5324677093161669, 0.5354626395168687, 0.5385729773034625, 0.5416250333680453, 0.5446371873942709, 0.547598582668643, 0.5506469083967805, 0.5534880089047833, 0.5562758616606025, 0.5590275307453474, 0.5617310112665862, 0.5642702872243566, 0.5668877110806649, 0.5695669728828999, 0.572051608336264, 0.5744837607375067, 0.5767915659495401, 0.5791237284216536, 0.5813251439319242, 0.5835452297875107, 0.5857000367170321, 0.5878601004468889, 0.5898753989517072, 0.5918821017561557, 0.5937669948312783, 0.5955919091736142, 0.597241125843008, 0.5989572930745144, 0.600624487521846, 0.6021989863277432, 0.6037050779982179, 0.6051777777981404, 0.6065418396879749, 0.6078122380624723, 0.6090446371318278, 0.610207218905236, 0.6112144643220452, 0.6122472764944089, 0.6131898909561577, 0.6140739402451313, 0.6148823616785636, 0.6156419631771906, 0.6162967964857858, 0.6170135299164095, 0.6175046916246506, 0.6179300664087323, 0.6182591080061995, 0.6185532650983508, 0.6186387607362327, 0.6188086971950922, 0.6188992480440474, 0.61904625371883, 0.6189628802133091, 0.6187007804887996, 0.61849053532545, 0.6182030465571814, 0.6178416807765691, 0.6174005845905534, 0.616942370192758, 0.6163423906244724, 0.6156704526957826, 0.614847043971584, 0.6140407516831985, 0.6131459275470025, 0.6121881788708563, 0.6111541856494834, 0.6101151173927971, 0.6089216228503644, 0.6075812835680663, 0.6062565538912398, 0.604857132399651, 0.603413114090766, 0.6018626960799826, 0.600261855571245, 0.5985672577442563, 0.5968036471345491, 0.5949595414997101, 0.5930602446921452, 0.5910745733509033, 0.589040495880145, 0.5869376635268416, 0.5847167878604739, 0.582484763873602, 0.5800950417123206, 0.5777361627778558, 0.5753049261447847, 0.5729440987683256, 0.5703553576349137, 0.567612967985388, 0.5649171567476994, 0.5621570634701253, 0.5593308997490277, 0.5564460246219676, 0.5536234563234128, 0.5506018327908885, 0.5475281492006315, 0.5442760879680908, 0.5411144769375467, 0.5379176448465118, 0.5346369528610231, 0.531301507274512, 0.527979974839074, 0.5245297153741367, 0.5210229064174989, 0.5174788175924665, 0.5138876151999818, 0.5102705924425761, 0.5065847826660468, 0.5028024357186084, 0.499036718619449, 0.4952258368046458, 0.4914415471670539, 0.4875351175262592, 0.4834912673615751, 0.47952310642458007, 0.47551321926307194, 0.47139855756965604, 0.4673181434850185, 0.4632264313167425, 0.45906293949995775, 0.4548643252701006, 0.4507144523460785, 0.446439902973698, 0.4420660104639262, 0.43774978536385645, 0.4334052023513416, 0.4291218982037753, 0.4247138692053532, 0.4202103842151347, 0.4157745908864303, 0.41131689375065794, 0.4068974874776467, 0.4023928051408377, 0.3979295580928578, 0.39338991699269515, 0.38884083916598516, 0.3842182016612565, 0.3796600840907243, 0.3750819168753845, 0.37050373119797325, 0.3659163880611811, 0.36128891988633394, 0.3566914046986789, 0.3520311214538024, 0.3474283737472836, 0.34281867735378596, 0.33831858021206623, 0.33368624667800345, 0.3290413376101881, 0.3244221154855073, 0.31980854620269455, 0.31507820960861943, 0.31049455302880413, 0.30591265467379636, 0.30133454153303824, 0.2967621255682305, 0.29229712166574734, 0.28772879288833525, 0.2831945408727567, 0.2786576158949307, 0.27413963553713705, 0.2695883572638856, 0.2651169412885234, 0.26066355988204154, 0.2562293874190728, 0.25173916954439457, 0.2473564849453906, 0.2429920778322356, 0.2387357829597114, 0.23440172633452708, 0.2301103357403536, 0.22583106380711226, 0.22158199044940508, 0.21729612608460985, 0.21311780108290096, 0.20899123246187282, 0.20486762142350082, 0.20077589931151568, 0.19668757125009326, 0.1926659852673079, 0.18868898366820153, 0.18473262124653672, 0.1808117925744509, 0.1770213789424368, 0.17316224437204566, 0.16926996754573848, 0.16550700256428466, 0.16178305848101643, 0.15809592266522188, 0.15445254081804982, 0.1508265994488225, 0.14726875156490665, 0.1437518330319756, 0.1402472538332153, 0.13681824102958043, 0.13344543065655137, 0.13009846244399684, 0.12679551922264204, 0.12364888447203953, 0.12042168893110489, 0.1171377824543404, 0.11402794381703453, 0.11096325639010961, 0.10797663350554104, 0.10499987684348595, 0.10205112389242184, 0.09917428761074452, 0.0963452028539658, 0.09350834803129313, 0.09078271687415626, 0.0882053701602496, 0.08555826422229626, 0.08296358595951635, 0.08034753046673859, 0.07786599334572603, 0.07543768489212657, 0.07305042301151105, 0.07071141349320997, 0.06842962522968674, 0.06618642027661656, 0.06395996413206081, 0.06181894175702215, 0.05972505044852526, 0.05770782676787025, 0.05570487743897852, 0.05389203361847447, 0.051969116186380074, 0.05010264986927894, 0.048120780195999295, 0.046384617542107584, 0.044861856132742836, 0.04319035936021105, 0.041571862910836574, 0.039908140245332624, 0.03840423155067223, 0.036997284150005576, 0.035574608115557696, 0.03419850453873394, 0.032874148820653495, 0.0315883670052623, 0.030276928694826028, 0.02908910898278319, 0.027940839844213087, 0.02693194046842427, 0.025849815008403245, 0.02467723777261627, 0.023700580287779334, 0.0227589891122413, 0.021887849034909732, 0.021012204943231694, 0.02025890929889191, 0.019446329635887494, 0.01867477244919597, 0.017948927464507318, 0.017255161930333256, 0.016537627529182503, 0.015926444765232743, 0.015347584110517511, 0.014853413822458491, 0.014330907458651024, 0.013865539589729692, 0.013406289973565603, 0.01297995433854151, 0.012520719183645033, 0.012164929274894534, 0.011870316975844857, 0.011561374899466306, 0.011279243525530636, 0.011117081967816904, 0.010874075014296833, 0.01062823940279308, 0.01044670106360851, 0.010289727487394595, 0.01024725174651458, 0.010124459947794567, 0.010019191100472126, 0.009948429484391754, 0.009900114956856354, 0.009916873355492448, 0.009903619656528289, 0.009828926094833532, 0.009866196079879505, 0.009916688953903009, 0.010132522907737362, 0.010188102628994465, 0.010131223721731376, 0.010241175165797907, 0.010359849494115243, 0.010507282660308244, 0.010639196117475368, 0.010867523263387703, 0.011004093944519908, 0.011152454835484802, 0.0114316878513677, 0.011584311099693843, 0.011695761773771216, 0.011882671565931919, 0.012077122389245878, 0.012295474709269123, 0.012499070051260006, 0.012836975599584763, 0.013033125608096148, 0.013239376379066707, 0.013444917341239872, 0.013666703275535083, 0.01379279505127446, 0.014034270746722083, 0.014271753222933286, 0.014584279659680618, 0.014802852844182332, 0.015123864676104676, 0.015327713634192584, 0.015535204545536694, 0.015733018946078436, 0.0159447600439971, 0.01624932558810127, 0.01644576710644676, 0.016644400612049835, 0.01675260098196836, 0.016962725788222333, 0.017124737716730863, 0.01732582257820733, 0.01751708384606386, 0.01776035225246637, 0.01792452725448873, 0.018241371715523844, 0.018373080144188148, 0.0185069678009892, 0.018547450732037722, 0.018693132918798275, 0.018861040759898112, 0.01898845233004517, 0.019109937503463202, 0.019219256073212974, 0.019328618037725523, 0.019386778368419223, 0.0194873552084855, 0.01957816595756817, 0.019827044306995296, 0.019878166024609987, 0.01980946090301118, 0.019876105850707888, 0.019934785388264535, 0.019985774636275752, 0.02002936515480055, 0.020230418352962458, 0.02023934187753459, 0.020251067435444463, 0.020129453121310315, 0.020161133477816992, 0.020320797805921057, 0.020321614699384278, 0.020324026357168932, 0.02019530975672356, 0.020216287810781757, 0.02042135295012676, 0.02040529067162292, 0.02039487494746854, 0.02035124704576708, 0.02035514414370864, 0.02041100365196667, 0.020412702073986367, 0.020419498670904215, 0.020395993067283468, 0.020417147555936203, 0.020400212851946237, 0.020433136104985955, 0.020467788994872685, 0.020428668720296025, 0.020479133080467157, 0.020620824116776452, 0.020661550005208584, 0.020780990492015296, 0.020829815148616725, 0.02089208349229237, 0.02100317824096449, 0.021088333311530642, 0.021192487386516384, 0.02130948738261724, 0.02144300886101926, 0.021590385360984544, 0.021758225835425138, 0.021905295194770392, 0.02211335827313995, 0.022337836532745955, 0.02249740901711597, 0.022767998581336532, 0.023135558080383853, 0.023426771006920147, 0.023740498348447343, 0.024045248428966777, 0.024410603500274783, 0.02482271162341975, 0.025232722407005727, 0.025669551655023236, 0.026128230481028997, 0.026622169093717774, 0.027048365307688046, 0.027613985639797466, 0.02820532041605242, 0.028835860452298426, 0.02948224677025963, 0.030186367242889204, 0.030893348606372634, 0.031635762920432124, 0.03251160588953507, 0.03331567705189898, 0.03411660744031882, 0.03501454495352387, 0.035954139171236084, 0.03696253048089145, 0.037984190792264845, 0.039095191500198676, 0.04020232316052188, 0.04135826171782601, 0.0424750811291043, 0.04374053332353082, 0.04506836097713776, 0.04642219498048604, 0.047823965555796974, 0.04939505038565114, 0.05088014376762739, 0.05242551877441053, 0.05402480342600763, 0.05568145104646532, 0.057313229338123495, 0.059095222346480715, 0.06085099203426242, 0.06275016827821281, 0.06469982015706367, 0.06676903247256293, 0.06881548187449464, 0.07090862823929994, 0.07307411932039697, 0.07529868958063073, 0.0775712933753259, 0.07991760017362234, 0.08242426204360415, 0.08487953816283669, 0.08740224080076116, 0.08997456102559817, 0.092633872380774, 0.09525053695451621, 0.09805586909698234, 0.10092143722014903, 0.10397168573627284, 0.10694510948618434, 0.109976740240637, 0.11309133390096757, 0.11627479614626936, 0.11945360130268284, 0.12278391522293972, 0.12621997091530363, 0.12967485638744, 0.13319771871799893, 0.13680335310402858, 0.14046059954400106, 0.14417220111046902, 0.1479693204825669, 0.1518344947696482, 0.15571778880885564, 0.15972541770935927, 0.1638423479332819, 0.1679751884162816, 0.1721763203645892, 0.176313341703407, 0.18066723641329238, 0.18510491699116163, 0.18957720697697755, 0.19411255742205202, 0.1987524227626088, 0.2034095284276202, 0.20817082405060552, 0.2129547541408726, 0.21780611999134528, 0.22273888971724573, 0.227721092582015, 0.23268415326505754, 0.23780841750113346, 0.24299225834722998, 0.24837067883191824, 0.25365599841451697, 0.2588696258367778, 0.2643037505249332, 0.26979362930648976, 0.2752978691907998, 0.28090360637470424, 0.2867028145750649, 0.29239539812196114, 0.29814787267634374, 0.3038793833597305, 0.3097571690492015, 0.3156742233214188, 0.32165478202698555, 0.3276841371749294, 0.33379385066168277, 0.3399143716086387, 0.34598314541280056, 0.3522114397206346, 0.3584799122659326, 0.36479697103335035, 0.37114334798492155, 0.3775993628989061, 0.3840142566424387, 0.39047055157668803, 0.3969755476187349, 0.4035089872098637, 0.41012680067531804, 0.4167274328742064, 0.42336491185873026, 0.429984403876238, 0.436696492392657, 0.44337507803627435, 0.4501500009294743, 0.4569468922278244, 0.46381185034647354, 0.4706439041992925, 0.47741236913687285, 0.48429693898938647, 0.4911953153621329, 0.49814190540153375, 0.5050607750508289, 0.5119132429784962, 0.5188666116400412, 0.5258256133728332, 0.532892252243479, 0.5398468786692313, 0.5468130002556685, 0.5537823993259233, 0.5607566036299526, 0.567616123860336, 0.574608969837271, 0.5816735744575737, 0.5886402828700131, 0.5956018715649378, 0.6026505981161708, 0.6095847371995282, 0.6163344652084137, 0.6232784095705222, 0.63020216615759, 0.6372341206395933, 0.644098333794367, 0.6507849903075023, 0.6576355413370156, 0.664456709454634, 0.6713857978842754, 0.6781282120112953, 0.6847669181420488, 0.6914684105344895, 0.6981367114319108, 0.704738035533545, 0.7113396262595513, 0.7179311311752146, 0.724448793000359, 0.7309260405293141, 0.7372584293801792, 0.7436630517878973, 0.7501430321414091, 0.7564289041041271, 0.762669205996725, 0.7687414730999681, 0.7748999532901757, 0.7810208507532915, 0.7870595447641023, 0.793039400279887, 0.7989180859561665, 0.8047818493193024, 0.8105660862701705, 0.8163010808945091, 0.8219684388136455, 0.8275907135923072, 0.8331169044884564, 0.838626640722432, 0.8440061572063526, 0.8493225768094832, 0.854561669812173, 0.8597287052115369, 0.8646574510207563, 0.8696961986115938, 0.8748221524584274, 0.8796664568665252, 0.8844338221072605, 0.8890166609043643, 0.8936382026781339, 0.898233425041145, 0.9026704049902526, 0.9070213792704453, 0.9112645214603027, 0.9154423565959608, 0.9195587731828704, 0.9235503221381276, 0.9274508094606172, 0.9311121548829477, 0.9348456781139699, 0.9385206577807466, 0.9420435445712725, 0.9454665416453106, 0.9487011345781929, 0.9519343873100795, 0.9551879932854084, 0.958193546596169, 0.9611006479475385, 0.9638290371622833, 0.9665465545351598, 0.9692408384140445, 0.9717368047906892, 0.9741315963176101, 0.9763861754564557, 0.9785810020248167, 0.9806731351352749, 0.9826559905601929, 0.9845327300312785, 0.9863236104550517, 0.9879846091571339, 0.98947515088078, 0.9909323142669115, 0.9922793156439129, 0.9935516515814792, 0.9946745606365238, 0.9956576292080457, 0.9965695126666766, 0.997371943496625, 0.997988772396796, 0.9985827130004009, 0.9991371384975278, 0.9994967193455967, 0.9997491462792708, 0.9999709927327822, 1.0, 0.9998239003921267, 0.9996610376129798, 0.9993895440196883, 0.9989630852742225, 0.9984823093059431, 0.997959870056721, 0.9972530975514915, 0.9964429155111145, 0.9954768523823591, 0.9944678392104469, 0.9933068078070615, 0.992094691349753, 0.990776832347997, 0.9893897996749814, 0.9878598645613862, 0.9862123021271857, 0.9844854884955161, 0.9826594633254754, 0.9808498647659503, 0.9788140325250783, 0.9766943918013803, 0.9744785514563077, 0.9721736849987166, 0.9696566625448994, 0.9671903130095955, 0.9646761979996907, 0.9620159184903218, 0.9592666119246104, 0.9564852383167513, 0.9535542261813476, 0.9504702455846505, 0.9473840015469508, 0.9442129138674762, 0.9409701914683427, 0.9376322905258948, 0.9342762658457069, 0.9307722515714768, 0.9271945856670919, 0.9234383649153081, 0.9197294904116744, 0.9160173516556555, 0.912147674906994, 0.9082092237371734, 0.9042179491019766, 0.9001439039733885, 0.8958588686926009, 0.8916765091985224, 0.88742436545186, 0.883149020673449, 0.8787591437473916, 0.8743708632957535, 0.8698548156801542, 0.8652857932718107, 0.8605710572983739, 0.8559118853431854, 0.8512219459903082, 0.8464533944166536, 0.8416361059062895, 0.8367954152557671, 0.8318831315470177, 0.8268494853956393, 0.8218647426170835, 0.8168366396977053, 0.8117996988479469, 0.8066873090880862, 0.8016778559216883, 0.7964793932898894, 0.7912569516515923, 0.7859846643999796, 0.780719467628508, 0.7752986643935859, 0.7700045545501705, 0.7646819467925425, 0.7593977846623493, 0.7540168156776634, 0.7486763952819391, 0.7432531031883715, 0.7378179881890619, 0.7322516515360403, 0.7268114169222221, 0.7214588469678818, 0.7159774464634219, 0.710490958336848, 0.7048889410025168, 0.6994100907877026, 0.6939265831512113, 0.6884343756741664, 0.6829390587348034, 0.6775454873091236, 0.6720368997801213, 0.6664251231295426, 0.6609485764456434, 0.6554762341980739, 0.6500923305694524, 0.644623787212457, 0.6390433539551599, 0.6336207929240696, 0.628207780095396, 0.6229004752611961, 0.6175009428476239, 0.6121164147318189, 0.6067604481848857, 0.6014271597080127, 0.5961088513245204, 0.5908253818561318, 0.5855204189664379, 0.5802951100596758, 0.5750950113126518, 0.5700274230732377, 0.5648688515469362, 0.5596723230514552, 0.5545945340344114, 0.5495491489259107, 0.544590233451967, 0.5396064541980327, 0.5345997576198936, 0.5297020099872869, 0.5248409075579292, 0.5199236011195469, 0.5151511740630377, 0.5104311447606131, 0.5057278173472294, 0.5010636986687491, 0.49651070096681554, 0.49192015086214574, 0.4873854601476803, 0.4828884304308073, 0.47844002547453107, 0.47390847288894883, 0.46957541056943664, 0.46533487388985717, 0.4610821481242656, 0.4568776765125925, 0.4527134834972073, 0.44860908610797956, 0.44453713671756795, 0.4405358454069337, 0.43658501740724576, 0.4327500353922263, 0.42889409577781007, 0.4250942413596777, 0.4213504840822028, 0.41766284168601414, 0.4139402427410598, 0.41037641206714043, 0.40689891016277185, 0.4034335058243724, 0.39999610673373037, 0.3966432323185943, 0.3933438449292075, 0.39018356551213623, 0.38698152615382503, 0.3838564053583944, 0.3807702445233639, 0.3777434564134144, 0.37470790416978356, 0.37180679014459767, 0.36906255928887344, 0.36625660885487676, 0.3635106116026896, 0.3607649814763633, 0.358143934923401, 0.35561547634341223, 0.3530981986766211, 0.3506370816295795, 0.348202221482683, 0.3458556036852577, 0.34348853353792436, 0.341256986683047, 0.33907383275236536, 0.33691293667827055, 0.334830750556599, 0.3328578356556581, 0.3308632326772578, 0.328920071623511, 0.32693682704432586, 0.3251067438640533, 0.3233304335275068, 0.32158937807233356, 0.3198941166577961, 0.3182534049337605, 0.3166483521668734, 0.31521257564089283, 0.3136832748178482, 0.3122059760313414, 0.3107615862598381, 0.3093862116374527, 0.3079548410912171, 0.3066850598315633, 0.30545417236731065, 0.30430898076153673, 0.3031492229695495, 0.3020301444889191, 0.3009509536098761, 0.29991085027044473, 0.29884731853596436, 0.2978907605246893, 0.2969879491839795, 0.29609481105960034, 0.2952352682814195, 0.2944204454363811, 0.2936246840878267, 0.29282298736738965, 0.2920957657558128, 0.291397011559668, 0.290782016414257, 0.29013147105689796, 0.2894343663348103, 0.2888520420139297, 0.2882930502490586, 0.28776867779584214, 0.2872534050046092, 0.2868105074165675, 0.2863330419489418, 0.2858793336635517, 0.2853571141890995, 0.28495893752189794, 0.28462591209491345, 0.2842514466462636, 0.28389417902673825, 0.28352088790215035, 0.283199403958792, 0.28285533602845225, 0.282563018342188, 0.28228007167816177, 0.2819913782032074, 0.281727694837213, 0.2815093087847767, 0.28125452330090744, 0.28100799061886056, 0.2807923417454126, 0.2805567085649822, 0.2803133162037401, 0.28009233662889166, 0.27987535040669437, 0.27976724067972925, 0.2795421706327765, 0.2791774324382011, 0.27898372923473386, 0.2787857117982826, 0.27857718754715877, 0.2783702891789881, 0.278301645276703, 0.27806468485619135, 0.27782924581292845, 0.2775584447041236, 0.27732575815881616, 0.2770822124429276, 0.27683928846792216, 0.2765890754847911, 0.2762719413697178, 0.27601203407192626, 0.275715564329195, 0.2754322445774114, 0.2751339746457108, 0.2749675444001605, 0.274620355152686, 0.2741836643133246, 0.27383100597179155, 0.27346377935761357, 0.27305206765897355, 0.2726578418585583, 0.27219884127865845, 0.27177479871538357, 0.27132986007172627, 0.2709317224089262, 0.27043672855849693, 0.269992396430155, 0.2694544369287919, 0.2689022310116157, 0.2681907391027527, 0.2676251783691667, 0.2671019937381381, 0.26647784033364164, 0.2658329429125962, 0.26511998421398897, 0.26443865244374815, 0.26378890723705944, 0.26305214782527403, 0.2622944861349022, 0.26146851955014777, 0.2606738695373771, 0.2599692154835288, 0.2591109532713365, 0.2582346736265279, 0.2573630187426521, 0.25644523931211044, 0.2553615451982001, 0.2544235927320896, 0.253456972791441, 0.25245642077689906, 0.2514349861609107, 0.250386218617242, 0.2493106181178182, 0.24820863778332872, 0.24705718196136367, 0.24590661486321067, 0.24477649848197094, 0.24356736599336795, 0.2423352795324382, 0.24100682375857732, 0.23973826992489664, 0.2385250954124403, 0.2371930206994806, 0.2358399624318496, 0.23445113486003033, 0.23305772461130406, 0.2316805374301487, 0.23023847579786783, 0.22877686431615116, 0.22723679518782197, 0.22574315514820997, 0.22425286118674137, 0.22271016652859782, 0.22114682093663915, 0.21953662970784169, 0.21793609774457354, 0.2163494977571473, 0.21470236212523203, 0.21303689319867036, 0.21135330238300126, 0.20965182955397413, 0.20791804892585772, 0.20618349441185374, 0.20443110639249085, 0.20268778608331467, 0.20089775818221675, 0.1990663176772045, 0.19724996131469608, 0.19541770779945516, 0.19364943129319245, 0.19177695994609298, 0.18974479292557875, 0.1878715045985562, 0.18597985729639574, 0.18421509669714412, 0.18227222543558022, 0.1802109553960963, 0.17826860672156886, 0.17631309372390036, 0.1744628889469325, 0.17246894428320675, 0.17033006166213527, 0.1683460397558004, 0.16635004010159135, 0.1644137542107153, 0.16238831606388762, 0.16027881791276422, 0.15825437637764872, 0.15622159421138557, 0.15426970455092637, 0.15221226769504123, 0.150222072220853, 0.14815559898390504, 0.1459989766624134, 0.14395188688640506, 0.14190296373484804, 0.13978823865188536, 0.1377458433661791, 0.13577932209751256, 0.13372112835886868, 0.1316661722720364, 0.12964128193127736, 0.12759062049515588, 0.12541952271752313, 0.12339688820130926, 0.12137354849998894, 0.1193919438316844, 0.11736580055877924, 0.11527729949001306, 0.1132708612692637, 0.11126723646151301, 0.10934401259114578, 0.10733982238823714, 0.1053812828759486, 0.10339372878694324, 0.10141918195372979, 0.09938128728484819, 0.09744259012816088, 0.09550992502984695, 0.09359030703462222, 0.09168097969059699, 0.08978264099566707, 0.08789594561082567, 0.08604207782465163, 0.08417787703485374, 0.08232821308131169, 0.08055220509964968, 0.07872522617217456, 0.07682895594754216, 0.07505070465815473, 0.07328613253550859, 0.07153002463136951, 0.06979549247637241, 0.06818194223251449, 0.06646500736745677, 0.06477032079412211, 0.06298292881813093, 0.06134623766986251, 0.05984498062289581, 0.05822372420221683, 0.05662562838531214, 0.05494750672987167, 0.053407780333849075, 0.05191399371153764, 0.05040432103663879, 0.048914112059264214, 0.04755240085762315, 0.04608828450323047, 0.044533067142839826, 0.043136066095469765, 0.041757753400938374, 0.040389807034921184, 0.03905141944427575, 0.03782366229315818, 0.036513267474885064, 0.035228345622087556, 0.03387154034323273, 0.03264871493523086, 0.031609460033118875, 0.03040438861729751, 0.02922856126002694, 0.028089879151156325, 0.02696879428043846, 0.025804505178057248, 0.02474628997433994, 0.023710152806779673, 0.022707893616260248, 0.021714562207541373, 0.020720590193659964, 0.019775905186262894, 0.018852652779480356, 0.017980354428977722, 0.017096639755769916, 0.016333320131272245, 0.015484031811450456, 0.014663292167221476, 0.013793773957705655, 0.01303711215655786, 0.012313978059517087, 0.011599337204514565, 0.010907043297445207, 0.010231072470364193, 0.00958377898070855, 0.00904622688523835, 0.008430870060346303, 0.007841857774640325, 0.0072431148674001805, 0.0067088899368420215, 0.0063525615987854835, 0.005842646875967217, 0.0053630238165110885, 0.00481519702872878, 0.0044040105946700795, 0.003981266113909998, 0.0036154090190568546, 0.0032679517188244633, 0.003056449469344977, 0.002730964379022552, 0.0025392021382569852, 0.0022489955246281757, 0.001988045379575719, 0.001669482863058828, 0.0014730501657872627, 0.0013613275730843507, 0.0011963919936058606, 0.001054285305649102, 0.0008959252575221909, 0.0008017617989767955, 0.0008640393953003283, 0.000788777293585559, 0.0007390264967989388, 0.0006311575088600419, 0.0006389360041470941, 0.0006845855570943051, 0.0007241076239526304, 0.0007815985244809055, 0.0008713833449568102, 0.000961894671743499, 0.0010878491606930495, 0.0012113802473397927, 0.001353002754812041, 0.0015005219229683574, 0.0016785388265199372, 0.00188749529453634, 0.0020959290599901477, 0.0023210146718672755, 0.002715251470188233, 0.002953447132006879, 0.003180789426930664, 0.00347080819039267, 0.0037805244958388005, 0.004135542522514686, 0.004478887482483811, 0.0047794795496376346, 0.005167760063078189, 0.005570078605877555, 0.006089189045076571, 0.0065063198742924796, 0.007004740970857912, 0.007452360670635606, 0.007921391868315341, 0.00841949551054718, 0.00892692444653551, 0.009517885236200029, 0.010054099259276623, 0.010611321438634354, 0.0110180138812149, 0.011635639981945393, 0.012267725376113984, 0.012902462869979786, 0.013547434322062138, 0.01434127907755125, 0.014990806704045475, 0.015624523998848257, 0.01631671290646306, 0.017025078245346256, 0.0177082614509708, 0.018453569049609556, 0.019365023436707145, 0.020117943915298114, 0.02089325924077879, 0.021587121650514518, 0.022417372396498006, 0.02334981995996293, 0.024197231724932135, 0.025064080678542853, 0.02595870242265111, 0.026861962067548418, 0.02781042234564968, 0.028747540899668533, 0.02970436009330653, 0.030639363401674915, 0.03163973722274412, 0.03265074034910711, 0.03368505344619703, 0.03473593051695869, 0.03574193202109933, 0.036834553021276105, 0.03803807435878746, 0.039147083190301746, 0.04027698209381753, 0.041327762760474965, 0.0425118227201552, 0.043857932835506624, 0.04505450763892299, 0.04627606807213184, 0.047513336327528716, 0.04878469078750279, 0.050117626138663995, 0.051430780542317804, 0.052769257941276605, 0.053979936301281214, 0.0553875020090845, 0.05681110373303281, 0.05825188380561106, 0.05985487999196077, 0.06131488871832869, 0.06280307880942616, 0.06416338540186632, 0.06572673444090783, 0.06730291004215255, 0.06890555928119065, 0.07052878709941775, 0.07220005519663222, 0.07386405857945988, 0.07558818831362402, 0.07729803687301978, 0.07903584212445515, 0.08077538178217802, 0.08257312298217723, 0.08437745961358283, 0.08623258700305259, 0.0881146160330444, 0.0901739909842232, 0.09209258567974503, 0.09395116451743721, 0.09595520663978083, 0.09798944273279857, 0.10001596628884732, 0.10211630470971664, 0.10439838509595707, 0.10653789752708955, 0.1087161127480485, 0.11077366810684827, 0.11304741832498265, 0.11549618913595842, 0.11780847915897003, 0.12015888707672559, 0.1225293908791217, 0.12495717879883139, 0.1273330237035357, 0.1298443680612768, 0.13238699721839117, 0.1350087067852211, 0.13761024707822297, 0.14025376916363608, 0.14292702692596468, 0.14563722438262097, 0.14832286228630814, 0.15111537307083717, 0.15390674023555986, 0.15677266159353673, 0.15967209289442158, 0.16262060762025737, 0.16558775650419344, 0.16863276504781397, 0.1716686749236526, 0.17474460203789122, 0.17784006457575097, 0.1809988851304547, 0.1841938793935286, 0.18743153445026628, 0.19070858770243024, 0.19396354228300583, 0.1973278004085683, 0.20076087111260849, 0.20419465231838205, 0.20766791494688128, 0.21127196166561774, 0.2148132619437293, 0.21829095154314357, 0.22193559565976517, 0.22561805427349066, 0.22947679454937703, 0.23321843643401646, 0.23695658891579202, 0.2407965562799502, 0.2446784352136354, 0.2486459547183405, 0.2526050611500027, 0.25646946133652954, 0.26053218459561694, 0.2646293160456496, 0.2688231274738429, 0.2729828685499443, 0.2771319370960302, 0.28137635757030677, 0.2856568424243937, 0.29009110347294714, 0.2944293106829101, 0.2986900326299306, 0.30312850580020423, 0.3076013734492997, 0.31218517666521617, 0.31671752669102987, 0.3213093479665738, 0.3259162352286539, 0.33056186821275957, 0.3352454548367326, 0.3399662382910044, 0.34472936909128277, 0.34952164976234606, 0.35434935135951284, 0.35920295041134087, 0.36410050457402965, 0.3689192557854771, 0.3738960578916029, 0.3788982764549287, 0.38394091180949974, 0.38899291456925716, 0.39412463900328737, 0.3992234846716526, 0.40435179756668216, 0.40951181996851577, 0.41469659677203274, 0.4199500243334481, 0.42518387277964464, 0.43044603202395676, 0.435703081373374, 0.4410226891328027, 0.4463655946710896, 0.4517310455416761, 0.45711827777924696, 0.4625617774476672, 0.46798577567731997, 0.47333714134275523, 0.478814730962947, 0.4843062755973903, 0.48975270913778723, 0.49527862640377956, 0.500837590540564, 0.5063795738409483, 0.5119322164824937, 0.5175538313872541, 0.5231189176965408, 0.5286934357490799, 0.5342825004899011, 0.5398815061971186, 0.5454775941246083, 0.5510946523051101, 0.5566971048446964, 0.5623276773555059, 0.567961018725535, 0.5735492399885311, 0.5791914115360447, 0.5848985856579737, 0.5905264655668352, 0.5961543221124614, 0.6017162501479429, 0.6073484673848063, 0.6129703478606603, 0.6185874287459059, 0.6241954671605184, 0.6297172673694845, 0.6353144450174808, 0.6409427791686301, 0.646501980263823, 0.6520472216717039, 0.6575100154631616, 0.6630331305440147, 0.6685856141289691, 0.6740607684981267, 0.679517097200189, 0.6849770507344586, 0.6903895577670953, 0.695687280494983, 0.7010688558292288, 0.7064217797085365, 0.7117895861373366, 0.7170779198626873, 0.7222706160100265, 0.7275102644656104, 0.7327158022496151, 0.7379424516858613, 0.7430708068906918, 0.7481220620551206, 0.7531886844849677, 0.7582172950608189, 0.7631364750883802, 0.7680952554105599, 0.7731385668557585, 0.7779910534166701, 0.7828050963310434, 0.787408629282031, 0.7921624862907825, 0.796837152836352, 0.8014887623451535, 0.8060858153500361, 0.8107016523478103, 0.815179818155046, 0.8196714808416118, 0.8240381380053731, 0.8283551926002503, 0.8326005053095656, 0.8368163080048905, 0.8409386280558926, 0.8450474689710786, 0.8490964629959954, 0.8529672162683929, 0.8569088052420877, 0.860872459148336, 0.8646645517546878, 0.8683927656011385, 0.8719416257453849, 0.8755539483915973, 0.8790845251403449, 0.8825521561989454, 0.8860550880356242, 0.8893620522002947, 0.8926014551881429, 0.8957251638373496, 0.8988320767681055, 0.9018479275734822, 0.9048095871928815, 0.907695577808599, 0.9104936542733614, 0.9132283004259254, 0.9158380769976121, 0.9184225201281041, 0.9209255741796718, 0.923338331672958, 0.9256793903850431, 0.9280439159483168, 0.9302068008043558, 0.932292938863332, 0.9341778279372258, 0.9361228960455464, 0.9379724478252252, 0.9397453571557928, 0.9414312709628755, 0.9430361603687843, 0.944547573230364, 0.9459900935816091, 0.9473261526210508, 0.9485765002352018, 0.94980552543444, 0.9508755112081798, 0.9518215259639822, 0.9527302995753357, 0.9535525131541893, 0.9542467628908369, 0.9549002911860756, 0.9554848115348185, 0.9559567376230479, 0.9563405352307478, 0.9566538036895347, 0.9568590373432899, 0.9569124423788192, 0.9569513653711913, 0.9568992757501973, 0.9567125699141819, 0.9564854192449012, 0.9561661205549019, 0.9557554297480405, 0.9552540443776821, 0.9546802428770549, 0.9539971397991482, 0.9533348784271234, 0.9524626657598838, 0.9515094694395324, 0.9504131025649681, 0.949304414578912, 0.948019073913035, 0.9467511085760314, 0.9453931484758643, 0.944057966629831, 0.9425091682238997, 0.9407563758254242, 0.9390620714615026, 0.9372804254363087, 0.9355712901221854, 0.933598362685944, 0.9314915817442955, 0.9293756596298587, 0.9271809616589305, 0.9247933347339771, 0.9224569603339263, 0.920107372779094, 0.9175961020990083, 0.9150079629666734, 0.9123349225939872, 0.909596520551271, 0.9068095849836225, 0.9039187705182484, 0.900956247545379, 0.8979697220372691, 0.8948599435261209, 0.8916215609759577, 0.8883862042430504, 0.8850813891646062, 0.8816758486524005, 0.8782393759400902, 0.8748200276328117, 0.8712379288496093, 0.8675951574674571, 0.8638511737058966, 0.8600941216325201, 0.8561644172530408, 0.8523006158132006, 0.8483717941649651, 0.8444563836412423, 0.8403938537046158, 0.8362293755414485, 0.832064068464003, 0.827843481532162, 0.8234986214700536, 0.8191809395230336, 0.8148907658297754, 0.8104551286120796, 0.8059732124969982, 0.8013697551367052, 0.7968083583503841, 0.7922850361280162, 0.7876203483674102, 0.7829167630095331, 0.7780900125607149, 0.7733222803573118, 0.7686342766402429, 0.7637715307516132, 0.7588781706246523, 0.7539548309404588, 0.7490022191571307, 0.7439329550160044, 0.7389353268245512, 0.7339059760204119, 0.7289317652704413, 0.7238330930796042, 0.7186917281862091, 0.7135522556061544, 0.7083912501183658, 0.703189255113597, 0.6979911453045724, 0.6926767821346675, 0.6874537030738403, 0.6822085681106845, 0.6769963752981307, 0.6717066549853772, 0.6664156188767378, 0.6610996723857719, 0.6557740900190219, 0.6504166218371228, 0.6450785042477182, 0.6396420849582238, 0.6343024860614402, 0.6289533721879694, 0.6236203399988878, 0.6182553716958313, 0.6128910668673927, 0.6075227515850657, 0.6021554094136897, 0.5968169116924149, 0.5914523957321565, 0.5860562621964244, 0.5807108122534183, 0.5753719301382215, 0.5701643847917887, 0.5648270445142206, 0.5593631298133789, 0.5540790416010973, 0.5488048197751183, 0.5435420080672599, 0.5382920740129323, 0.5331739542111856, 0.5279390438626923, 0.5227276152560302, 0.517478237950497, 0.512322475085219, 0.507240651457488, 0.5021212494594637, 0.4970277578370728, 0.4919371693925602, 0.48690001048108694, 0.48181559121436035, 0.476840910990674, 0.47188988394868886, 0.4669727003147744, 0.4620719118099486, 0.45726381457439724, 0.452412029570791, 0.4475940389135347, 0.4428132456415996, 0.43806388363104454, 0.4332382624253617, 0.42857430748003456, 0.4239404660316287, 0.4194057217292457, 0.41482765192754995, 0.4102344809978737, 0.40573924116308213, 0.4012799271526767, 0.39676345927331014, 0.39239066981229753, 0.38819516266564486, 0.383872274340563, 0.37959363758819664, 0.37528292020688436, 0.37110266916086504, 0.36693913110666254, 0.3628430225399926, 0.3587872064221386, 0.3548341804024678, 0.35085343614168707, 0.3469244596551868, 0.34303482620103315, 0.3391915570718569, 0.33543287491139445, 0.3316775754006074, 0.3278650749271195, 0.3242200388034796, 0.320617126967114, 0.3170452239821456, 0.31352988334219056, 0.31016053877955174, 0.30671900830661936, 0.303180431275739, 0.299856777381177, 0.29657388657780837, 0.29342365242317503, 0.29021305666743746, 0.28693873735175607, 0.28383788391380577, 0.280778198278365, 0.27785435764870736, 0.274866944881062, 0.27193934282776205, 0.26904614050802633, 0.2662008295701604, 0.2634528692386002, 0.2606955589081647, 0.2579904498246611, 0.2553304448785067, 0.2527182317150124, 0.25014717708153106, 0.2476290728394541, 0.24512692449004383, 0.2427026434721438, 0.2403209357969031, 0.2379815170646551, 0.23568409406218072, 0.2334871336969749, 0.23126535443251645, 0.22908793253390067, 0.22685709376106628, 0.22477828069754266, 0.22263619768737453, 0.22064339228696686, 0.21868175069360268, 0.21695480251717073, 0.2150320227200296, 0.21312133527042088, 0.21129019345794287, 0.2094991791738372, 0.20767103497142403, 0.20596740052807358, 0.20427950898037808, 0.2026447052839335, 0.2010419426739084, 0.19951519550852076, 0.19797057336641283, 0.19637770407628877, 0.194910921288832, 0.19347230172490965, 0.19215297150161245, 0.19075917765046987, 0.18928097739134475, 0.18796738234658383, 0.18667849742825043, 0.18556425711215724, 0.18430596897037477, 0.183021980360678, 0.18183587744575277, 0.18067686106361142, 0.17949716211024552, 0.1783960120022727, 0.1774052311302182, 0.17633701691064077, 0.17529522993515734, 0.17414357085666915, 0.17316839672597475, 0.17228817955923958, 0.17133432386704073, 0.17040067407377088, 0.16956880939714256, 0.1686630805925531, 0.16766256041117858, 0.1668158463356502, 0.1659826884169104, 0.1652304429348181, 0.1644151223575648, 0.1635193680392796, 0.16274848892541974, 0.1619869583052803, 0.16122885720477081, 0.16048657430805854, 0.15975886926345287, 0.15903307218123292, 0.15831590734450138, 0.15772459449862383, 0.15700884124160103, 0.15620147578696164, 0.15552608917392902, 0.1548563257155692, 0.15424475661215142, 0.15357856274471535, 0.15288172403143016, 0.15223465850538825, 0.15159141734801904, 0.15100445997309211, 0.15036087555139355, 0.1497786017298273, 0.14913804908304046, 0.14850442522587673, 0.1477325293396422, 0.14712742124861494, 0.14662653008330187, 0.14599888013822435, 0.14537319412068528, 0.14463115052006792, 0.14402196057095984, 0.14356168979699638, 0.14291948413988945, 0.14227975535299273, 0.14154151941761237, 0.14091624525071483, 0.14028195666783502, 0.13964489523705187, 0.13900155317255158, 0.13832839067480793, 0.1376753406951659, 0.13698808305354582, 0.13632295120845667, 0.13564873016530532, 0.13512433609289362, 0.1344125356955299, 0.13353655608435022, 0.13284513009204138, 0.13214260224096197, 0.1314734227566978, 0.13074417503938734, 0.129983730009768, 0.12924192723225303, 0.1284908202759604, 0.12770694551240094, 0.12694031480002255, 0.1261660746207004, 0.12537815901416824, 0.12458019095979803, 0.12389568124493962, 0.12306226736969089, 0.1222230127763212, 0.12138321530046227, 0.12053856143004105, 0.11964132347757506, 0.11879085611757824, 0.11784874618835262, 0.11698986761356421, 0.11611686219289487, 0.11517158222013373, 0.11427955622038809, 0.11345406633610249, 0.11252108147144137, 0.11157872300583074, 0.110668200786688, 0.1097021084962431, 0.10879969297861347, 0.1078107388812057, 0.10681843812546984, 0.10578973764494515, 0.10479275105755632, 0.10368588880513488, 0.10268767948802182, 0.1016763839406004, 0.10078205071563985, 0.09973044300702018, 0.09864277624474306, 0.09758733905605596, 0.0965255492761212, 0.09548383359605297, 0.09440597573187713, 0.09317344371854405, 0.09210478509842786, 0.0910227101924252, 0.08993134287729061, 0.08882551564620991, 0.0877713979509434, 0.08663865004932167, 0.08550104996315787, 0.08429713284269984, 0.0831583621055686, 0.08210604405588265, 0.08094097546256293, 0.07977504371715935, 0.07849646969140191, 0.07734262556438135, 0.07618731518512113, 0.07501895228157315, 0.07384532204650313, 0.07281113022815434, 0.07161086825900954, 0.07029494786544242, 0.06911897417884529, 0.0679399986787266, 0.06687614715775027, 0.06567803473312338, 0.06438821293395586, 0.06321243466164697, 0.06203567465702049, 0.060837874547774784, 0.05966326424174211, 0.058517376224736246, 0.05733834661385089, 0.05616150977305294, 0.055069459891257416, 0.05388755742148501, 0.05255180219912145, 0.0514055170071424, 0.05032490512796856, 0.04916736321611675, 0.04801383095482735, 0.04694403463579013, 0.04578964297852432, 0.04465366239833017, 0.04351706990514481, 0.04239008431685622, 0.0412078469778101, 0.04010767848530611, 0.039030675322810356, 0.03793983315750064, 0.03685647074937046, 0.03579265321595102, 0.03472369998499626, 0.033625624957789195, 0.03257987820122724, 0.03154151665131738, 0.030411178901461267, 0.02940182813312349, 0.02848689563679261, 0.027473940275376307, 0.02647182079657326, 0.02546025849535944, 0.02448327084220303, 0.023525615356464913, 0.022568967481554743, 0.0216241419524451, 0.020562136652772393, 0.019658157074119716, 0.0189035482513142, 0.01799341530483065, 0.017099166347022986, 0.016100174644196115, 0.015252504242911654, 0.014434153061045613, 0.013602271059110105, 0.012781970240549155, 0.011944395992004675, 0.011152500075214832, 0.010468912999264692, 0.009688030313886105, 0.008925043947751727, 0.008103226092342838, 0.0073847447648773285, 0.006752453841066757, 0.00605052468647224, 0.005366163566248558, 0.004622668159679107, 0.003982228954954451, 0.0034659194953696806, 0.0028366978063476063, 0.0022269581861071733, 0.0015538259640515664, 0.0009917288141670407, 0.0005486857752138863, 0.0