0.028004381093516495, 0.02767973480374793, 0.02739651703255495, 0.027151885823051673, 0.026922185145443738, 0.026740884755289473, 0.02659144320174849, 0.02645119075335575, 0.02632781737159819, 0.026188672458548903, 0.02609552046574298, 0.026020039342808964, 0.025941837554002995, 0.025870634475935773, 0.025820677975596503, 0.025759434224629788, 0.025656195764650183, 0.025612910823025237, 0.02557251309442622, 0.025571418769941484, 0.025533320022548107, 0.025462259328562224, 0.025441561770935615, 0.025425296496083476, 0.025379549553080666, 0.02537850766731018, 0.0254195362373639, 0.025423670150557208, 0.02543625590259246, 0.025454850297987386, 0.025486406660150257, 0.025481324943278875, 0.02553926563200194, 0.02560567884113039, 0.025670958231268737, 0.025758332749335228, 0.025866676687204184, 0.025974440046961207, 0.02609483016881689, 0.026261540372078555, 0.02640482989734744, 0.026562846675796455, 0.026739029911527507, 0.026931845937270237, 0.027061881882166176, 0.027298806109866066, 0.027578723233169587, 0.027838598077770758, 0.028114797113505532, 0.028422852610037293, 0.02873126554499487, 0.029086808043084736, 0.029429034703113085, 0.029791999483698504, 0.030175745322047042, 0.03058033863229709, 0.03094724298619236, 0.03140122957010398, 0.03187309945524443, 0.03239353456652871, 0.03289918231240689, 0.03341561301815089, 0.033965468406547024, 0.03453657336476505, 0.035100722286103246, 0.035718995616321254, 0.03635194712920276, 0.03701292879642013, 0.03770438322824814, 0.03840768545407878, 0.039134024079293055, 0.039843235672861986, 0.04062203266355758, 0.04142431719713124, 0.04224760258916056, 0.04309432616111896, 0.04393803313945301, 0.04483682429655352, 0.045748710140880014, 0.046696783105753835, 0.0476692629823905, 0.04872397098886334, 0.049740087681570386, 0.050746678149856554, 0.05182694748573157, 0.05293479359982015, 0.05408719979572955, 0.05524943057628163, 0.05639634931208218, 0.05762410462052274, 0.05887962282412076, 0.06021312762020898, 0.06151970936647156, 0.06278941595459546, 0.06416938322082746, 0.06557795537119493, 0.06702183063908913, 0.06848885268749459, 0.07001978126523738, 0.07154477866837423, 0.07310340145723104, 0.07471233547392062, 0.07633657379166484, 0.07797929220521016, 0.07967567838336563, 0.0814062231664136, 0.0831696168431441, 0.0849692466075456, 0.08675692302578236, 0.08863193217291547, 0.09053935746688889, 0.09250831785254271, 0.09447858564093432, 0.09645733438808225, 0.09850228216302168, 0.10058160029209232, 0.10268062998488676, 0.10483166956608725, 0.10701423335171295, 0.10923509792066279, 0.11149104489320583, 0.11372977993635475, 0.11606345385676603, 0.11849622534386238, 0.12088807070586259, 0.12331773968803428, 0.1257580983902243, 0.12826660082053087, 0.13077508424216164, 0.1333603860647122, 0.1359799317521886, 0.13866112597695573, 0.14134671428657836, 0.14402983288046378, 0.14679353977041562, 0.14959154333802865, 0.15246314582917825, 0.15532539887310015, 0.1582065877242324, 0.16114481154241403, 0.16411847381893407, 0.16712444148387967, 0.17016895609440807, 0.17318966296685048, 0.1763110519236507, 0.1794635996115527, 0.1826716101849797, 0.18588411370601102, 0.18913265950511238, 0.19241069599777794, 0.1957215832228026, 0.19910264827226698, 0.20247369872712925, 0.2058262565160381, 0.2092715651750628, 0.21274679015293674, 0.21624423342766488, 0.21977965356841056, 0.22337396423429529, 0.2269629987714149, 0.23058203198914562, 0.23420645613630786, 0.2378868537124189, 0.24152807599870563, 0.24527038943907523, 0.24903517062411576, 0.2529036882645725, 0.2567033372352591, 0.2605285263464983, 0.26438164372341155, 0.26826011499051716, 0.27214362375786294, 0.2760729560945693, 0.2800016922800797, 0.2839771778391444, 0.28797213030781893, 0.29195603282839383, 0.29599232403136183, 0.3000870154245976, 0.3041502896583602, 0.3082315439827589, 0.3122999449943283, 0.31641864436520944, 0.32052574939630485, 0.3246750477444865, 0.32883572952762685, 0.332972801115631, 0.3371593032426449, 0.3413372843080355, 0.34554160372099724, 0.34975232700601283, 0.35400972126590896, 0.3582270811918172, 0.3624068320528929, 0.3666440002174284, 0.3708843694387141, 0.3751288998513115, 0.37937379068385857, 0.383632185623691, 0.3878777915745133, 0.3921240649262848, 0.3964167049822437, 0.4006556988713855, 0.40490422980793744, 0.40914178459197464, 0.4133777256495253, 0.4175445646244913, 0.42178163317843587, 0.42604551138560975, 0.4302587629902193, 0.4344632897852555, 0.43861441150230107, 0.4428037414056698, 0.44694407338685965, 0.4511081976592643, 0.4552544591335853, 0.4594184056371724, 0.46352272515000265, 0.4676139323990459, 0.4716814354666418, 0.47572955178743603, 0.4797481993473865, 0.48375548914709726, 0.4877487029674933, 0.4917076599430626, 0.4956420127825467, 0.4995070737715354, 0.5033944466401972, 0.5072785458389601, 0.5111010955372998, 0.5148933127647735, 0.5186135772616687, 0.5223471548391603, 0.526082587389153, 0.5297392449712531, 0.5333608083428725, 0.5369341534739673, 0.5404837592422376, 0.5439672602949018, 0.5474412095175385, 0.5508726212545122, 0.5542456891943554, 0.5575915748066548, 0.5608916737817469, 0.5641452576789846, 0.5673515652799013, 0.570559412962565, 0.5736625044432649, 0.576675075772176, 0.5796885768006632, 0.5826502453377999, 0.5855682746540184, 0.5884226496832005, 0.5912201858872608, 0.5939663547335149, 0.5966566857344986, 0.5993128433718292, 0.6018860028870006, 0.6044034612250163, 0.6068609785245447, 0.6092593211438866, 0.6116065159934571, 0.6138824235465943, 0.6160802440625082, 0.6182341653477871, 0.6203236977650008, 0.6223646095377184, 0.6243209904378552, 0.6261425158985819, 0.6279753772249216, 0.6297625466757516, 0.6314494618930632, 0.6330660830065513, 0.6345698239358031, 0.6360496882164955, 0.6374463867976742, 0.6387789435387805, 0.6400365007975423, 0.6412760298369532, 0.6423758801568383, 0.6433492727788533, 0.6443105845710013, 0.6451951637634187, 0.6460659601579034, 0.6467885204816076, 0.647423761767516, 0.6479997218157715, 0.6484997297511151, 0.6488511236042356, 0.6492068643836106, 0.6495157683449854, 0.6497045022375126, 0.649814100892228, 0.6498278708263283, 0.6497808251273077, 0.6496352354711735, 0.649429469872596, 0.64914220580675, 0.6488096756070979, 0.648355305945362, 0.6478264018482247, 0.6472132109015806, 0.6465209370038177, 0.6457840224154077, 0.6449288552138329, 0.6439737169174131, 0.6429662574722756, 0.6418795859458446, 0.6406656208615708, 0.6394267100121616, 0.6380955464758102, 0.6366950288546643, 0.6352132252087674, 0.6336371943474962, 0.6319962764333785, 0.630297581244315, 0.6284938230276216, 0.6266123093620249, 0.6246504822024043, 0.6226151956920039, 0.6205484662436537, 0.6183549155021442, 0.6160884018272645, 0.6136844699715809, 0.6112808115902384, 0.6088208319547506, 0.6062638527210858, 0.6036338459600487, 0.6009931397536071, 0.5982113896642168, 0.5953426621808463, 0.5924287573072318, 0.5894468899746771, 0.5863946076735792, 0.5832789055848079, 0.5800532834462632, 0.5768111536944825, 0.5735017177223862, 0.5701697069458189, 0.5667235529732946, 0.5632309611971036, 0.559660734461723, 0.5560314577616033, 0.5522882394199934, 0.5485501269666851, 0.544756684220061, 0.5408996398245075, 0.5369856308528799, 0.5330249332232808, 0.5289996204751817, 0.5249216080073951, 0.5207920718374108, 0.5166121972085269, 0.5123621340669754, 0.5080878374343873, 0.5037836734648953, 0.49941267834353803, 0.49499756658633265, 0.49050048426487186, 0.48600577981944526, 0.48150155678189527, 0.4769190692896136, 0.472298973229904, 0.46759442379947547, 0.46290897694800576, 0.458239641025457, 0.45347621764428503, 0.4486825642643568, 0.4438418272387857, 0.43899357231475705, 0.4341507684825675, 0.42924448899184137, 0.42431523810494226, 0.41931754863115395, 0.41435167752246793, 0.4093607099396266, 0.40435263974298075, 0.399325491883572, 0.3942748391521365, 0.3892150329931898, 0.3841525359803481, 0.37906335574521116, 0.3739632716925382, 0.3688898034540927, 0.3637676734878379, 0.3586079070901179, 0.3534819645881518, 0.34835190777871317, 0.34322821921281405, 0.3380931752594074, 0.33296490166610004, 0.327831979464087, 0.3227028873031467, 0.31754737810207573, 0.31243390316285435, 0.30733397784896144, 0.30223320557139915, 0.29714202992971545, 0.2920604143398836, 0.2869930025465525, 0.28197852890844444, 0.27693530834184166, 0.27191096334637693, 0.26685545697320534, 0.26187856205833243, 0.2569419949261342, 0.25200254111387693, 0.24708658399005243, 0.2421803817632237, 0.23731717498059376, 0.2324714294492559, 0.22766369107028736, 0.2228846309151671, 0.21817771886189508, 0.21345479717273463, 0.20875943146634857, 0.20410854040310925, 0.1994941821146948, 0.19491887358521992, 0.1903804291407418, 0.1858921549274094, 0.18143266345882214, 0.1770153796173375, 0.17264720535183783, 0.1683162452035332, 0.1639658611318759, 0.15973433825977246, 0.15554607602071172, 0.15139942236700965, 0.14730205526933343, 0.14331477389960146, 0.13930450969576055, 0.13534704525218602, 0.13136928139961937, 0.1275284113965161, 0.12378750933256237, 0.12004225853565174, 0.11635241369606472, 0.11267651049690978, 0.10910465982392588, 0.10563277773487086, 0.10216588487525821, 0.09875816459762204, 0.09538900756657172, 0.09210359107790207, 0.08886090959331203, 0.0856966978696615, 0.08259194133795987, 0.07956231063362572, 0.07657643036418715, 0.07367967660370196, 0.07081488944774104, 0.06801441460857406, 0.06526482655333168, 0.06259499624552405, 0.05999353453645013, 0.057451055501746874, 0.05497307481200637, 0.052511615219612666, 0.050169071300467, 0.04787812583904055, 0.04566161043695477, 0.043507469818952364, 0.04144317003487482, 0.03941151211915487, 0.037444764138835004, 0.03554291696856754, 0.03370592976371536, 0.03190667311121675, 0.03020258135440788, 0.028569041683129973, 0.026990128761109865, 0.025474732407710025, 0.024025748238636357, 0.0226366309271742, 0.021315253336789602, 0.020051772190397332, 0.018839207826572935, 0.01770277701653945, 0.01662787770891187, 0.01563524491571914, 0.014679781583650789, 0.013798018594238596, 0.012963800359188248, 0.0121907532865147, 0.011484187613444224, 0.01083061503174933, 0.010245461274671087, 0.00970879223264133, 0.009230519946491293, 0.008733154556834107, 0.008378895938847082, 0.008091301699541016, 0.00783820985377021, 0.007637122893006379, 0.007532671640891883, 0.007428446647463693, 0.007377214353194947, 0.007378006460100421, 0.007429859104791089, 0.0074912247262350845, 0.007647447946464868, 0.007864604845894262, 0.008110095588497993, 0.008401018378989348, 0.00874405055578541, 0.009122349150487163, 0.009555946494220521, 0.010018309458446928, 0.010522686626341416, 0.01105897901072323, 0.011645287204536725, 0.012266861583747573, 0.01292909006420909, 0.013627402708129425, 0.014362302844685837, 0.015129582137912498, 0.01590143410207451, 0.016737545365285694, 0.01760308610382542, 0.018479184143546174, 0.01940332687913407, 0.020350273012715928, 0.021325626839775527, 0.02232499908305414, 0.023427208737745533, 0.02446195295728677, 0.02546690174804309, 0.026558726666957057, 0.02767010926017373, 0.02878947456701255, 0.02993813245100706, 0.031087530903239912, 0.03226863280789211, 0.033462641389179024, 0.034656614916734475, 0.035875179794479836, 0.03715876263041708, 0.038388197922201286, 0.03962833052574953, 0.040891288146268835, 0.042146933940309717, 0.04334078098048256, 0.04461844808661967, 0.045896786195848006, 0.047218603044944636, 0.04849038206595831, 0.04978086421509208, 0.051050467653919386, 0.05231932162352129, 0.05356204892645845, 0.05482850559433557, 0.05612958497980245, 0.05737795902552829, 0.058620608514525906, 0.059862214052162216, 0.06108870777487623, 0.06227590092195602, 0.06348648286998633, 0.06468370799834518, 0.06586967484933917, 0.06703709341950247, 0.0682021618476234, 0.06933521339462677, 0.0704513630381596, 0.07163080647799824, 0.07269998646310585, 0.07372090406976399, 0.07476233581836218, 0.07578373525642862, 0.07678102136448063, 0.07775956980301671, 0.07879302799437585, 0.07971429010041874, 0.08061494670112217, 0.08143644300457564, 0.08229892798007625, 0.08316220267633517, 0.083964881031371, 0.08474011724695985, 0.08556525843487209, 0.08627332692408432, 0.08692899375142682, 0.08758850909788843, 0.0882187139358086, 0.08884583533309925, 0.08941158342013654, 0.08996831761617875, 0.09047045253830055, 0.09094212717141552, 0.09139302690226551, 0.09180003374409802, 0.09221101151994772, 0.09254858325677988, 0.09285483319067384, 0.09316203919141347, 0.09339919234223135, 0.09361082317927333, 0.09378337834342183, 0.09392331450414725, 0.0940285298312016, 0.09410172244393343, 0.09422188073918553, 0.09421608437454873, 0.09418008861108966, 0.09408000239188495, 0.09398547060414343, 0.09389742474930106, 0.0937293970491734, 0.09352929440454236, 0.09327873072571805, 0.09301581776660878, 0.09277318596845882, 0.09243583831347638, 0.0920679033692589, 0.09167364303964681, 0.0912433226722853, 0.09084385425257677, 0.09034417898225308, 0.08981725716851914, 0.08927176439018464, 0.0886883069875523, 0.0880579108313156, 0.08742206474172007, 0.08675769880819786, 0.0860906581663224, 0.08536695950327063, 0.08461272894211103, 0.08383782037121068, 0.0830372394880526, 0.08226854982369958, 0.08141078382058517, 0.08050648574378663, 0.07961013131948279, 0.07869173530618963, 0.07778339381361314, 0.07681856500306901, 0.07587128953724409, 0.07486527730531785, 0.07384368857102346, 0.07280980232105556, 0.07175759312773208, 0.0707015918223862, 0.06961992939378982, 0.06852562799153987, 0.06741924705030443, 0.0663014150756322, 0.06521491230922323, 0.06407098410209952, 0.06292020029540957, 0.06174953483818936, 0.06058834053583287, 0.05946787614293158, 0.05828988402261884, 0.05711034876587447, 0.05591027282780029, 0.05473183654971125, 0.053557140218441504, 0.05237751684236441, 0.05119926047541598, 0.050017317279978483, 0.048845466303993924, 0.047709187417852524, 0.04654245241345239, 0.04538370553388291, 0.044268394871125896, 0.04312391945422313, 0.041966566002667044, 0.04085138560820275, 0.03974893326991668, 0.03867978675866901, 0.03760345218833079, 0.03654411923029714, 0.035502728480575826, 0.03448025413556062, 0.03350475705346908, 0.03251972897547751, 0.03160481567030875, 0.03066177634723263, 0.029721054195570137, 0.02883754192797019, 0.027981650231800746, 0.027161799140309178, 0.026362944805850032, 0.025629516782775835, 0.024888928416885506, 0.02418302496435605, 0.02353956932761743, 0.022901783976520772, 0.022302471345549153, 0.02174225890596847, 0.021221834814283254, 0.02071337884655707, 0.0202784093276986, 0.019894497309245137, 0.01954035234016638, 0.019229500124141548, 0.01894790145711744, 0.018728517103624564, 0.018592147334779357, 0.018459995548745882, 0.01837759770085033, 0.018372784386477554, 0.01838880880547672, 0.018420890087972628, 0.01854953277371256, 0.018730921085949613, 0.01902463297159377, 0.019306942932985495, 0.019618033288603526, 0.02002226242137386, 0.020484545731422138, 0.021016147436893624, 0.02159543042505467, 0.02222805398405349, 0.02293063925494467, 0.02369493679708682, 0.024554713159975813, 0.02544032920230668, 0.026406593156031805, 0.02742192702731861, 0.02850450938833853, 0.029662149066357453, 0.030879178875010637, 0.03216782570337903, 0.03352198115205835, 0.034945500825093276, 0.03640860803401204, 0.037975529286323986, 0.03961702782052218, 0.041320864275267356, 0.0430946641767458, 0.044997487575662944, 0.046905082066764574, 0.04882101770351782, 0.050885824511584396, 0.05302120373571703, 0.055275731274660234, 0.05754754739989871, 0.0599059440044477, 0.06232530158116899, 0.06481979914480923, 0.06736825554240541, 0.0700152960454166, 0.07271186442148744, 0.07550915819412207, 0.0783787682696839, 0.0813584787609218, 0.08436853520469198, 0.08745349008723208, 0.09061310949371351, 0.09384715470090137, 0.09713734143323684, 0.1005217721630053, 0.10402394529633756, 0.10754783310487878, 0.1111465984908051, 0.11481817837586997, 0.11856522319116532, 0.12235535508676437, 0.12625198542018573, 0.13021904512430935, 0.13426828340883498, 0.13837381816662583, 0.1425314881917762, 0.1467791778107342, 0.1510950620524552, 0.15551484854413575, 0.15996141383643547, 0.16446494933195888, 0.16905025445647828, 0.17370233681006414, 0.1784550939409365, 0.18323431575289498, 0.18805312255868648, 0.19296804877821283, 0.1979461125445061, 0.20298505702435898, 0.2080873081375994, 0.2132021977511667, 0.21843121871745136, 0.2237166730817254, 0.22908817748002466, 0.23448128719653277, 0.23991744714498364, 0.24542454611329428, 0.25098568112426833, 0.2566090516716366, 0.2622746225058551, 0.2679876586791008, 0.2737567533547292, 0.27957555563224346, 0.285449075621283, 0.2913635002009543, 0.2973369149305911, 0.3033426271359106, 0.3093937219146347, 0.31550097790112214, 0.32163757447900687, 0.3277698817923118, 0.3339956385609215, 0.3402583946917879, 0.34654365841252305, 0.35287919316505734, 0.35921939607288306, 0.36562402946964073, 0.3720583013986714, 0.3785439296584023, 0.3850320695256844, 0.39152587817202067, 0.39807210637583884, 0.40464286548488565, 0.41127015748851464, 0.41788254636818717, 0.4244834115227187, 0.43114481429337137, 0.4378244118754372, 0.44453906334244175, 0.451249197808084, 0.45793882621819776, 0.4646832478937684, 0.4714383778902812, 0.478221117598916, 0.4849919324219687, 0.49172133552663355, 0.49851342090321127, 0.5053081275775966, 0.5121269945907262, 0.5189210097861698, 0.5257157224293069, 0.5325097920550722, 0.5393018618687149, 0.5460665101584544, 0.5528534985873317, 0.559614955863586, 0.5663880348792913, 0.573150170197143, 0.5799032540463702, 0.5866397398433004, 0.5933184019320349, 0.6000306957976966, 0.6067238058460823, 0.6133937927143864, 0.6200460573887328, 0.6266925362593291, 0.633297003925469, 0.6398779082901568, 0.646388878623096, 0.6529245201969293, 0.6594572626091847, 0.6659286251212868, 0.6723696108996293, 0.678771449607115, 0.6851488597729397, 0.6914841671501104, 0.6977921408863664, 0.7040626713132101, 0.7102840695750543, 0.7164775344543347, 0.7226384585722344, 0.7287465607441791, 0.7348113927918707, 0.7407911737228765, 0.7467710174624186, 0.7527182786398561, 0.7585969453255053, 0.7644256894156056, 0.770201967087772, 0.7759279298753298, 0.7815481416452053, 0.7871734452702897, 0.7927405922761581, 0.7983030933130822, 0.8037452249074318, 0.8091182661012418, 0.8144466311883652, 0.8197149689551655, 0.8249057378992867, 0.8300531081464162, 0.8351064871924769, 0.8401289799617675, 0.8451067593675613, 0.8499913016442989, 0.8548086707754748, 0.8595355184044361, 0.8642189993688489, 0.8688767633806115, 0.8734123277321835, 0.8778784234885499, 0.882212453840132, 0.8865445509819359, 0.8907889249802254, 0.8949708008915406, 0.899075587945286, 0.9031465875959741, 0.907090785170283, 0.9109353427226121, 0.9147306995469305, 0.9184477413449624, 0.9220709885831396, 0.9256319655084183, 0.9291079549468416, 0.9325082466332795, 0.9358272054879444, 0.9391156748765939, 0.9422647082621888, 0.9452743516227751, 0.9482717915945429, 0.9511853085047799, 0.9540027996423259, 0.9567497512325703, 0.9594163613090544, 0.9619930444979918, 0.9644851263894088, 0.9668820333802477, 0.969206089673811, 0.9714417971526931, 0.9735955900054094, 0.9756639508745659, 0.9776619734128318, 0.9795577538734664, 0.9813946858582577, 0.9831183761171407, 0.9847590126939496, 0.9862983424856157, 0.9877745565491507, 0.989166202872044, 0.9904733498860818, 0.9916960900869777, 0.9928044758879975, 0.9938625768151277, 0.994863565121063, 0.9957471371021954, 0.996547490200178, 0.9972603040238783, 0.9978953843427077, 0.9984461380855613, 0.998916067067731, 0.999303720097736, 0.9996199791329855, 0.9998428479243688, 0.9999310529619512, 1.0, 0.9999860571530222, 0.9999231208773838, 0.9997416684673704, 0.9994500176655913, 0.999115787211922, 0.9987021580003831, 0.9982264480171877, 0.9976542654647123, 0.9969773621924966, 0.9962570890890783, 0.9954603004018615, 0.9946254465569863, 0.9936734701501698, 0.9926195889980537, 0.9915282614697688, 0.9903644941133921, 0.9891020585680831, 0.9877993177486212, 0.986426603123709, 0.9849817616750757, 0.9834675892948445, 0.9818459874809725, 0.980201032469801, 0.9785415758903413, 0.976753802997926, 0.9749029190200456, 0.9729791361031904, 0.9710055822360335, 0.9689330045185205, 0.9668421869692868, 0.964689567730858, 0.9624958761684429, 0.960220715945638, 0.9578778054582117, 0.9554904721959918, 0.9530472254067404, 0.9505130267986988, 0.9479656217375473, 0.9454189894205351, 0.9427561695423244, 0.9400442037768387, 0.9372207455030781, 0.9344208590105987, 0.9315902617982533, 0.9286887652074336, 0.9257408011634775, 0.922724949506243, 0.9196902709277844, 0.9166172154144774, 0.9134942694681764, 0.9103297845991604, 0.9070948616033757, 0.9038545758722475, 0.9006406455488528, 0.8973137834438569, 0.8939535200870498, 0.8904839378692276, 0.8870688343006767, 0.8836589441797542, 0.8801694131918616, 0.8766496354085845, 0.8731141648206919, 0.8695352568092404, 0.8659028745893897, 0.8622754668385063, 0.8586219610510868, 0.8549269753327823, 0.8512268069789979, 0.8474955065628988, 0.8437502952724427, 0.8399834939755569, 0.8361858223437028, 0.8323808651992763, 0.8285528494178709, 0.8247126016262617, 0.8208559907752194, 0.8169451392685945, 0.8130643265836309, 0.8091865129552851, 0.8052747662975442, 0.8013517783086603, 0.7974622978117797, 0.7935147475850239, 0.7895452312708452, 0.7855896177246191, 0.7816290772506689, 0.7776644814305458, 0.7736966980317248, 0.7697371133113744, 0.7657642117955672, 0.7617912923775872, 0.7577424580645287, 0.7537815002120074, 0.7498681413009746, 0.7458982926533505, 0.7419319357073652, 0.7379188141288309, 0.7339684467580632, 0.7300392587470119, 0.7260941165587571, 0.7221555123409821, 0.7182409388439777, 0.7143161571447038, 0.7103700432706638, 0.7064704489522501, 0.7025807580883014, 0.6987034299240934, 0.6948361810795876, 0.6909561080514202, 0.6871183750398296, 0.6832935539265121, 0.6795006494930899, 0.6757022165823807, 0.6719279655375655, 0.6681625862937718, 0.6644156152373424, 0.6606680760880196, 0.6569620745158726, 0.6532705301430163, 0.6496037148475836, 0.6459569461208021, 0.6423368934152359, 0.638731395010515, 0.6351165879303916, 0.6315601148896732, 0.6280251419849592, 0.624528934646742, 0.6210370117044451, 0.6175590381526085, 0.6141178469920168, 0.6107014294120332, 0.6073433531859762, 0.6039737624085877, 0.6005795900861478, 0.5972728567974515, 0.5939914974106155, 0.5907646530994993, 0.587532123128755, 0.5842800673247951, 0.5811109889544449, 0.5779682104187918, 0.5748808755488124, 0.571788776545069, 0.5687096247340984, 0.5656787742111414, 0.5626858665252438, 0.5597120160011138, 0.5567681496995459, 0.5538799813472464, 0.5509933119040796, 0.5481234523645653, 0.5453022687673668, 0.5425118959054962, 0.5396847292618453, 0.5369646401570601, 0.5343257719144281, 0.5316536073799618, 0.5290126198115411, 0.5263832410827854, 0.523806988293757, 0.5212592019308356, 0.5187431782395499, 0.5162572099393339, 0.5137727911502453, 0.511350682458256, 0.508927047253432, 0.5065660227764833, 0.5042322135638704, 0.501974074053044, 0.49968959663323687, 0.4974043110338614, 0.4951851089769334, 0.49299441930120136, 0.49082924154803403, 0.48869593662095595, 0.48656382486277894, 0.48449036819686286, 0.4824434628084436, 0.48044874471276905, 0.4784519018984253, 0.4765177068814045, 0.4745723708817321, 0.47265649494295475, 0.47071839504575963, 0.468866198445754, 0.4670178887625063, 0.4652181129515519, 0.4634418456871123, 0.46173267853163985, 0.45999786284258276, 0.4582362412421031, 0.456559202109789, 0.4549040469634796, 0.453275232232247, 0.45166306782823934, 0.4500877749929699, 0.4485171704294592, 0.44696878131616596, 0.4454031270963998, 0.443902908804319, 0.44244103411514835, 0.4409758397438458, 0.43953027981801746, 0.4380844594793157, 0.4366795620109328, 0.4353582329683327, 0.4339795852816471, 0.43262156056854445, 0.431224700597338, 0.42991287518108956, 0.4286490725543782, 0.4273627210225338, 0.4260926515202884, 0.4248157489206183, 0.42357940416336065, 0.4223083045290873, 0.42110438145070145, 0.41991038145590726, 0.4187653924372568, 0.41758625198869587, 0.4163935165938795, 0.41524105716447546, 0.414098181580643, 0.4129601104353886, 0.41183613589348655, 0.4107145907778958, 0.40960795432621566, 0.40850878621400366, 0.4073867205176476, 0.4063053608091447, 0.4052844265765345, 0.40420552588364267, 0.40313426280630754, 0.40203240214931224, 0.4009792204809371, 0.39989208105511226, 0.3988505993063918, 0.3978100178230732, 0.3968244193557234, 0.3957786460939507, 0.3947185224708419, 0.39368179843527784, 0.39264655282797695, 0.3915747781539576, 0.3905459570881274, 0.38948665877640076, 0.3884574891274862, 0.38742451015840773, 0.3863922661501323, 0.3853511462089279, 0.38432144408908614, 0.38327104413174723, 0.38221753792699154, 0.3811666037545423, 0.38010511135857633, 0.3790683802170712, 0.3779952720696515, 0.3769191590635008, 0.3758394128127757, 0.3747554383417264, 0.3736215760669641, 0.3725331859545398, 0.37143643311399854, 0.37036577376666424, 0.3692475517062653, 0.3680668791435518, 0.3669415781470384, 0.3658054518381822, 0.36469913022336037, 0.36353631720188834, 0.3623198903138279, 0.3611453682824266, 0.35995906456504656, 0.35880459358092165, 0.35758925093678245, 0.35632396974421365, 0.3550946514620846, 0.35385292265385515, 0.35262280743175567, 0.35135311785180884, 0.3500932817132051, 0.3487982843194388, 0.3474927627365932, 0.34612670671419393, 0.3448052298766336, 0.34345129498006954, 0.34210335136287373, 0.34074013805082687, 0.33934381378415746, 0.337952899612552, 0.33656123006754884, 0.3351370939168531, 0.33369848080475784, 0.33226198354997, 0.33079248327263644, 0.32929753781307214, 0.3278026053811129, 0.3262933600045627, 0.32481189204671584, 0.32326869872037256, 0.32165041616766304, 0.320090954826845, 0.31851535654497815, 0.3169464189583305, 0.3153364190149091, 0.3137377773010713, 0.31209615561901716, 0.31044178187476906, 0.308709828225337, 0.30703758512900764, 0.3053484875881032, 0.30364295626258464, 0.30192137368377936, 0.30018408873535346, 0.2984314207574097, 0.29668019855527483, 0.2948955323251937, 0.2930972281222066, 0.2912944082059196, 0.2894679997203083, 0.28759420427560883, 0.2857465817037791, 0.28388430141618587, 0.2820633278468057, 0.28016571632707354, 0.27824551944172404, 0.2763281522489143, 0.2743992793022484, 0.272406309652968, 0.27046116446819746, 0.2685167259375685, 0.2665415399056074, 0.2645538597938352, 0.2625495028018912, 0.2605383740029396, 0.2585199563684452, 0.2564849950807958, 0.25443914656120087, 0.25236915991486175, 0.25030407783551734, 0.2482492185733414, 0.24616021080235498, 0.24406230609751878, 0.24197973904710118, 0.23986156008982673, 0.23768380303134673, 0.2355583641415813, 0.23341556346230538, 0.23127188914598115, 0.22911893384772716, 0.2270068221475163, 0.22483056246364128, 0.22261621353415179, 0.22043414493966712, 0.21824532671830243, 0.2160967296329018, 0.2138896274600713, 0.21160582743221817, 0.20940193384127273, 0.20719086207908935, 0.2049732607177958, 0.20274973883135883, 0.20056596598393422, 0.19832658983399612, 0.19608545210938189, 0.19387875466876395, 0.1916299296753238, 0.1892916155984192, 0.18705549622033416, 0.1848148624379188, 0.18257945406527573, 0.18033076555816774, 0.17808309936631483, 0.17583058147858327, 0.17357725988330058, 0.17135665001155084, 0.16909885644736367, 0.16687947433983885, 0.16462191885434477, 0.16236900341941007, 0.160037930559357, 0.15780443664876426, 0.15563687112323898, 0.15339527439920198, 0.15115850249238713, 0.14894165610676513, 0.1467128687482424, 0.14449304767833146, 0.14227582743902514, 0.14006482684272697, 0.1378526015108698, 0.13565523705919946, 0.13347600238869697, 0.13128954247076494, 0.12911030937308607, 0.12695648833926862, 0.12478989122166784, 0.12265609000576015, 0.12050400285168032, 0.11836216632515908, 0.11621998834468318, 0.11409982395269083, 0.11203434955449562, 0.10992781842528611, 0.10783373031716505, 0.10576995284004997, 0.10369802033442274, 0.10162868948516016, 0.0995841873920279, 0.09755198384838043, 0.09551108590251062, 0.09350633299371952, 0.09156256517985153, 0.08957461727085989, 0.08760147190451, 0.08564605913472578, 0.08370195910091889, 0.08181783964909212, 0.0798978373255113, 0.07799534754147291, 0.07613115081044984, 0.07426030449471747, 0.07241207673078978, 0.07057663715068146, 0.06875914815600466, 0.0670000517678992, 0.06521295836106714, 0.06342929557320173, 0.06168391073864164, 0.0599570161148175, 0.05826211008778564, 0.056570439587854, 0.05491609621566851, 0.05326070216654749, 0.051625611174055785, 0.05004681408425811, 0.04844755935244209, 0.046945677021513865, 0.04538109863098507, 0.04384252882699703, 0.04234878911453533, 0.040857733508887634, 0.03938748375333785, 0.037947095788858465, 0.03653081249800661, 0.03517441949567155, 0.03380099138582253, 0.03245004563639266, 0.031127608270424413, 0.02982984718371273, 0.028543060056441968, 0.027295907884091437, 0.02611894189725313, 0.024913181154834166, 0.023733871186956242, 0.022567272558215768, 0.021442009617162458, 0.02040212642766816, 0.019319838725841833, 0.018266356508963005, 0.017203747280366683, 0.01621165157254691, 0.015296538281617818, 0.014349893360607715, 0.013432339483940726, 0.012597778900070609, 0.0117309882502573, 0.010838744405399657, 0.01004202978659215, 0.009272906743523717, 0.008594665461872514, 0.007873227939380037, 0.007145862265665177, 0.00649217184813863, 0.005867479479878352, 0.005288449003615515, 0.004720065986269401, 0.004233154738479827, 0.0037190763038477364, 0.003238336959497882, 0.0027575448818937024, 0.00234677076218594, 0.0020178261042201446, 0.0016621620570132726, 0.0013403640646760446, 0.0010281288422138, 0.0007764087977523602, 0.0006062305821265533, 0.00041221485240955347, 0.0002531451624962468, 0.00011523098644612665, 2.704071238038992e-05, 2.804929856373702e-05, 0.0, 8.706712021256888e-06, 1.9215899803990735e-05, 0.00010474354215872867, 0.000261750229127192, 0.00041042899636054513, 0.0005953444057553327, 0.0008223474008385191, 0.0010785412422001492, 0.0013799896655657632, 0.001707438986565398, 0.0020715204645875606, 0.0024917040929607905, 0.0029264039868192905, 0.0033325911746548927, 0.003850785724217786, 0.004402692939995118, 0.005053442488498959, 0.005666047054774421, 0.0062993372728472686, 0.006991554687963799, 0.007721290217575383, 0.008533741175984712, 0.009333126651633205, 0.010171394965820292, 0.011051510866437315, 0.011971516323839382, 0.012901224396843755, 0.013904479985673318, 0.014959208809370973, 0.016036863226396317, 0.01715365803286926, 0.018374333514440087, 0.01956155264769011, 0.020748278034304932, 0.022026810282767297, 0.02334526954152209, 0.024706744454665468, 0.026104934589611568, 0.027600617698205994, 0.029072411467482802, 0.03058795710855659, 0.032106306908029764, 0.03371346585896347, 0.03533263237662608, 0.0370246688095563, 0.038755931651150495, 0.04057638801580032, 0.04238088698632862, 0.044243427380112436, 0.04613192552397246, 0.04806406418775491, 0.050021612830900945, 0.05204277097742537, 0.05412111092463508, 0.056224710752706825, 0.058359368246872774, 0.060550584390071924, 0.06278408403562448, 0.06509449732712466, 0.06740836177015273, 0.0697185150942441, 0.07212701873484441, 0.07457679451986983, 0.07708309405940249, 0.07961414777105796, 0.08222999345997344, 0.08484115938254938, 0.08749744267313861, 0.090162445808294, 0.09291259879320407, 0.09570348139210941, 0.09853835303455342, 0.10141548641725238, 0.10435898270144034, 0.10731773462089655, 0.11034876780389845, 0.113391165952348, 0.11647853184949725, 0.11959995080349425, 0.12277744176089216, 0.12594261794780146, 0.12921353528767446, 0.13252422113032603, 0.13590198987403856, 0.13928951453570398, 0.14271144172476793, 0.146183660784452, 0.1496971796062794, 0.15328651736618182, 0.15687808267911454, 0.1604660714745262, 0.1641491892559726, 0.16787196303371174, 0.1716554610870084, 0.17545492295734755, 0.17933427760364576, 0.18321017787311722, 0.1871285970038012, 0.19105589918817514, 0.19506187369149358, 0.19910690814346424, 0.20319078828900872, 0.20731328801894378, 0.21150273031987746, 0.2156981329208752, 0.21989843605120168, 0.22417665629716474, 0.2284914231618601, 0.23285607247412418, 0.23724162038050112, 0.24162023529580084, 0.24608424780813068, 0.2505817334743872, 0.2551156687962358, 0.2596795800795959, 0.2642633659454774, 0.2688955990597166, 0.2735600479865081, 0.2782760957117198, 0.2830019840470593, 0.287786130576122, 0.2925737539634944, 0.2973946165800983, 0.3022194800191135, 0.30710841084578233, 0.3120374998930446, 0.3169839526844422, 0.3219597713152229, 0.32692833234987734, 0.3319657952613771, 0.3369838362129044, 0.34207806513217287, 0.34719482408439994, 0.35238972322788886, 0.35754440191518894, 0.3626748593516962, 0.36788589551290946, 0.3731181580019168, 0.3783533091166123, 0.3836293506675353, 0.3889395759547174, 0.39425171126020797, 0.3995831631660054, 0.40493639262859515, 0.4103044264514816, 0.415667659967636, 0.42107337535989814, 0.4264942203804891, 0.43193417701302184, 0.4373830867130684, 0.44284116599584794, 0.44831732723100615, 0.45380553425526743, 0.45930509629143557, 0.4648152966298129, 0.4703158534844799, 0.47584755951150726, 0.4813865250237622, 0.4869336123897166, 0.4924849491748373, 0.4979859867334494, 0.5035542454963452, 0.5091231799591731, 0.5147014607161542, 0.5202694848328567, 0.525811871294505, 0.5313823337020461, 0.5369499798271563, 0.5424782239908661, 0.5480432096644584, 0.5536031489422631, 0.55915445664107, 0.5646984404951655, 0.5702525842411097, 0.5757779121669427, 0.5812890682980922, 0.586797968637445, 0.5922966063716675, 0.5977690784975961, 0.603246452799983, 0.608713040118894, 0.6141616296722574, 0.6195949273166207, 0.6249729486210117, 0.6303778793663257, 0.6357580512101155, 0.6411224116223925, 0.6464649336749617, 0.6517834101996303, 0.6570802884971911, 0.6623094090580588, 0.6675626573563027, 0.6727876381590521, 0.6780033714557061, 0.6831677140890486, 0.6882565269811808, 0.6933680416617954, 0.6984462659075074, 0.7034891621455122, 0.7084993265342892, 0.713469813385019, 0.7184095146743099, 0.7233123540721557, 0.7281339914612742, 0.7329663379117126, 0.7377615317840412, 0.7425094851393074, 0.7472149645415002, 0.7519088753057146, 0.7565233825867231, 0.7610710155355068, 0.7656018793883073, 0.7700864960802997, 0.7745195171868713, 0.7789096748476713, 0.7832267129861552, 0.7875209279291601, 0.791763017740479, 0.7959613253720262, 0.8000959650820518, 0.8042039276300659, 0.8082268504796981, 0.812195896799893, 0.8161024940186925, 0.8199615924582716, 0.8237136905009315, 0.8274633477617857, 0.8311509947049691, 0.8347611061718837, 0.8383251205101797, 0.8418081717909591, 0.8452449638756554, 0.8486154512362988, 0.8519493101050752, 0.8551821827887524, 0.8583386364505321, 0.8614403128237468, 0.8644740411101584, 0.8674061157490646, 0.8703062225198195, 0.87312409582416, 0.8758817443666543, 0.8785663302565043, 0.8811745141211726, 0.8837123269269666, 0.8862194205725026, 0.8886027171459059, 0.8909133698157302, 0.8931280689650591, 0.8952940340044316, 0.8973763902664093, 0.8993906395366389, 0.9013274224791569, 0.9031607846370382, 0.904944670447861, 0.9066289296372245, 0.9082549407055999, 0.9097994031444425, 0.9112712898895083, 0.912651348014914, 0.9139095598912319, 0.915132042452303, 0.9163232194346567, 0.9173713466204437, 0.9183387335614062, 0.9191889403156599, 0.9199983443130875, 0.9207044287852804, 0.9213487512655848, 0.9219081959195496, 0.9224400282382867, 0.9228229037829889, 0.9231410111099259, 0.9233588205391329, 0.9234955653999108, 0.9234786846143196, 0.9234612616885366, 0.9233351329779873, 0.9231485896921956, 0.9228752907346288, 0.9225322591734223, 0.922084786574861, 0.9215272956358211, 0.9209143924242529, 0.9202161205922812, 0.9194840576450465, 0.9186099695901649, 0.9176141369487242, 0.9165828674356875, 0.9154682094696517, 0.9142795924756878, 0.9129982458081651, 0.9116292311472712, 0.9101856735997451, 0.9086608160746246, 0.9070174954057447, 0.9053360500556991, 0.9036040448521965, 0.9017551069167556, 0.8998272954960529, 0.897774467515901, 0.8956961858722124, 0.8936069810848787, 0.8913606977818043, 0.8890399606823175, 0.8865834136091315, 0.884122436912838, 0.8816100752574451, 0.8789929020111998, 0.8763020313262591, 0.8735170925368009, 0.870683524187458, 0.8677816516571303, 0.864802772200647, 0.8617530997534791, 0.8586515143859197, 0.8554605036946967, 0.8521466307979085, 0.8488288760828802, 0.845442203780652, 0.8419712863345997, 0.8384524605036049, 0.8348868623216856, 0.8312341958163183, 0.8275187924203395, 0.8237537123625813, 0.8199144120563079, 0.8159830659486114, 0.8120309212201354, 0.8080198065706911, 0.8040020450888609, 0.7998701506625305, 0.7956887456110372, 0.7914521890767093, 0.7871648283721621, 0.7827853792187621, 0.7784041860353582, 0.7739798702400561, 0.7694976997952152, 0.7649678019708193, 0.7603447469736567, 0.7557287945063225, 0.7510930657732979, 0.7463815702376256, 0.7416278064463078, 0.7367954386117218, 0.7319656144778254, 0.7271627670995144, 0.722244582142131, 0.7172925379992847, 0.7122398954989305, 0.707231435310271, 0.7022061745623966, 0.697127300620506, 0.692017649437266, 0.6868409641361597, 0.6816784649334258, 0.6765110581945907, 0.6712891869889368, 0.6660428323992865, 0.6607657816115056, 0.6554753059171547, 0.6501232070231628, 0.6447971147817484, 0.6394503409332765, 0.6341070514201267, 0.6287208624382836, 0.6233560290589073, 0.6179371244313463, 0.6125080824787422, 0.6070247724939702, 0.6015840756003421, 0.5960915801509896, 0.590638173704887, 0.585175439646692, 0.5797696837283925, 0.5742850593709796, 0.5687514427836854, 0.5632720870099652, 0.5577910885867643, 0.5523218528938315, 0.5468401509895998, 0.541360009549445, 0.5358858061489037, 0.530416927645356, 0.524941006185978, 0.5194879546839056, 0.5140188526281977, 0.5085860668256895, 0.503162351055603, 0.49778213912231545, 0.49237642417717986, 0.4869299665904566, 0.48156199987066867, 0.47620771124505706, 0.4708534695575827, 0.46553257879968474, 0.4602586095257832, 0.4549689839680759, 0.4497005431791242, 0.44444074743249656, 0.4392193307908868, 0.43404679308399746, 0.4288698265139594, 0.42371964967852377, 0.418607547675974, 0.4135119045096271, 0.40844291223937673, 0.4034076294084174, 0.39840317123485997, 0.3934031777588808, 0.3884658813178638, 0.3835629840225995, 0.3786889990922479, 0.37384835548165435, 0.3689877564220663, 0.36422306629201007, 0.35954817803634276, 0.35484280173703364, 0.350175584712288, 0.3455621252875433, 0.3409710154160718, 0.33634992704843003, 0.3318495082314127, 0.3273866279824728, 0.3229727950347546, 0.31858654920006224, 0.3142787628929162, 0.30997022765199317, 0.30570604083490444, 0.3014654688186472, 0.29729356992729083, 0.29317327663358367, 0.28908907321347826, 0.2850502865701846, 0.28106628752535645, 0.27711823060415675, 0.27318552939919105, 0.2693355340452627, 0.2655311296110681, 0.2617863037972507, 0.2580727050558715, 0.25438867029976614, 0.25077278728166574, 0.24720393233768337, 0.2436478627070174, 0.24017838838031194, 0.23682252204736973, 0.2334369194680447, 0.23010200266894185, 0.22677851092504958, 0.2235493841623253, 0.2203937974462411, 0.2172575688210961, 0.21417103987127345, 0.21109200346844742, 0.20810983630383492, 0.20520469696781146, 0.2023128541705774, 0.19947000744976437, 0.19666549232421904, 0.19392152767867962, 0.19119844181201365, 0.1885536705886228, 0.18603025163789663, 0.18346843051619255, 0.1809571078948993, 0.17847460855254235, 0.17606508509637536, 0.17371360354767196, 0.17139741251323704, 0.16912857902278453, 0.16683148048136884, 0.16466548518767202, 0.16255629443557393, 0.16047210170906948, 0.15843076823826774, 0.15642467478278285, 0.15446965334474552, 0.15260472441626194, 0.1507274275321048, 0.14889442849725065, 0.1470825334201326, 0.14533905354054913, 0.14364421323637727, 0.14198159110683514, 0.14035961929001453, 0.1387642365838171, 0.13722367113573225, 0.13569582223569243, 0.13423458325754653, 0.1328092670265787, 0.13148723597697454, 0.13012432410813501, 0.1287746053599123, 0.12749147504742683, 0.12624380349373807, 0.1249948400383229, 0.12382062798017819, 0.12272743961559975, 0.12160941231441619, 0.12052479317432925, 0.11941561517929038, 0.11840251877390384, 0.11745021747210735, 0.11648805710967056, 0.11555477093308149, 0.11463464804082601, 0.1137589722439209, 0.11289725904963681, 0.11207451671946649, 0.11127594434620164, 0.11052810156326885, 0.10977292889935285, 0.10900429792304686, 0.10830133698611451, 0.10761883124776273, 0.10699990994082186, 0.10635138267943677, 0.10570474000408875, 0.10510064357787097, 0.10451511509203215, 0.1039655023870672, 0.10341275787920019, 0.10284445365364346, 0.1023300794232027, 0.10182971478148073, 0.10133982494015464, 0.10086625870580825, 0.10042294153066603, 0.0999709706918568, 0.09953111979725966, 0.09911470088303576, 0.09869543782509617, 0.09828986277851183, 0.09789080007662025, 0.0975010433925328, 0.09713636224632109, 0.09676085185941959, 0.09637229837543114, 0.09601461608603153, 0.09566211705783124, 0.09535929786105152, 0.0950096744410566, 0.09462991787079819, 0.0942958092255172, 0.09396380556948257, 0.09363486985137039, 0.09330527507872995, 0.0929913099574433, 0.09266048633217597, 0.09233006788762688, 0.09200544483218892, 0.09167323435512814, 0.091336967678725, 0.09100243918910693, 0.09066552246295126, 0.0902881159905316, 0.08994963078095891, 0.08959462283021613, 0.08924530698510369, 0.08888905954036568, 0.08858138618838943, 0.08820388022105986, 0.08778758132064929, 0.08740538425828917, 0.0870158200674609, 0.08658555014598836, 0.08618462907000456, 0.08581426955302664, 0.08538816961029738, 0.08495429843470467, 0.08447319471770263, 0.0840276074598195, 0.08359803548491729, 0.08312693409599228, 0.0826462709416906, 0.08218734843670027, 0.08168278847529599, 0.08114412713142698, 0.08062522390526197, 0.08009542337468126, 0.07955453680429225, 0.07900238895587652, 0.07843430847007303, 0.0778597364452596, 0.07727320514059186, 0.07665057804549871, 0.07604292203965314, 0.07548185584607567, 0.07483965651973915, 0.07418755077641898, 0.07343797995045603, 0.0727760167537969, 0.07215690864706732, 0.07145646280565558, 0.07074442956372169, 0.0700462744790751, 0.06930759180818177, 0.06850594523036713, 0.06775298265487616, 0.06698630431305512, 0.06622122428029462, 0.06542604652605302, 0.0646383464037245, 0.06381669753523526, 0.0629843446134912, 0.0621502935710946, 0.061295380303983835, 0.060385215360718676, 0.059515685497906375, 0.058633486676864716, 0.057734525987977306, 0.05682879192074026, 0.05594891560808595, 0.05501539280145767, 0.05407305620973983, 0.05312047971327841, 0.052160963463434656, 0.051222922468361666, 0.05024259146616511, 0.04925570734777867, 0.04820360699529562, 0.04721096189851064, 0.04618444625276649, 0.045175766981616475, 0.044157023054141674, 0.04319206323970986, 0.04214730875613371, 0.04104844973100098, 0.040001064390910376, 0.03894661940643117, 0.037885672342374124, 0.03681875927140579, 0.03573437154424503, 0.03465858089537114, 0.0335776513699381, 0.03248012583891899, 0.03139212088520637, 0.0303615707736123, 0.029258022772644277, 0.028154933759303002, 0.026987719987260732, 0.02589392256523832, 0.024858863882125323, 0.0237521701656078, 0.02264737073330828, 0.021528050701864, 0.02042952517414044, 0.01935046331571507, 0.018252852880177906, 0.01715837938523871, 0.016037195619025668, 0.01495347257365991, 0.013895973028007895, 0.012814079243163358, 0.01173674676483548, 0.01066428459338971, 0.009597015280349386, 0.008503706005245094, 0.007451827207776247, 0.006404402255405645, 0.005416161178627588