0.020261991282275103, 0.01926004165631901, 0.018341510812935585, 0.017457502793881297, 0.016667959556044915, 0.01592556546066078, 0.01524233724101382, 0.014571477208935299, 0.013898966245365992, 0.013287084366988871, 0.012694843516852154, 0.012102940237915834, 0.011543899209733005, 0.01099100563554436, 0.010454595033908196, 0.00992727996027987, 0.009383901543420389, 0.008876480628869242, 0.00838134094260541, 0.00788720465688853, 0.007401029320514903, 0.006916553354833689, 0.006448984402742237, 0.005967772992759239, 0.005523208608906381, 0.005088750624149061, 0.004661452439690888, 0.004251184399381281, 0.003829642893102571, 0.003450298634318077, 0.0030824668552772135, 0.002733268236019881, 0.002400724320553365, 0.0020614570899737026, 0.0017689395662273005, 0.001484258132501332, 0.001231914473846178, 0.001000157131942243, 0.0008175123832928187, 0.0006269759692627313, 0.00044141514940099295, 0.0003051786241026674, 0.0001947491693471667, 7.271912307799308e-05, 2.126543508526741e-05, 0.0, 1.2345001403208534e-06, 3.077213899251713e-05, 6.0768534455241475e-05, 0.00015304873606270352, 0.00027442296676999736, 0.00042582619848799863, 0.0006081260163849569, 0.0007920647470200503, 0.0010423304442569432, 0.0013295447045791418, 0.0016429946775687607, 0.001989991781821017, 0.002356249972781407, 0.00277443877727378, 0.00323564651953912, 0.003723191813407273, 0.004247484331748001, 0.004774969926079744, 0.0053788883623017095, 0.006008474780028564, 0.006687808092177775, 0.007404744550389331, 0.008165584196197536, 0.00895949171010456, 0.009793681584453668, 0.010668826631467905, 0.01158557664409114, 0.012493997176263124, 0.013502225594767658, 0.014559266613858843, 0.01564868059724089, 0.016781101607430952, 0.01794641581748064, 0.019168652402326722, 0.020443829612807194, 0.021755317131306146, 0.023113580798168814, 0.02448512598165331, 0.02594325365513419, 0.027431793803439842, 0.028986509400404724, 0.030588849447347934, 0.03222607833645648, 0.03392813136069382, 0.03569333851082259, 0.03749352898438582, 0.03934569885703555, 0.04121909172544007, 0.04318119095487249, 0.04520500876372834, 0.04727104604480662, 0.049391403544626636, 0.05154760946669141, 0.05378097271440195, 0.056069458861740355, 0.058413781940840855, 0.060814608370490617, 0.06323566202707309, 0.06575598777769055, 0.06832976205199137, 0.07096360316749288, 0.07365501585004426, 0.07642792791616408, 0.07923357101484012, 0.08207813093794827, 0.08500844338793513, 0.08799896508660143, 0.09103786309344397, 0.09415171398968022, 0.09731268762033399, 0.10055028546484117, 0.10384873908497821, 0.10721943868359585, 0.11063953743675284, 0.11410181445791134, 0.1176500735379488, 0.12126025223131835, 0.12493402872044772, 0.12866875736171388, 0.13244713418954365, 0.13631000045254932, 0.14023484682829815, 0.1442396710218379, 0.14828687108478839, 0.1523702489412778, 0.15654785908736668, 0.16078728582826632, 0.165098195179635, 0.1694602918195007, 0.17384662060313827, 0.17833842443277326, 0.18289029221256659, 0.1875009721447203, 0.1921734156653566, 0.19690598761725583, 0.2016986199983546, 0.20655118762577837, 0.21145667890647352, 0.21642939567558236, 0.22146371570424148, 0.22655356320010211, 0.23170185872574905, 0.23689592418085334, 0.24216149582085084, 0.2474958729884677, 0.25287250977809494, 0.25830551381640293, 0.2637478408987159, 0.2692976885611884, 0.2748899080908014, 0.28054455401846307, 0.28624995399602715, 0.29200985849207095, 0.2978151286210684, 0.30367422568471547, 0.30957785056865517, 0.3155302179104669, 0.32150601289014547, 0.3275567866542201, 0.33364308643270635, 0.3397846188220159, 0.34596937623672436, 0.3522376844635026, 0.3585016295419438, 0.36476517400346553, 0.3711201406467348, 0.37751363679652256, 0.3839297961640645, 0.39039969964715066, 0.3969524681481204, 0.4034855332554489, 0.4100545448733076, 0.4166212538248496, 0.4232627718051711, 0.4299081452920007, 0.4366115296470339, 0.443341118943864, 0.45008915083659196, 0.4568691646853084, 0.4636747656304879, 0.47049909657330813, 0.4773442894922858, 0.4841873053953952, 0.49107342342713106, 0.49799192713917545, 0.5049068240640935, 0.5118363307276836, 0.5187640538348449, 0.5257205679706095, 0.5326894085958633, 0.5396634372073917, 0.5466445199206723, 0.5536134662387784, 0.5606065994116899, 0.567617826190533, 0.5746109079250964, 0.5816038302151613, 0.5885868161487625, 0.5955757067278009, 0.6025523605718611, 0.6095297469963723, 0.616498202647425, 0.6234315804339932, 0.6303806158220768, 0.6373241893880466, 0.6442405402266174, 0.6511395192853159, 0.6580113493075814, 0.6648718635270968, 0.6717001733043103, 0.6785150408257983, 0.6853035471858174, 0.6920887390990175, 0.6988167257108103, 0.7054739895617531, 0.7121458816039743, 0.718782092753759, 0.7253783977807337, 0.7319390805223301, 0.7384689149630937, 0.7449459928308099, 0.751380033883818, 0.7577898443405603, 0.7641301305403857, 0.7703878908227273, 0.776636800056267, 0.7828029082742229, 0.7889485841425465, 0.795036689666337, 0.8010918322856897, 0.8070573959511166, 0.8129312155466623, 0.8187784499886246, 0.8245602477252866, 0.8302697145034498, 0.8359170178632944, 0.8415106122712711, 0.8470141693290844, 0.8524456055183954, 0.8577841631338542, 0.8630689054406739, 0.8682427928661047, 0.8733741164308265, 0.8784226263129877, 0.8834376818008944, 0.8883105189144233, 0.89307916438544, 0.8977855089700254, 0.9024036437727272, 0.9069088660439552, 0.9113491197995959, 0.9157036861450363, 0.9199538863547702, 0.9241081685358576, 0.9281761490512636, 0.9321332726635106, 0.9359720405774586, 0.9397317685777562, 0.9433884897479629, 0.9469451443688142, 0.9503918645653419, 0.9536995623481308, 0.9569368266435082, 0.9600637359943022, 0.9631081406795443, 0.9660081567928435, 0.9687531294490138, 0.9714349596738346, 0.9740008726783163, 0.9764884592910883, 0.9788156667689845, 0.9810147581341896, 0.9831108917361647, 0.9850885690747109, 0.9869387782214619, 0.9886781733970977, 0.9902758081944391, 0.9917746210310333, 0.9931497436713016, 0.9943925416345248, 0.9955200245447975, 0.9965220808564383, 0.9973983763695445, 0.9981485863953432, 0.9987874320385669, 0.999282651461669, 0.9996271462340128, 0.9998728492123526, 0.9999903337874857, 1.0, 0.9998581740459018, 0.9995576007200782, 0.9991649107536796, 0.9986427699848525, 0.9980131777236654, 0.9972297842508098, 0.9963158773265162, 0.9952772759870857, 0.994110798874804, 0.9928001634891976, 0.991380400626508, 0.9898159178826549, 0.988141961843078, 0.9863395394381682, 0.9844283431359625, 0.982368261399411, 0.980168842499437, 0.9778596007161126, 0.9754248693156109, 0.9728488937223595, 0.9701672184105928, 0.967388483432197, 0.9644554312315166, 0.9614012621167853, 0.9582143527880467, 0.954921581180082, 0.9515269389474841, 0.9479935635435384, 0.944343413795355, 0.9405732307234731, 0.9366926257593446, 0.9326703626444275, 0.9285655890946077, 0.9243470544699163, 0.9200229265981708, 0.9155800255598929, 0.9110605983917157, 0.9063962322995824, 0.9016270732754945, 0.8967214463839291, 0.8917502815032631, 0.886714301081981, 0.8815336995807819, 0.8762553120988588, 0.870859937559206, 0.865392525101408, 0.8598083832202589, 0.8541556434195822, 0.8484101140265353, 0.8426037328473471, 0.8366744474614773, 0.8306515022641512, 0.8245539923678384, 0.8183739220245652, 0.8121417971011491, 0.8057984279824985, 0.7993700527673553, 0.7928786774069517, 0.7863147088088591, 0.7796649628634892, 0.772963293657908, 0.7661883819808384, 0.7593539316243002, 0.7524555751104927, 0.7455255357119904, 0.7385020492766693, 0.7314201162333248, 0.7242874970380478, 0.7171029484505917, 0.7098862849443701, 0.7026018084393869, 0.6952548719411089, 0.6878852476514334, 0.6804739624151763, 0.6730628658363682, 0.6655699181394891, 0.6580073385453958, 0.6504555362423088, 0.642872874838415, 0.6353013282057476, 0.6276589686512145, 0.620007314314032, 0.6123222472780205, 0.6046203909078438, 0.5968846293625895, 0.5891577089434857, 0.5814204723847919, 0.5736723038066988, 0.5659171205308309, 0.5581339888610595, 0.5503746177328194, 0.5426657766978267, 0.5348995386550375, 0.5271397960172584, 0.5193721910548451, 0.5116336686642712, 0.5039247002405217, 0.4962097595362272, 0.4885121093041231, 0.4808188262788443, 0.4731640008835803, 0.4655237911586833, 0.457917896389507, 0.4503388721846004, 0.44280952363538334, 0.43528854421551016, 0.4278024370310148, 0.4203532758995916, 0.4129431316571644, 0.4055740696638418, 0.3982481474741581, 0.3909865453629732, 0.3837506146120626, 0.37656500262141424, 0.3694274621044409, 0.362348565583152, 0.35530208504748406, 0.3483393039273441, 0.341434617404364, 0.3346132994728176, 0.32782794955267636, 0.32109843773018426, 0.31444684294301406, 0.30786357336161174, 0.3013791078937519, 0.29493417049692744, 0.2885329874805291, 0.2822438559424828, 0.27603106041769704, 0.2698894684131249, 0.26383526896214426, 0.2578688317926825, 0.2519772571231905, 0.24617020728967492, 0.24047376042704302, 0.23483704657560686, 0.22926595449496712, 0.2238139521724139, 0.218461292426863, 0.21319186085543548, 0.2080166300060145, 0.2029217313854371, 0.19794025825821462, 0.19306372208472444, 0.18827585783214226, 0.18358747913222873, 0.17903921589333155, 0.17454774727568598, 0.1701485509132289, 0.16586832873393267, 0.16169307908232913, 0.15759473686377867, 0.15363493843261924, 0.1497775957657656, 0.14602930683503282, 0.14238756673921424, 0.13886673356260043, 0.13543837995066849, 0.13212060890604846, 0.12891092349006128, 0.12581130730394532, 0.12284667420020019, 0.11996498979331062, 0.11719421068837063, 0.11453723741649664, 0.11199243162176935, 0.10952149732211466, 0.10720574947677877, 0.10503675675093863, 0.10293625793705884, 0.10094802282201394, 0.09904995938686648, 0.09728831240770577, 0.095609612845119, 0.09407184928104684, 0.09264251562143937, 0.09137762807510129, 0.09015794722259099, 0.08904546796999205, 0.08804822241593792, 0.08716066527431159, 0.08634795350780733, 0.08568204026528978, 0.0851218035661827, 0.08466677547125634, 0.08431642939467812, 0.08406471577004059, 0.08392262114003825, 0.08390212364562775, 0.08396184208590973, 0.08412365085684036, 0.08436336041464877, 0.08472938518806596, 0.08519459893623695, 0.08575523247519537, 0.08641198491767339, 0.0871693434118523, 0.08801465688445799, 0.08894921740043787, 0.08998058301697032, 0.09110270911181004, 0.09231303068403987, 0.09361321745146833, 0.09498808102498046, 0.09646247898600001, 0.09802053477429123, 0.09968558140645353, 0.10140400008412856, 0.10317073000263079, 0.10505392701496605, 0.10701320322927858, 0.10909640658349268, 0.11119752431033017, 0.11335826551202609, 0.11560872383320932, 0.11792926193349249, 0.12029765146561221, 0.1227557470536022, 0.12528166406598742, 0.1278650990051721, 0.13050928690926755, 0.13321528884522624, 0.13597560059019353, 0.13878081059642564, 0.14165241696295497, 0.14457572733287463, 0.14756408651569167, 0.1505838179203028, 0.15366326781461345, 0.1567744123961751, 0.15992992571224493, 0.16309777124954195, 0.16633992214688334, 0.1696052088506772, 0.1729209940119544, 0.17626939802370623, 0.17966792641716717, 0.18307423794091993, 0.1865079084675599, 0.18996998439757382, 0.19345698934765163, 0.196962974575988, 0.2004948093504489, 0.20405536407990402, 0.20762248425637714, 0.2112056696674036, 0.2147961981444762, 0.2184067224396413, 0.2220286633075724, 0.2256573167844823, 0.22929250712940438, 0.232921505733121, 0.23656577474565715, 0.24020104333326225, 0.2438459772014069, 0.24748758830076484, 0.25114204737899365, 0.2547699761655768, 0.2583784826203221, 0.2619919768166104, 0.26559419007852797, 0.2691794185843429, 0.2727547854942971, 0.276319324702827, 0.2798598729964145, 0.28338136527829355, 0.2868713064498008, 0.29035140098143963, 0.29381949523077994, 0.2972480188457082, 0.30065011111426937, 0.3040434125576854, 0.307385773143468, 0.3106423482972797, 0.3139307199804798, 0.3171831092519891, 0.3204121593109499, 0.3235877749020422, 0.32673464076898745, 0.32983125847816275, 0.33288779810342356, 0.33587435661927384, 0.3388507834774034, 0.34177789102123796, 0.3446635067494752, 0.3475018920702874, 0.3503249922916642, 0.35306221207415955, 0.35574466047385556, 0.35838576884397766, 0.36097640258413255, 0.36349510729672885, 0.3659845548358802, 0.36842098820216207, 0.37080082071442777, 0.3731250039937325, 0.37536418166988467, 0.3775787441643959, 0.37974370603311547, 0.3818383662345216, 0.38387367530979666, 0.38581229590186594, 0.3877322655836719, 0.3896387383044027, 0.3914270021140371, 0.3931551250802453, 0.39477612329445955, 0.3963883250048962, 0.39795411357499383, 0.39943569034210813, 0.4008540389451458, 0.4021802903895297, 0.40347532116656476, 0.40474742962356336, 0.4059066539933074, 0.40700321448609655, 0.40799179266036373, 0.4089681127220946, 0.40990057858684564, 0.41074296920525666, 0.4115214152142909, 0.4122524142421251, 0.412901218162653, 0.413442272720447, 0.4139715230678319, 0.41443572772578435, 0.4148558811234555, 0.4151888844272138, 0.4154225717389337, 0.4156357346699332, 0.41578509249832024, 0.41586175522350105, 0.4158867303252699, 0.41587122889153605, 0.41576948531940167, 0.41560807770387603, 0.41538344396219684, 0.41510485814367387, 0.4147721467201744, 0.4143772191137752, 0.41392556719499984, 0.4133986856789533, 0.41283790780025004, 0.41220624556053564, 0.4115365107848655, 0.4108377398268763, 0.4100556907545491, 0.4092220327715055, 0.40834161353187165, 0.40740648444421684, 0.40642501793189195, 0.40539218083039885, 0.4043120088756246, 0.40316890789956644, 0.4019985809905616, 0.4007783900122444, 0.39951806293953807, 0.3982137668904465, 0.39688568896390486, 0.3954942015469452, 0.3940356575461637, 0.3925690870119249, 0.3910631001943507, 0.38952160376332423, 0.3879399516906501, 0.386291103729917, 0.38464303105076275, 0.3829596939470754, 0.38125887397669783, 0.37950704871971214, 0.37772493254361766, 0.375913688892199, 0.3740744744419351, 0.37221937290065094, 0.3703262815945863, 0.36840243721779903, 0.36646341878934124, 0.3645022017054406, 0.3624816376513779, 0.3604842108646798, 0.3584808167835497, 0.35644090826027996, 0.35438364120374505, 0.35233346905885055, 0.3502421914150889, 0.34813163358340926, 0.3460173072175275, 0.34389212111077744, 0.3417557593060226, 0.3396121767317476, 0.33745670390659793, 0.3352991133024526, 0.3331356058735974, 0.3309426590183921, 0.32877364740552334, 0.32662513585273123, 0.32444605847295727, 0.3222667124216583, 0.3200306758568557, 0.31786097108769107, 0.31573578138815345, 0.3135606221517901, 0.3113901730860049, 0.30922809192160117, 0.30706947940116397, 0.3049116354790366, 0.30276995689423625, 0.30063721983749275, 0.29848562643358745, 0.29637708639681354, 0.29429902591658563, 0.29220893249521485, 0.2901320791903575, 0.288032390189919, 0.28598913023237615, 0.2839731118668224, 0.2819563321472667, 0.27995595238514037, 0.27797554283675013, 0.276010092112407, 0.27404583243288, 0.272121253187095, 0.27021602705106323, 0.26836238324670747, 0.26649423549676815, 0.2646357984374897, 0.26281655036413615, 0.26102074193542185, 0.25923932094734053, 0.25749312154904114, 0.2557617346943587, 0.254066027824729, 0.25239518239820624, 0.25074973958144947, 0.24913020207136705, 0.24753840255600182, 0.24597186613277297, 0.24443260663078437, 0.24295377770727708, 0.2414659602790685, 0.23995084033435538, 0.238530477499111, 0.23713700778401045, 0.23579414124502143, 0.23445289718863183, 0.23313701919541, 0.23185535931207923, 0.23060318041778866, 0.22937513791979008, 0.22818295190237362, 0.2270284285335529, 0.22589422215219723, 0.22479009087167962, 0.2236818368665546, 0.22264205976637613, 0.22167675234350231, 0.22068729643181628, 0.21972877449692063, 0.21878996649309265, 0.21789383468680787, 0.21701759751790634, 0.21618139687767227, 0.21537370571301884, 0.2145889060439045, 0.21383844677604105, 0.21309926599180923, 0.21240605985389827, 0.21173923214604695, 0.21109731964932363, 0.21048309115230626, 0.20990022187496904, 0.2093368881767445, 0.20879932060474532, 0.20828720931600803, 0.20780022006155774, 0.20729973026415632, 0.20686672975981146, 0.2064555680620731, 0.20609483294364858, 0.20572333030224838, 0.20537204620024144, 0.20504629605898733, 0.20474233672554734, 0.20443506673264614, 0.20417627704821287, 0.2039636784806731, 0.20373880354385487, 0.2035335909852305, 0.20336517065892235, 0.20319512527846284, 0.20301785702797379, 0.2028877938133568, 0.20277345842500036, 0.20266473594814152, 0.20258140656128149, 0.20249518381702106, 0.20244043154491503, 0.20239722832217463, 0.20234329419230487, 0.20232467922788935, 0.20233554955072525, 0.20233198904507743, 0.20233786869531492, 0.20235671279493525, 0.2023792123597432, 0.20242737762748808, 0.2024627818705465, 0.20250578075376194, 0.20252824120544277, 0.20258749773835014, 0.20265045606114143, 0.20271657699547765, 0.2027853068288152, 0.20283558014309055, 0.20291041075095662, 0.20301640404091087, 0.20308629403218023, 0.20315679822817576, 0.20318892347407844, 0.203263322975501, 0.20336000798647846, 0.2034233800514704, 0.20348373513131607, 0.20354863168280224, 0.20359999909205456, 0.20361957455166507, 0.20366479350605793, 0.20370266515143154, 0.20374232297247116, 0.20376298049661165, 0.2037877967647183, 0.20379008057448073, 0.2037838447676767, 0.20374523156930738, 0.20372303701619643, 0.20369603229732874, 0.20364930391286082, 0.20359054353260203, 0.203541169752478, 0.2034542439562913, 0.2033032562700527, 0.2031980308451339, 0.20307658008201698, 0.20298250574980917, 0.2028226600314611, 0.20265678230134648, 0.20246689189770412, 0.20223893813289928, 0.20202177120266937, 0.20178740042535367, 0.2015177631655481, 0.20125034981450202, 0.20097070534878578, 0.20066417357084212, 0.20033870169087759, 0.19999409643334834, 0.1996301683669862, 0.19926313258841116, 0.19885793868765778, 0.19843380920937445, 0.19797678365731905, 0.1975156534286274, 0.19703401312413998, 0.19653175203226256, 0.1960087688495387, 0.19547453867045778, 0.19490863872387984, 0.19429771320745073, 0.19369393589860387, 0.19306810358938686, 0.19242988793502513, 0.19175904788141723, 0.1910451290913131, 0.19033464927013083, 0.18960178231356542, 0.18883991328993874, 0.18806377988743903, 0.18728190041521997, 0.18645965103526405, 0.1856166629795368, 0.18474483463584168, 0.1838617108827765, 0.18298231405542845, 0.18205453299330945, 0.1811076588258179, 0.18010070134720144, 0.17912088005933835, 0.17812251228672457, 0.17710020997584303, 0.1760576142409896, 0.17501286566164848, 0.17392855320258804, 0.17281921526870814, 0.17169959783151095, 0.17056185198479218, 0.16940627976229455, 0.16823319153337057, 0.167038806455635, 0.1658321705155307, 0.1646087723603151, 0.16332935908361434, 0.1620785895626351, 0.16084688485872423, 0.15955649602435262, 0.15825173842967902, 0.1569247669970673, 0.15559338376973303, 0.1542236697994409, 0.15286838699558963, 0.15149890096882626, 0.15013090043448202, 0.14873305354556726, 0.14730052069757416, 0.14588318297265912, 0.14445404599252856, 0.14303564324336576, 0.14158212458162614, 0.1401063092165025, 0.13863769308395954, 0.1371605583857066, 0.13569596495976446, 0.13420087653986554, 0.13267821765337778, 0.13117486435160042, 0.1296653552411557, 0.12814754454691468, 0.12662782410046566, 0.1251076345437931, 0.12357884678768376, 0.1220468901491157, 0.12051640539252352, 0.11897921304965488, 0.11745163099680908, 0.11591091285768622, 0.11437049178877967, 0.11284035270420809, 0.11130058474326918, 0.1097561102649768, 0.10822183525098718, 0.10669007329758896, 0.10516402286737003, 0.10363834450304862, 0.10209078339367346, 0.10057701578686236, 0.09906680388636621, 0.09756082987020412, 0.09605975404778015, 0.09459154868424698, 0.09309871401030906, 0.09161417510428611, 0.09010686611937747, 0.08864400336915108, 0.08720246964827001, 0.08575385211418923, 0.0843149341141647, 0.08285887207185066, 0.08144426673156278, 0.08007206632842076, 0.07867320876507508, 0.0772871273428312, 0.07591553855356459, 0.07455588811312659, 0.07322244433898789, 0.07188939461742051, 0.07057162605543817, 0.06924751554269971, 0.06796381315440259, 0.06669355691243208, 0.06544009777743408, 0.0642022478348684, 0.06298589650910905, 0.06177982551557862, 0.06058132220650376, 0.05941105801007926, 0.05825803920292054, 0.057118551513726835, 0.05600167861691664, 0.054912484945239405, 0.053830989280837654, 0.05276884358693484, 0.051703056888721156, 0.050683262869928865, 0.04967810857161483, 0.04869670895324632, 0.04773457872802468, 0.04679618208641758, 0.045873131548271176, 0.044977407671041886, 0.04409471711692571, 0.04323335384143783, 0.04239345430119405, 0.041575140952566585, 0.040764856491354286, 0.03999175689045448, 0.039239763900927954, 0.038496758044107245, 0.03778904771872547, 0.03711588392212965, 0.03644841210793878, 0.035802965288661504, 0.03519734027108639, 0.03459377400893377, 0.03401190992207914, 0.03345449787535226, 0.032919769902466665, 0.03239392203653549, 0.03190587738977957, 0.031436604164256775, 0.03099188562229537, 0.030568445211935934, 0.03015394605689577, 0.029774487997422446, 0.029418188561226855, 0.02907924821753692, 0.02876088454668283, 0.028460302378262643, 0.028183230920858806, 0.02792360224564376, 0.02768712946473282, 0.027470461357399386, 0.02726664900347099, 0.027090086378235165, 0.02693527102716509, 0.026796272929399463, 0.026676182958990362, 0.02657344954802049, 0.02649077646245712, 0.02643726220343778, 0.026389436252909373, 0.026359989948749538, 0.026356783499729874, 0.026362039059952345, 0.02635231040566888, 0.026396929775469046, 0.02645670362105154, 0.026551992468212163, 0.026639038244337682, 0.026745988383004442, 0.02686374190911434, 0.026996762719525676, 0.02715419821141233, 0.027315289774495485, 0.027484102771037296, 0.027674677893915745, 0.02787845608485518, 0.02808955695476147, 0.02831919244582917, 0.02858508652509606, 0.028834565053848318, 0.029071748676788915, 0.02934837379622197, 0.02963479890833525, 0.02996622074788559, 0.030266739365490982, 0.03055889053417012, 0.030882716188950107, 0.031214977854199955, 0.03155250970481018, 0.03190069610976636, 0.032254514909474334, 0.03261647467190934, 0.03298456260182275, 0.03334062761515732, 0.033722062263026875, 0.03410337076524148, 0.0344930268751076, 0.034885919758279184, 0.03526403747698724, 0.03566489380468143, 0.03606856466493393, 0.036471990706658255, 0.03687660394461413, 0.03729174825238884, 0.03769683609601247, 0.03810154817173159, 0.03850843063407525, 0.03891550184770932, 0.0393073700209158, 0.03971563778991836, 0.04012352737806323, 0.04052788391290772, 0.04093005821470326, 0.0413352264395634, 0.04173146367695549, 0.04212082511671433, 0.04251166866610809, 0.04289878599956677, 0.04331601670487111, 0.04369038219662556, 0.04405785669044575, 0.04442655542151645, 0.04479106264730153, 0.04515497678208054, 0.045509105016141964, 0.04585784601513806, 0.04620074070992548, 0.046537356248878954, 0.04686181781316028, 0.04718536410494873, 0.04746563460083715, 0.04777788596508431, 0.048079812560271676, 0.04839875816323787, 0.04867659034089079, 0.04894149927287595, 0.04920193375577981, 0.04945278846896586, 0.04970615092844295, 0.04993566246321639, 0.05013517209754536, 0.05034798257713134, 0.05054958477172393, 0.05075902767038592, 0.05093554086557882, 0.05111259559381196, 0.05126670244660712, 0.05141056893508569, 0.051508372497314193, 0.05163540802445864, 0.05177402066216405, 0.051871977165046136, 0.051958430576463564, 0.05201410338511232, 0.0520795511713793, 0.05214843430734698, 0.0521859352735751, 0.052211497088077, 0.05221000102037671, 0.052213341104312035, 0.05220231434073619, 0.052179900955900145, 0.05214455615192426, 0.05212095955095144, 0.05205688095386575, 0.05194322209064314, 0.0518612308236819, 0.05176556014132856, 0.05165234498299435, 0.05153052176459045, 0.05142277874306947, 0.05127122054073167, 0.051108380439345714, 0.05094790424028864, 0.050760728715762406, 0.05053022971459594, 0.05032607141497863, 0.0501094152417034, 0.049868199651170085, 0.04962880867263785, 0.04939058644955036, 0.04912478892243318, 0.04884787676034122, 0.04857095831893979, 0.048270962138371835, 0.047954162672978765, 0.0476351832781228, 0.047306050336380946, 0.047005204096417674, 0.04665145637648835, 0.04625061259342541, 0.0458868320680542, 0.045513175940499605, 0.045117631381412296, 0.04472663628504024, 0.04430952734482634, 0.04390155478789288, 0.043483689325864126, 0.043048214754072445, 0.04261302353860419, 0.04216885101848724, 0.041716173430225274, 0.04125543961162744, 0.040789807254752494, 0.040313867124517545, 0.039855834319164875, 0.03936374535842739, 0.038867023312367445, 0.03836715995749344, 0.03786139014463185, 0.03734601900683462, 0.0368328287407746, 0.036315526917626476, 0.03580117540905005, 0.035275479220925526, 0.03475085984044006, 0.034218790875804726, 0.03368432425760832, 0.033133975258057606, 0.032596999457352345, 0.03207247634834213, 0.031528768422599024, 0.030983978072074505, 0.030436939683365992, 0.02989077207532027, 0.029346815639792863, 0.028799501813521734, 0.02825231305023865, 0.027715049784322734, 0.027167611628279662, 0.02659969385401966, 0.02605797001263961, 0.025516773599302586, 0.025001083059794774, 0.02445895811736483, 0.023881581108574114, 0.023350470809418402, 0.022820541086684853, 0.022322342955434952, 0.02179240225962618, 0.021273540134908488, 0.020751395615602467, 0.020234227319987443, 0.019713966280060106, 0.019208192579160243, 0.01869916511594726, 0.018204550884857573, 0.017714884000547933, 0.017246859899374276, 0.016765892891217153, 0.016249288607286156, 0.015787270694838883, 0.015329884129163203, 0.01487351997529087, 0.014427349798169188, 0.013996510584298266, 0.013561080280552508, 0.013132758422383442, 0.012741889914623775, 0.012324802906707373, 0.01189406287519725, 0.011499058353341397, 0.011112316693709956, 0.010710806450000263, 0.01034411935136699, 0.010032791306049841, 0.009675465605839805, 0.009329027234319193, 0.00897015011295395, 0.008648162995514205, 0.008309569944979259, 0.008009730994635873, 0.0077180754522873495, 0.0074472371701140615, 0.007171360881014514, 0.00690799135189746, 0.006651454430286834, 0.006405105107761584, 0.006167663454104939, 0.005942111708724283, 0.005729633308831859, 0.005524484106198156, 0.005329953951480526, 0.005151535281807998, 0.004977623480601609, 0.0048201626994313134, 0.0046674920703016496, 0.004517839089723371, 0.004388557891869107, 0.004269873974201464, 0.004172711645538437, 0.0040738083788793, 0.003969673686769352, 0.0038950665062879477, 0.0038304854348938824, 0.0037800582778847497, 0.0037350818523459494, 0.003678541118433148, 0.003656890370363925, 0.003644222629192782, 0.003642024047007608, 0.0036474795198673106, 0.0036991685237916638, 0.0037186578869432252, 0.003749591417974682, 0.00374246408395223, 0.0038016052822405525, 0.003912296243004831, 0.0039816837456706534, 0.004061587062293642, 0.0041230267462665305, 0.0042267625497971004, 0.004360467233008255, 0.004477630611474275, 0.004604077215916319, 0.0047095145267317855, 0.004857653448172113, 0.0050304882721777765, 0.005190268486264332, 0.005358004307993197, 0.005515762961157382, 0.005701151130153405, 0.005917582164760015, 0.006112709513541085, 0.006315563183384314, 0.00654909817070482, 0.006763640972728926, 0.00695496793532505, 0.007189470793265302, 0.007429559707111665, 0.00770789157282055, 0.007954570672312778, 0.008205490992691244, 0.00846603397896171, 0.008732562495430855, 0.009010183167136492, 0.009286930039614826, 0.00959080776140335, 0.009874964736855934, 0.010164921953047426, 0.01042875110859563, 0.010732831156506325, 0.011066896908566014, 0.011372682556525179, 0.011682359818419598, 0.011983254030476637, 0.012301166836917886, 0.01263488691910536, 0.012955138213932212, 0.013277869704048722, 0.01358772972371468, 0.013916381885474827, 0.014248493907449923, 0.014578098980708231, 0.014908270904603624, 0.01523609256315606, 0.015567191554119009, 0.015943249078025287, 0.01626820270594883, 0.01659521745299534, 0.01690599556823076, 0.017237826300254944, 0.017588382342584485, 0.017916706403882043, 0.018245164939315196, 0.018591123728099908, 0.01891643463075426, 0.019218532329246866, 0.01954635920590146, 0.019872021479145206, 0.02018712241038439, 0.0205089105846837, 0.020860309119432936, 0.0211714678426623, 0.02148106668371138, 0.021825633177073856, 0.02212636546272418, 0.022425221930461776, 0.022724528686578455, 0.023022150609473147, 0.02332720114211724, 0.023618933708264442, 0.02389053444093097, 0.024179383736871302, 0.024464119319533347, 0.024774637383983365, 0.025046854835920278, 0.025323025737629658, 0.025588260270564878, 0.025850323120537085, 0.026076084135332328, 0.026334999001246064, 0.02661809583059573, 0.02686148897466334, 0.027100777937630587, 0.027335764444486925, 0.02756627854458867, 0.02779354246056513, 0.028014528820976024, 0.028230753189200503, 0.02845988888833802, 0.028664083218965943, 0.02885745481612153, 0.029054348452713808, 0.029246529617825142, 0.029473559703675555, 0.02965111241817116, 0.029806888122579717, 0.029981234374774512, 0.030151242695602806, 0.030325032356635286, 0.030485111768383106, 0.030638411553833147, 0.030790665548608674, 0.030938590001224328, 0.031097212307466152, 0.03123457989650622, 0.03137943403209493, 0.03150845258663275, 0.03163451987059248, 0.03175343019052359, 0.03187383076255061, 0.031997667120716285, 0.032110431439212606, 0.03222024833471342, 0.0323161936497168, 0.03242154891808981, 0.03253847352132061, 0.03263516443781631, 0.03272956929308209, 0.03286684267552916, 0.03295116284939387, 0.033005892044970085, 0.03309471398346894, 0.03318188595663464, 0.03327571568092388, 0.03335889434971778, 0.03345356295124704, 0.03353366174295662, 0.03361385243170086, 0.03366820706631139, 0.03375200806959638, 0.03383737747691618, 0.03391883090914948, 0.033999923953103195, 0.03408642039229215, 0.03416699227491671, 0.034266165095661646, 0.034346410458169385, 0.034428992127723254, 0.03452359194394202, 0.03461000445275361, 0.03467099924472674, 0.03476769895800156, 0.03486628617366938, 0.03498763393588962, 0.03508851691851547, 0.035190800623160504, 0.03530048212415013, 0.03541452789338897, 0.035546837020116615, 0.03566859034618994, 0.03581669670775859, 0.03594771087020665, 0.03608603909118708, 0.0361934332866424, 0.036351315339619536, 0.03654321841962539, 0.036708537374001184, 0.03688161936742892, 0.037061264343686465, 0.03725056261970947, 0.03746723074697657, 0.0376708091734239, 0.03788415907419102, 0.03807867268659282, 0.03831549487324917, 0.03859636169789886, 0.038846110517281485, 0.03910714429138376, 0.03935768617614075, 0.03964434795258164, 0.03995097672338061, 0.04025756486679649, 0.04057575567329857, 0.04089349891414651, 0.041237203169022886, 0.04159668149022838, 0.04196357562327841, 0.04235674955395095, 0.04274744954439916, 0.04315213769034744, 0.04352863430373111, 0.04396721953329947, 0.04443712629008755, 0.04489821528775299, 0.045373618769387246, 0.04587048747517795, 0.04637459548949438, 0.04690524786719367, 0.04743942106458452, 0.04799026411629165, 0.048545605129352826, 0.04913173218731266, 0.04975337181500426, 0.05037008125877389, 0.051004718410363, 0.05168741859492311, 0.05235432941328976, 0.05302196172454142, 0.05373085486180599, 0.05445827425245045, 0.055201563152901194, 0.055966618946685816, 0.05676806795484896, 0.05756825191483292, 0.05838830187164275, 0.0591981315278429, 0.06006166999352761, 0.0609338075432397, 0.061835151047605175, 0.06275463227361118, 0.06372261905387064, 0.06467545317536201, 0.06563800444148472, 0.0666335034126482, 0.06764901061585904, 0.06870647476743694, 0.06975947552409292, 0.07079567443628414, 0.0718963264911963, 0.07301608118821212, 0.07417429128618866, 0.07533046428720237, 0.07651285772004626, 0.07770983458361878, 0.07892784240096037, 0.08018868183332595, 0.08144579190812151, 0.08269490004987261, 0.08399969744459534, 0.08532440828069361, 0.08667863627996031, 0.08804206128269257, 0.08944786926003725, 0.09084948005912462, 0.09227266367833997, 0.09371851882736457, 0.09518388854575559, 0.09663462035299146, 0.09814603558509623, 0.09967589131616689, 0.10121469184012509, 0.10278282181260931, 0.10437035110339235, 0.1059744417326468, 0.10759674497861749, 0.10924682083208372, 0.11090429377110966, 0.11256948516258537, 0.11426548451359332, 0.11597919196421469, 0.11773921170157922, 0.11948440031512457, 0.1212471922329775, 0.12303010666669822, 0.12483115169917457, 0.12663083924558238, 0.12846950483838446, 0.1303146130709132, 0.1321863205024605, 0.1340731127743776, 0.13601721539348802, 0.13792837826921062, 0.13981551718810722, 0.14176526730739494, 0.14372862315392426, 0.1456944796994709, 0.14768589029835463, 0.14972114235229078, 0.15173324961305784, 0.15375920606370133, 0.15578079002860865, 0.15783533126272573, 0.1599041109621463, 0.16198102224897007, 0.16406898897957342, 0.16616083512868343, 0.16827073889040373, 0.1703902592948287, 0.17251908284969408, 0.17465688174314536, 0.1768224476556063, 0.17897474311054978, 0.18111143025442142, 0.1832842893128328, 0.18546371162529662, 0.18764665137610273, 0.1898385909262086, 0.19204415243396614, 0.1942455620873126, 0.19645216317158545, 0.19864712268568135, 0.20086487454971969, 0.20310881516319726, 0.20532922704809628, 0.2075532491352288, 0.20974344308023754, 0.2119777388869868, 0.2142461406127861, 0.2164757733481386, 0.21870678409474276, 0.22090171545421278, 0.22313847998084899, 0.22536606718184923, 0.2275987683252256, 0.2298282336624496, 0.2320583214841114, 0.23428004088128962, 0.23647470680425428, 0.23869136286115733, 0.24090215807864993, 0.24310278602283167, 0.24530172082050566, 0.24751023631453356, 0.24969318631680779, 0.2518696601084085, 0.25404602837967577, 0.2562072916275809, 0.2583651553452376, 0.26051036736941596, 0.2626472456647929, 0.2647656646752973, 0.26688541586236925, 0.26901104355258293, 0.27110721825363865, 0.2731928747938359, 0.2752277903948982, 0.2772956654893255, 0.27935180722852293, 0.2813901776430672, 0.28341375721251144, 0.28543044923159266, 0.2874225039853766, 0.28937059076239485, 0.2913353291722962, 0.2932823713306233, 0.2952306693160205, 0.29713932885441624, 0.2990334731915113, 0.30090687872897376, 0.3027623660201054, 0.304591302533391, 0.30641069599388887, 0.3081940267099461, 0.3099758145308883, 0.31173631107404703, 0.3134793914436471, 0.31519609602099014, 0.3168746178965485, 0.3185495286645687, 0.32020112846911775, 0.32183470473995685, 0.32343843508085846, 0.32504863495387, 0.3266010996168915, 0.3281311056510376, 0.3296230968212613, 0.3311085434965641, 0.33254459927407637, 0.33398324775730076, 0.3353950820464958, 0.33680595681384506, 0.3381605302888381, 0.33947570151517825, 0.3407801700064398, 0.3420574306505495, 0.34329496580141905, 0.3445187135489987, 0.3457248484192354, 0.346890011034222, 0.3480270109694284, 0.3491301682475914, 0.3502108996653558, 0.3512639067027497, 0.3522861335495908, 0.353279048413435, 0.3542096962046788, 0.3551476700483654, 0.3560923023537599, 0.3569623473622778, 0.3578031526864401, 0.35861175130991213, 0.35939374013199593, 0.36013612334242234, 0.36085908504891134, 0.3615539014753717, 0.36221470668710504, 0.36284468266019143, 0.3634095959083683, 0.3639820365192569, 0.3645434146673485, 0.3650474632545373, 0.36552024328899735, 0.36596995945481386, 0.36637918298806604, 0.36674668821450057, 0.3670956720082054, 0.36741316686644626, 0.3677115340858902, 0.3679646825313742, 0.3681352909268255, 0.3683337575575345, 0.3684986551425579, 0.3686577332517222, 0.36875325118509983, 0.3688055785953951, 0.36884096845305775, 0.36884497684158674, 0.36881507355234283, 0.36875726522843455, 0.3687013065324828, 0.3685776579448835, 0.3684253052314767, 0.3682100141025773, 0.36800439616907454, 0.36778307025692314, 0.3675143594183304, 0.36721632057182485, 0.3668822716859653, 0.3665269027132615, 0.3661231689609584, 0.3657119868783978, 0.36527096472243303, 0.3648114252847949, 0.36431049393982656, 0.3637677930300811, 0.3632126427910346, 0.3626291430375131, 0.36204089866533196, 0.3613988682277692, 0.3607500098566281, 0.3600537964205548, 0.35933302779468884, 0.3585617750129361, 0.3577953237969241, 0.35700580420216516, 0.3561877449123488, 0.35534471986450084, 0.35447158368352055, 0.3535802859689799, 0.3526756251388811, 0.35173473122893045, 0.35077091034678004, 0.3497776182532216, 0.3487696847575985, 0.34771610654675944, 0.3466666601448381, 0.3455942476591373, 0.3445253995156694, 0.3434054447928247, 0.34223964864985973, 0.34108352512798434, 0.33990667876748365, 0.33870007277781805, 0.33748456249836506, 0.33624933371004495, 0.33499494887118586, 0.3337219494354217, 0.33242812489769447, 0.3311197934059084, 0.32980378043638064, 0.3284602441283107, 0.32710098344033434, 0.32573596159635276, 0.324345231947791, 0.32292410246253744, 0.32150776267485287, 0.3200771457486779, 0.3186532178481043, 0.31719284709407436, 0.31569749376758993, 0.3142168402594546, 0.31272370729879345, 0.3112172228718895, 0.3097007765237298, 0.3082019247220543, 0.3066601165540135, 0.30510975668180856, 0.30353057320916343, 0.30196640501841276, 0.3003782451027504, 0.29879850894775917, 0.29720986328097637, 0.29561970099658635, 0.29401403212439664, 0.2923727604134102, 0.290757363274157, 0.2891343449457287, 0.287512570584832, 0.2858752336786932, 0.2842681601900889, 0.2826162953593399, 0.28096214162373645, 0.27928811437197054, 0.2776321937425258, 0.2759571908991596, 0.2742983572129315, 0.27263667512283385, 0.2709835818726238, 0.26931631397762656, 0.26766056671077587, 0.2659905483880219, 0.2643211624153959, 0.2626294318352675, 0.26096502300524754, 0.2593294321761712, 0.2576620967779746, 0.25599740123426395, 0.2542890794289734, 0.2526361484237773, 0.2509920837765474, 0.24934005608985552, 0.24769033081158848, 0.24605977549523508, 0.24441396227748605, 0.24274264151045713, 0.24111001654117203, 0.23948080142467243, 0.2378377376402807, 0.23621907831839575, 0.2346589236097709, 0.23304159261201238, 0.2314322472112285, 0.22981589403018776, 0.22822455802653385, 0.22664600424171233, 0.2250688202893928, 0.22349968068402257, 0.22192098362518536, 0.22037067500633936, 0.218838848407996, 0.21730257022353874, 0.21577506737291147, 0.21423876851463614, 0.21273164310779977, 0.21124653526011006, 0.20975471089528042, 0.20827263556557268, 0.20678955080721215, 0.2053288742496167, 0.20389697403621046, 0.2024534129545848, 0.20102104780489774, 0.19956577574716772, 0.19816031520317645, 0.19678620116160456, 0.19539728671235215, 0.19401974741425204, 0.1926810286456979, 0.19132311796421259, 0.18992377600572155, 0.18859912250327268, 0.1872844139382829, 0.18599777601392292, 0.18470175259492047, 0.1834258407070766, 0.18215271783298018, 0.18089218313713512, 0.17963469642377702, 0.1784006243149164, 0.17718140974885185, 0.17597133781108695, 0.1747737259116251, 0.17357359322506227, 0.1724029501613315, 0.17123312308880717, 0.17008751023803215, 0.16895331069061595, 0.16787581841793148, 0.16675930055179894, 0.16560256299562326, 0.16452159880079906, 0.1634515378480454, 0.16239534670800193, 0.1613474096737858, 0.1603152214228423, 0.15929017374473572, 0.15827719954101532, 0.15727769401313538, 0.15628876282378168, 0.15531748486033328, 0.15435220732051355, 0.15339935455881473, 0.15245883218690087, 0.1515305418076942, 0.1505979818568357, 0.1496959190212514, 0.14880758427507745, 0.1479271852666514, 0.1470579546070308, 0.1462148859981293, 0.14536596085056336, 0.14453299200283584, 0.1437070655489063, 0.14289283921075727, 0.14207779453049355, 0.14128787509846105, 0.14050423274110965, 0.13973548753556886, 0.1389766866058185, 0.1382482516234846, 0.13750650496039207, 0.13675372636308455, 0.13603614352693588, 0.1353276430331238, 0.1346377229687751, 0.13394596156559593, 0.13324171573549468, 0.13257130559548178, 0.13190869789861318, 0.13126345983880539, 0.1306152287829876, 0.12996707803164806, 0.12933630964575124, 0.12871308660089226, 0.1280904956628199, 0.12748297354793764, 0.12690693350364474, 0.12631000592709252, 0.12572120337306789, 0.12515663564644405, 0.12458115240560656, 0.12396878114713958, 0.12341503129605365, 0.12286620689972834, 0.12232096212103422, 0.12178219932542257, 0.12127424248495866, 0.12074184260962577, 0.12021565226873791, 0.11967215973871881, 0.11916049896609067, 0.11867480332777769, 0.11816851351273944, 0.11766740967644347, 0.11716575895098005, 0.11667492926315158, 0.11615404389783934, 0.11567555927648751, 0.11519888082676902, 0.11476919207542642, 0.11429064753847175, 0.11380293771999196, 0.11333476029322609, 0.11286961402315975, 0.11240318934348859, 0.11194399991413932, 0.11149519776300065, 0.11103918517560189, 0.11058549785517298, 0.1101557757329167, 0.10970330569874442, 0.10921000569232113, 0.10876849294405247, 0.1083267055724567, 0.10789970805882719, 0.10745554640745852, 0.10700379310908269, 0.10656174312112338, 0.10611955989846387, 0.10570177009302063, 0.1052559862386071, 0.10474971586719652, 0.10431344312647563, 0.10387417635919995, 0.10347726011678364, 0.10302699747250238, 0.10257278265673256, 0.10212309858258002, 0.10167287536483133, 0.1012164706964764, 0.10076534077430774, 0.10029236151512509, 0.0998410141035241, 0.09938694908879732, 0.0989288584101389, 0.09846968806390402, 0.09800784550703193, 0.09754335089379755, 0.09707621046476365, 0.09664195053111879, 0.09616499831174045, 0.09568461467150471, 0.09520629417444454, 0.09472651662093534, 0.0942259105200634, 0.09374494374489634, 0.09328129414785655, 0.09279134820732937, 0.09229932299898169, 0.091776329258999, 0.09128322318960638, 0.09080778031918907, 0.09030359959003159, 0.0897966210475991, 0.08925804071555826, 0.08874879181593717, 0.08821708735504928, 0.0877008635243589, 0.08717924921133105, 0.08667164076046666, 0.08613758433022675, 0.08559990642067072, 0.08505862794522931, 0.08451376557273646, 0.08395986611350886, 0.08340856435920928, 0.08284793816048579, 0.08228966301961571, 0.08172731969460911, 0.08115005916759378, 0.08058120386560706, 0.08004068966348463, 0.07945891863574038, 0.07887480743290465, 0.07827317511488914, 0.07768585987372428, 0.07708950845789861, 0.07649577336171323, 0.07589821941199767, 0.07529965419041876, 0.07469433592575256, 0.07410332988230026, 0.0734889001547239, 0.072872099402053, 0.0722227635083392, 0.07160474551578636, 0.0710193275838533, 0.0703882424477329, 0.06975530533081253, 0.06911082018768137, 0.06847502438355495, 0.0678146570895203, 0.06717623007173185, 0.06653391006884295, 0.06591933791511327, 0.06526586948427152, 0.06459445776418127, 0.06393989314335566, 0.06328272165787191, 0.06259980120714129, 0.06194062577583597, 0.06128191386224075, 0.06061522746461068, 0.05994567264000067, 0.05927072076927926, 0.05859637445813193, 0.057971511036114524, 0.057285890354322404, 0.05660110099088754, 0.05589365848963489, 0.055212755393215227, 0.054506146814038745, 0.05382619042586481, 0.05314385325993213, 0.05247579642393747, 0.05178739101233583, 0.051090057511484606, 0.05040131222921931, 0.0497115414746656, 0.049008597052066, 0.04831877864348112, 0.04765638033975373, 0.04696060966320393, 0.046265622456669, 0.04556865751496945, 0.04487551415427394, 0.044159728656002865, 0.04347073887257901, 0.04278111472565022, 0.04212662634236105, 0.04143193868538251, 0.0407310777862204, 0.04004138784301708, 0.039353103615001, 0.03865667716250705, 0.03797247986368201, 0.037270105066437346, 0.036590361295245656, 0.03591074507899502, 0.03526022919423426, 0.034578039801350165, 0.03389698222105426, 0.033219948189033566, 0.03254532022515277, 0.031881319281933024, 0.031210539504938833, 0.030545449213635237, 0.0298802161156505, 0.029192100965687473, 0.02853630354399829, 0.027882117179512115, 0.02724752852957221, 0.02659496505223066, 0.02592376245562806, 0.025280454049941548, 0.024639225078839654, 0.024033098456272474, 0.023392536447024978, 0.022755150372435782, 0.022123759793816648, 0.02149668188751364, 0.020838346475504938, 0.02022428652690344, 0.019627504945440376, 0.019016321077832, 0.018408772179643266, 0.017806340749794754, 0.017206230304780017, 0.0165732617999962, 0.01598598488778772, 0.015400847490906096, 0.014842824282606963, 0.014259941844872401, 0.013669288967116734, 0.01309708738718245, 0.01252885406968365, 0.011971577874048428, 0.0114108676196912, 0.010882260070490691, 0.010327690033350032, 0.009779529724724567, 0.009217105510552888, 0.008683856473805778