0.03245878790673263, 0.03226256555767613, 0.03212212086283635, 0.03194473414876572, 0.03170923177719154, 0.0315628592403423, 0.03142122464402908, 0.03133826614526835, 0.03119705325128184, 0.031007043606016547, 0.030883663035357545, 0.03076150381107258, 0.03067116078494026, 0.030547103736724254, 0.030449575432074397, 0.030327426445193227, 0.030208749959293308, 0.030062446552339927, 0.029953672849148315, 0.029797999837023928, 0.029697297896712268, 0.02959510592746074, 0.029510754099710605, 0.0294047600426794, 0.029286144240512194, 0.029184258967649642, 0.02908320184528504, 0.028988464822865528, 0.028889484359299212, 0.028845621189282338, 0.028744464494377505, 0.0286489048032814, 0.028522846675875235, 0.028442444395786956, 0.028353159839205565, 0.028280620701563675, 0.028210858100826592, 0.028140720297096414, 0.028077722145632193, 0.027999249009588147, 0.027945515842894467, 0.027894509019172557, 0.02786196240045166, 0.027815484660975123, 0.02779235160539909, 0.027752720022928286, 0.027718945948276872, 0.02768415690879508, 0.02766286490911514, 0.02764355233974035, 0.02763353708795378, 0.027628828125968504, 0.02760557862751688, 0.02761474747090288, 0.027622989520831972, 0.027641476573467782, 0.027664389676515116, 0.027678319615862257, 0.0277125793988951, 0.027788816937054164, 0.027827385022139252, 0.027873024142181332, 0.02788124425771169, 0.027946496132769606, 0.02806747544453012, 0.02813549389802438, 0.028211491352373212, 0.028283368854710386, 0.028376455648677495, 0.02846284303481556, 0.02857163388843342, 0.028686694941036914, 0.02883381463942112, 0.028958623293396702, 0.029083030038294443, 0.029225132551305977, 0.029374772141808638, 0.029489255594302537, 0.029659482428025602, 0.029836683954894857, 0.030017625797630065, 0.030204692261968893, 0.030430672454258827, 0.03062680311094314, 0.030811238808999643, 0.03102756975737374, 0.031251533259834444, 0.03145594983484131, 0.03169912314311082, 0.03198987906779264, 0.03224135106833189, 0.03250236674951372, 0.03274383109264049, 0.03302749868784777, 0.03330873891846742, 0.03360958360011652, 0.03391811203396971, 0.03422604874544079, 0.034551808229469176, 0.034899176413328015, 0.03523934435755659, 0.03558871778101958, 0.03593372517799585, 0.03630353244776658, 0.03671281745579192, 0.03709634827791695, 0.03749066944183687, 0.03791960718125685, 0.03833219455353484, 0.038739561913572, 0.039177797146924105, 0.039626468463274105, 0.040065014085471924, 0.04053700322476051, 0.041045495130425255, 0.041532481147325606, 0.04203042536330457, 0.04250162173592136, 0.043025934048879694, 0.0435827484976666, 0.04412142246001214, 0.04467046165260833, 0.04522473181507864, 0.04579512980210253, 0.04640464148895468, 0.046991520066637475, 0.04759015510603442, 0.04819862970413434, 0.04882039439644181, 0.04940199273520637, 0.050052323094695504, 0.05071063671832982, 0.0513960427303295, 0.0520688327570864, 0.05274463433327919, 0.05343803133165218, 0.05414097374735827, 0.05484499392048777, 0.05556832342413477, 0.05630260964962494, 0.05704431571527824, 0.057795537630420245, 0.058593916104768766, 0.059359520506444816, 0.060116314047651435, 0.06090759967307457, 0.0617259310487768, 0.0625348680786227, 0.06335452368208914, 0.06415389754220349, 0.06499818584534263, 0.0658268742112319, 0.06669089469322251, 0.06756198357351761, 0.06844889160486002, 0.06933361141854759, 0.07021441131281654, 0.07111675472840377, 0.07202649466707962, 0.07297618016502964, 0.0738968053841957, 0.07482166179285775, 0.07576138382510042, 0.0767096493677674, 0.07763035841885188, 0.07859962438447564, 0.07956967225014713, 0.08055149045434463, 0.08153906674051224, 0.08260082594613691, 0.08359142451461725, 0.0845233405324256, 0.08554136621565227, 0.08656412166083767, 0.08757627792464831, 0.08861056343686709, 0.08966245087026298, 0.09070295221893876, 0.09174828256702793, 0.09279834206752996, 0.09385301182135908, 0.09496001051900961, 0.09601742703316252, 0.09708168755688341, 0.0981026667553833, 0.09918523399064084, 0.10026515821660462, 0.10135327880997703, 0.10244344638627512, 0.10350995904165984, 0.1046072416025945, 0.10570486626911875, 0.1068029080645445, 0.10790139845899914, 0.10901400232322626, 0.11011160200353276, 0.11124105476983598, 0.1123367297652868, 0.11343478120688984, 0.11450567096134946, 0.11561071961942797, 0.11675443481275058, 0.11785303659977006, 0.11895280626504061, 0.119993393918192, 0.12110149670078063, 0.12223495378310355, 0.123332009898855, 0.12442701294196282, 0.12551797461859435, 0.12660824758794997, 0.12772629074623368, 0.128806415273553, 0.1298847261872535, 0.13094018941468183, 0.13201591962669929, 0.13306839224651057, 0.13413730089812204, 0.13520013009321408, 0.1362875114290573, 0.13733387704514008, 0.1383532209656043, 0.13939235869725372, 0.1404246025829131, 0.14148391516910183, 0.14249738325951122, 0.14348468496596484, 0.14448891552364337, 0.14548533372457273, 0.14646680563647013, 0.1474475734826597, 0.14839020564929287, 0.14935624936465045, 0.1503111052322773, 0.1512872345090384, 0.1522155413714842, 0.15314289832393152, 0.1540507725388555, 0.15494891692986207, 0.15580786378616934, 0.1566889989834549, 0.15757467259270852, 0.1584284069149186, 0.15927026180063705, 0.16013411616927137, 0.1609469858223864, 0.16169259853095788, 0.16249032086640539, 0.1632729296881898, 0.1640643137385827, 0.1648135299268412, 0.16554707965681809, 0.1662683005376213, 0.16697488155296755, 0.16765117118756345, 0.16832961290571957, 0.1689763743244236, 0.16962403149346178, 0.17025425103587535, 0.17090631297808315, 0.17149657643094102, 0.17206290859781306, 0.17262307441946806, 0.173166585694826, 0.17373758717256546, 0.17424130813754157, 0.17471635711501324, 0.17519119517457699, 0.1756490955653668, 0.1760640243614304, 0.17649013077434508, 0.17690872662356452, 0.1772942700498604, 0.17766080645593968, 0.178026937428806, 0.17835249984663215, 0.17862878783383587, 0.1789209040080025, 0.17919218303631143, 0.1794494497934534, 0.17967814946658384, 0.17983165248725158, 0.18002617355515946, 0.18019695805446606, 0.18036316962709772, 0.1804851436420521, 0.18061785199541397, 0.18069231872291924, 0.18074700331599175, 0.18079365252930424, 0.18080662978406023, 0.1807691417340606, 0.18074635012058152, 0.18070164882913836, 0.1806299587116392, 0.18054222527589717, 0.18043071453962573, 0.1802991373479442, 0.18014554202531574, 0.1799734242750588, 0.17977558704539756, 0.17951341200702747, 0.1792777920917975, 0.17901823649104315, 0.17875050899540765, 0.17844224273348613, 0.17814953400079578, 0.17779258023033964, 0.17741598586142723, 0.17702812496111128, 0.176610684909758, 0.1761651129172766, 0.1757094254972652, 0.1752333957417788, 0.17473016573745476, 0.1742142715295542, 0.17362808298811333, 0.1730770851986192, 0.17250276687843313, 0.17190050940120397, 0.17128168400160762, 0.17069193291881218, 0.17002267015697464, 0.16933493875304267, 0.1685893986165511, 0.16786963339032437, 0.1671565226753462, 0.16639227626666742, 0.16560957244142321, 0.1648068076530722, 0.1639877360102966, 0.1631555972003528, 0.16229964873295036, 0.16142612514717006, 0.16051636686985596, 0.1596105066518237, 0.1587411733968551, 0.157792404881632, 0.15682920563153968, 0.15578309675929428, 0.15479938525262382, 0.15382284524878836, 0.15279953610381117, 0.15176031827643172, 0.15073626681438906, 0.1496622780335655, 0.14852890190540396, 0.14743433474385503, 0.14632411039358453, 0.14524146100645927, 0.14409601587278104, 0.14287553604326692, 0.14171460178712897, 0.1406001010185769, 0.13940187630584736, 0.13819332593667233, 0.13690106833406687, 0.13568151751855048, 0.13448895167540423, 0.1332369312764568, 0.13197469571430634, 0.13068209360782562, 0.1294030941606138, 0.12816165691638332, 0.1268565455885223, 0.1255448552317336, 0.12422326976181494, 0.1228991921814603, 0.12152943491426046, 0.12019780438632313, 0.11885805374026812, 0.11750733794207724, 0.11615347629098946, 0.11478441149384133, 0.11341885439690225, 0.11204721880170661, 0.11068032914192452, 0.10929692470221848, 0.10792332747043847, 0.1065308832439968, 0.1051361731154244, 0.103691637737226, 0.10229933959097806, 0.10093888783520644, 0.0995346622495444, 0.09812976347150769, 0.09672281314267886, 0.09531777759760486, 0.0939539873839586, 0.09254456814719228, 0.09113837446176258, 0.08968244231500486, 0.08828949279370527, 0.08695507556210164, 0.0855561783259591, 0.08416204861673632, 0.08273854598968854, 0.08135843581857138, 0.0800173009700988, 0.07863924085406857, 0.07726711123810603, 0.0759386297730372, 0.07457398934210398, 0.07319560939908917, 0.0718506299533072, 0.0705127287805353, 0.06914961528518682, 0.06783054653415564, 0.06657887503094707, 0.06526427132186632, 0.06395998269795218, 0.06263009462684166, 0.061350949031403715, 0.06012972869017133, 0.058861425610540155, 0.05760503342851573, 0.056341730096153696, 0.055111514417602425, 0.053972541973731705, 0.052754246823238704, 0.051551877313987964, 0.050371889545575754, 0.04919945329402352, 0.04804414666284721, 0.046902133960468446, 0.04577530266098807, 0.04471141995908227, 0.043608692908855336, 0.042530563583604075, 0.04146216659033883, 0.04041134185998452, 0.0394445188362535, 0.03841980749888806, 0.0374176507511474, 0.03643384504537403, 0.03546995727564227, 0.034530748819420115, 0.033605042782252646, 0.032761945943999074, 0.03186682670536732, 0.030994370131980187, 0.03014915802225641, 0.029319855843788073, 0.028541250431576976, 0.027751275228549036, 0.02698408802723102, 0.026263253977414906, 0.02553762283943356, 0.024867773239120948, 0.024184342210514877, 0.023525504139066775, 0.02294040949349271, 0.0223233478868951, 0.02176517333630771, 0.021196279876486073, 0.020654628281697698, 0.020144745359595193, 0.019655248559458684, 0.019261900949180143, 0.01881537625751478, 0.018398306277107163, 0.01797920650437842, 0.01762290892458428, 0.017325041113619086, 0.017016439000859217, 0.016735452532256355, 0.016483531521527293, 0.016256859606069905, 0.016113742980381478, 0.01593417942695189, 0.015784845954147714, 0.015672149995025756, 0.01558121878039001, 0.015533555654943793, 0.01549984896114636, 0.015496098961834102, 0.015561396119815827, 0.015611998461460044, 0.015704549169096686, 0.015816878660162865, 0.015960830777678795, 0.016183966079482456, 0.016384302884444958, 0.016606309947158962, 0.016874939025390792, 0.01717564936095182, 0.01752019163885015, 0.017882974602262854, 0.01827633921893243, 0.018703772232587228, 0.01916315666112531, 0.019698891551298097, 0.02021648492850845, 0.020794152820604785, 0.021377081381817854, 0.021995354349064192, 0.022614409482759924, 0.023306628794006915, 0.024056990490652793, 0.02481107826302404, 0.0255993244108599, 0.026431907566370066, 0.027286983079197222, 0.02820059789110504, 0.02912181000646068, 0.030078886462129542, 0.03103403530138257, 0.03206706739449465, 0.033150508440574364, 0.0342482538699327, 0.03538074758317799, 0.03657200626351728, 0.03777124968485476, 0.03899662679220266, 0.04026986545300363, 0.04157878988506326, 0.04295422208176652, 0.044330814738232985, 0.04570913603360067, 0.047165345568396154, 0.04865687647375762, 0.05020101684549758, 0.051761613594834194, 0.05336247824146861, 0.054996379647872386, 0.056667407061571355, 0.058360206187888834, 0.06010752309292185, 0.0619493230358882, 0.06376221717860535, 0.06561509058982849, 0.06746148916412999, 0.0693992792803839, 0.07135658476336545, 0.07336994294105496, 0.07541932573702774, 0.07753238797067287, 0.07965126280954589, 0.08184614434799903, 0.0840370915794408, 0.08626858793379037, 0.08854548258654574, 0.09085663624945861, 0.09316689469976783, 0.09556327328266165, 0.09799709233431692, 0.10049075704106152, 0.10299719460145967, 0.10552916612983171, 0.10811571407168269, 0.11074064777227187, 0.11338013635273038, 0.1160851494461132, 0.11885652909119761, 0.12163276098606728, 0.12445015103851115, 0.12730504135200366, 0.13019943248260377, 0.13311107412090933, 0.13608718298811626, 0.13909120337424805, 0.14214509413771004, 0.14523686022862903, 0.14839062291821803, 0.15155566730787184, 0.15473649997656944, 0.15798392239563155, 0.1612695617011501, 0.1646242970882075, 0.16798280315097963, 0.17132683839048282, 0.17477250172993433, 0.17825493121532143, 0.18179318980825898, 0.18534751718462006, 0.1889317745997089, 0.19256411827574324, 0.19623441084119778, 0.19994096454380056, 0.20368741202942237, 0.2074700002417626, 0.21129233472391887, 0.21515234575085723, 0.2190363072436954, 0.2229732213002226, 0.22691948381222893, 0.23093324701603152, 0.2349821478714402, 0.23906806311877202, 0.2431874741244817, 0.24737323395810876, 0.25155993687098926, 0.2557839364976466, 0.26007568879522447, 0.2643694684620604, 0.26870134654892436, 0.27307076606068204, 0.27747719952734295, 0.28189450924260046, 0.28637673123355356, 0.29084523608892227, 0.2954015488567383, 0.2999888327720754, 0.30463968871579467, 0.3092851351096776, 0.3139772620922463, 0.31868670178066427, 0.3234293168493746, 0.32820297012715927, 0.33301086991312484, 0.3377890427369661, 0.3426679115876785, 0.34757430279871115, 0.3525100027690678, 0.35747138917608456, 0.3624587260377593, 0.3674755309044924, 0.37251961718062543, 0.377556606379661, 0.382658944606481, 0.3878030216380465, 0.39295245401457574, 0.39812734470060407, 0.403318841263003, 0.40854476915305543, 0.4137621683185223, 0.41903974428639373, 0.42433871153393954, 0.4296503656626861, 0.43499265434157053, 0.4403825349043426, 0.4457615913637055, 0.4511618369010438, 0.4565279843420323, 0.4619757147479336, 0.4674533912940375, 0.4729317283995979, 0.47842661373309986, 0.4839478474806232, 0.4894731258667556, 0.49501745608323644, 0.5005729137107082, 0.5061428629343465, 0.5116667597086296, 0.5172710631112805, 0.5229218798677403, 0.5285389692217987, 0.5341664377357745, 0.5397574152796637, 0.5454092818596231, 0.5510598663711951, 0.5567232944026191, 0.5623910079172356, 0.5680488592351323, 0.5737253899405697, 0.579439737334063, 0.5851150594865016, 0.5907932216571312, 0.5964203249615188, 0.6021081054561966, 0.6078083552672248, 0.6134878484559206, 0.619164197825896, 0.6248246850451125, 0.6304939622283638, 0.6361160455922805, 0.641777409405592, 0.6474287624695122, 0.6531020901869012, 0.6587277838741338, 0.6643179879532046, 0.669926279070591, 0.6755213848412542, 0.6810512665638072, 0.6866241470737926, 0.6921922247037677, 0.6977259643078588, 0.7032409945407835, 0.7087212123311509, 0.7141985549901346, 0.7196659805157998, 0.7250973174381082, 0.7305059318998628, 0.7358618470733707, 0.7412258961626795, 0.7465986379590414, 0.7519029921446947, 0.7571805951099411, 0.7624354379279604, 0.7676554814711325, 0.7728200173490014, 0.7779823852257576, 0.7831111017629186, 0.7881471049548336, 0.7932129900396003, 0.798223672039354, 0.8032113281503742, 0.8081571683467133, 0.8130914188099371, 0.8179480555357626, 0.8227986811644783, 0.8275660062626661, 0.8322914880155255, 0.8369174382811269, 0.8415625253982221, 0.8461741957483626, 0.8507189782301572, 0.8552142662849207, 0.8596044193501415, 0.8640047750683616, 0.8683667820471443, 0.8726535647138123, 0.8768847435030864, 0.8810834670784823, 0.8851980498041755, 0.8892166496283188, 0.8932218156527344, 0.8971660317375569, 0.9010332109046585, 0.904855327867792, 0.9086134347187738, 0.9123068772230536, 0.9159349697662181, 0.9194799094047883, 0.9229773051683595, 0.9264403765528675, 0.9297958103047997, 0.9330833738897993, 0.9362730611237189, 0.9394257195742298, 0.9424958176556654, 0.9455044940243867, 0.9484389442466088, 0.9513635112638377, 0.954139475357474, 0.9568225020395473, 0.9594550464527749, 0.9620117601297836, 0.9644678429857932, 0.9668733361698635, 0.9692213566367811, 0.9714640773972244, 0.9736271990593273, 0.975660414560187, 0.9776684073194316, 0.9796175225426911, 0.9814529960604655, 0.9832048752816536, 0.984872669897805, 0.9864559039191306, 0.9879643713023746, 0.9893758220912202, 0.9907019559150388, 0.9918995539537653, 0.9930590106786896, 0.9941430370595947, 0.9951224962412144, 0.9960134797302426, 0.996827753130867, 0.9975396848211828, 0.9981393119331556, 0.9986772451168258, 0.9991181068493665, 0.9994764048722642, 0.999744025754976, 0.9999107438151957, 0.9999983921198728, 1.0, 0.999904779622452, 0.999718905396417, 0.999439028258306, 0.9990724931526909, 0.9985965435588681, 0.9980512810608874, 0.9974146075506548, 0.9966868196830996, 0.9958682086025229, 0.9949539360505356, 0.9939551948760572, 0.9928662155488722, 0.9916975940043921, 0.9904278695139231, 0.9890421743290471, 0.9875989341585181, 0.986066109249905, 0.9844374025749447, 0.9827278857327689, 0.9809112071139133, 0.9790279329918726, 0.977056417587127, 0.9750298715853865, 0.9728799660331566, 0.9706697407301211, 0.9683487592929907, 0.9659457899618447, 0.9634696880117711, 0.9609026451348747, 0.9581765624295142, 0.9554590106056811, 0.9526574671834449, 0.9497679369099661, 0.9468024253036819, 0.9437422746608061, 0.9406176591478498, 0.9374134892299509, 0.9341873381001414, 0.9308204217746521, 0.9273497996433985, 0.9238415458003685, 0.9202599812900788, 0.9166197692054634, 0.9128928353310314, 0.9090963596062708, 0.9052312554242465, 0.9012984629898385, 0.8972767305449965, 0.8932142959385388, 0.8891183749343498, 0.8849211367135463, 0.880662204803912, 0.8762793076281213, 0.871907915618565, 0.8674965030388879, 0.8629994024997761, 0.8584444349219358, 0.8538431955721281, 0.8491752183934662, 0.8444146608539039, 0.8396463706629104, 0.8348251344787929, 0.8299491349696556, 0.825027215071923, 0.8200363749322556, 0.8150217853007559, 0.8099607321696922, 0.8048993390910455, 0.7997447671141121, 0.7944794050743934, 0.7892571312982839, 0.7839943190673507, 0.7787475163041133, 0.7734022304742977, 0.7680402769963114, 0.7626302250257677, 0.7571915607566945, 0.7516776196752746, 0.7461913836718859, 0.7406552947382207, 0.7351182611282399, 0.7295556477546739, 0.7240034336209774, 0.7183906895385791, 0.7127253756802013, 0.7070815900892875, 0.7014203275726487, 0.6957142292938117, 0.6900267434093812, 0.6843593308237561, 0.6786411522834641, 0.6729144247651622, 0.6671960036283932, 0.6614546457419389, 0.6556655625047408, 0.6499245724821093, 0.6441804626882268, 0.638460569799071, 0.6327120416692239, 0.6269702401971762, 0.6212292857455692, 0.6154946053995293, 0.6097282429847066, 0.6040151386273005, 0.5983221200235027, 0.5926254097059906, 0.5869407750997487, 0.5812269725106506, 0.5755763174258227, 0.5699738985275306, 0.5643487851766669, 0.5587430900998697, 0.5531103150150947, 0.5475535552217707, 0.5420739350566557, 0.5365532034832159, 0.5310596707015448, 0.5255380353863495, 0.5201093268205597, 0.5147404170387537, 0.5093638002055275, 0.5040193619321766, 0.4986740872046292, 0.4934018080238944, 0.48817519203332566, 0.48297018007247894, 0.4778022467842779, 0.472681117912682, 0.46758976687870296, 0.46253770116124865, 0.45752956506248904, 0.45256432494891574, 0.44765492346048974, 0.4427768758958097, 0.4378820252670554, 0.433105652270858, 0.4283737767776291, 0.4236637678644338, 0.41902772507700436, 0.4145137011123908, 0.40996306109489417, 0.4054659210936432, 0.4010159478799264, 0.39662818260952193, 0.39226940718968795, 0.3879946902660683, 0.3837742576224047, 0.3796259355169656, 0.37551407674236176, 0.3714424588412681, 0.3674479078546858, 0.36351067731427567, 0.35962109538218195, 0.3558015136430223, 0.3520386065148384, 0.3483365661151776, 0.3446938851271273, 0.34111446705215787, 0.3375914863924091, 0.33416186075328286, 0.3307568750242701, 0.3274152325264739, 0.32408908686038956, 0.3208802063118483, 0.31774909691333353, 0.3146598019925058, 0.3116328645242137, 0.3086564639280599, 0.30575615139156326, 0.3029024772986754, 0.3001282957048486, 0.2974155201709029, 0.2947831376262345, 0.2921913038703986, 0.28961960554121974, 0.28715878204272466, 0.2847581608279028, 0.2824657683882124, 0.2801799479008859, 0.2779060564180613, 0.2757527167362895, 0.27365888151627, 0.2716518846870933, 0.26967350454838634, 0.2677405662921112, 0.2658853743256712, 0.26408931158325427, 0.262374270432772, 0.26069264217594845, 0.2590070663933488, 0.2574514011349979, 0.25595024522155724, 0.25455474908415476, 0.2531556878936456, 0.2518083030178235, 0.2505227577694988, 0.24923755119153904, 0.24806826722093595, 0.24694950391059026, 0.2459493247629223, 0.24492199051786634, 0.24394107895175726, 0.24302009056356627, 0.24214992000766344, 0.24128859627526125, 0.2405223935759444, 0.2398548415722839, 0.23917266313981142, 0.23853785801374103, 0.23788778113294734, 0.2373521672824206, 0.23685546371764146, 0.2364007285583199, 0.23598531418098137, 0.2356205251776461, 0.2352802182847315, 0.23496925194433915, 0.2347049204485172, 0.2344762190870541, 0.2343079335570507, 0.23414467186499316, 0.23400217548991925, 0.2339083879309955, 0.23384601484566325, 0.23378499066733685, 0.23378607771535326, 0.23382243349927864, 0.23387508313251026, 0.23395329269277454, 0.23405441257624304, 0.2341811160494909, 0.23435774833768452, 0.23452517948271137, 0.23471475011011592, 0.23490984789901126, 0.23514196645339577, 0.23537975179108875, 0.23564758088920432, 0.23593024064796583, 0.23627119691650994, 0.23657497529313798, 0.23689654930159754, 0.2372272913251699, 0.23756992210683067, 0.23789407292135464, 0.23826024818241642, 0.23863113467958336, 0.23900938560646448, 0.23939199835911104, 0.23975920557847513, 0.24015001662367644, 0.2405292684059223, 0.24092158614445303, 0.24131199086087246, 0.24174075204580187, 0.24211987509604885, 0.24249536622298776, 0.2428697226964229, 0.24323981426719557, 0.24359431766319153, 0.2439539938225213, 0.24428518532382112, 0.24463058670220922, 0.24496503930869024, 0.2453134509932434, 0.24562057094442524, 0.24589546448284902, 0.24618079150297562, 0.24645137154188398, 0.2467235569811498, 0.2469602693105214, 0.24715364281917312, 0.2473609632614215, 0.24754905436360772, 0.24773783027804785, 0.24788308084050295, 0.24799649546009217, 0.24810274981458305, 0.24818695503340713, 0.2482638710537877, 0.2483001784479881, 0.2482946683257072, 0.24828660840230624, 0.24825308635391596, 0.24819531077537574, 0.2481091560756736, 0.2480371808747034, 0.2478916796901036, 0.24772069105258968, 0.24749437815982558, 0.24727379875313657, 0.24704443192750966, 0.2467622793774001, 0.24645122654026358, 0.24608683271137713, 0.24571950440601062, 0.24534614727461643, 0.24491204064096014, 0.2444473058808593, 0.24393959022545542, 0.24341398311871879, 0.24283722304765157, 0.24224910473783037, 0.24162723539830755, 0.24097162706425687, 0.24028229440430357, 0.23956951097581025, 0.23881149594212273, 0.2380204080985911, 0.23715006011894724, 0.23629855566467625, 0.2354625956066164, 0.2345335401923718, 0.23357238539227754, 0.23258589689712955, 0.2315595007872373, 0.23046025904604256, 0.22937536675481726, 0.2282563267135219, 0.22709838595446305, 0.22591281441362027, 0.22471100208660985, 0.22345700728916412, 0.22217143677220502, 0.22084429119723958, 0.21949764756490145, 0.21812308506660255, 0.21671372173639414, 0.2152739928619063, 0.21383503539870735, 0.21233181760211112, 0.2107976992241787, 0.2092401127722233, 0.20765522419704832, 0.20599716500468326, 0.2043643732945401, 0.20270091581986907, 0.2010111747178769, 0.19929386013237504, 0.19756337598767884, 0.19579136619397555, 0.19398957994737595, 0.19216950950238848, 0.1903256882244504, 0.18847585271770573, 0.1865843088650373, 0.1846736294211853, 0.18274069993343323, 0.1807880835685354, 0.1788436752904035, 0.1768498977818952, 0.17481404404248946, 0.1727910195547937, 0.17075094434220417, 0.16869108445315437, 0.16661940517580204, 0.16456333648431412, 0.16245820829961227, 0.16034115452727557, 0.1582126885557127, 0.15607336073597855, 0.1538673547626088, 0.1517152160013595, 0.14955088913434694, 0.14739600216847545, 0.14520802818258324, 0.14302081915181403, 0.14081706367648147, 0.13860772198220525, 0.1363867387362124, 0.13416943595618563, 0.13195706283174977, 0.12973229371968642, 0.12750607523922236, 0.1252296113736304, 0.12300906786338632, 0.12081224353397102, 0.11858579912691866, 0.11636117821430138, 0.11418027620158017, 0.11195673302126094, 0.10973819544395988, 0.10752880486140053, 0.10532707637667336, 0.10306522173455807, 0.10088920838664381, 0.09875640607819769, 0.09658803911614694, 0.09442969499338419, 0.09232316208744377, 0.09018197847266325, 0.08802463866426485, 0.08591697255297459, 0.08382304465002548, 0.08175211966769068, 0.07968673856474875, 0.07760523902197637, 0.0755773007144312, 0.07354976905058806, 0.07155624045348408, 0.06957937780472366, 0.06770899764057058, 0.065757014685669, 0.06377127173268435, 0.0618754345696427, 0.060000936925709535, 0.05813647838170564, 0.056308143292212585, 0.054529755293010476, 0.05274386968961448, 0.05098349819927291, 0.04927299404402411, 0.04756190341456921, 0.04583109199742659, 0.04418254949589581, 0.04255993442648769, 0.04097073339837989, 0.039401024636012895, 0.037934675022934676, 0.03641227206354766, 0.034923217363118715, 0.03336481125207791, 0.0319550095787558, 0.030606672684822533, 0.029247923528109666, 0.027919924463976, 0.026607695410795756, 0.025344321321708135, 0.024152982277429583, 0.022946906915850454, 0.021775014569722924, 0.020657860984807493, 0.019551887728058836, 0.01844038683912898, 0.017410475282224155, 0.016413561147956557, 0.015473832819332936, 0.014540643852525507, 0.013620278327757133, 0.012759970535189432, 0.011933433384036709, 0.011111775098744798, 0.010356914599139498, 0.009634603218827387, 0.00894515936799099, 0.008288847945000368, 0.007677847525339583, 0.007086886322772879, 0.006530236585380078, 0.0060078857722968, 0.005519794961210641, 0.005084700154251677, 0.004662536255928373, 0.004285679193095328, 0.003932039563350741, 0.0036134581968972697, 0.0033466547989044167, 0.0030949216668825223, 0.002842218529549994, 0.0026643704563954445, 0.002518457656287215, 0.0024248164485357808, 0.0023396393670227548, 0.0022801249601705335, 0.002260405818543704, 0.0022719929241802987, 0.0022871898172878544, 0.002363784846477137, 0.0025032525256970892, 0.0026327475873423826, 0.0027924954357366667, 0.002961480886049629, 0.003182811082584342, 0.00344027461714433, 0.003715360918396648, 0.004017814620583069, 0.004330094608366452, 0.004688082555802823, 0.005062549954023957, 0.005471322978516944, 0.005903923399151071, 0.006389076305747611, 0.006864637184811271, 0.007325264248045501, 0.00785389364591592, 0.008403391227315815, 0.009009318081640067, 0.00959498738142804, 0.01016313246425112, 0.010796621746772364, 0.011448257241372798, 0.012131321671469287, 0.012816317267913923, 0.013517249871121543, 0.014237162385765806, 0.01497343100770318, 0.015711783764273315, 0.01648068474184127, 0.017259926847316063, 0.01805625962332148, 0.018865100298746378, 0.019723516650212828, 0.020551001668275122, 0.02141195794698968, 0.02226188511523454, 0.023124171079846212, 0.02394482538304665, 0.02483554262011991, 0.025741282516883637, 0.026643401442303143, 0.027551510301986316, 0.028478698590167245, 0.02939529962365102, 0.030287827291892506, 0.031217347374926468, 0.03214879194419297, 0.033097074865521894, 0.03402899802798592, 0.034955406495045846, 0.03589018874384326, 0.03682461276674782, 0.03777346947680413, 0.03870345486670815, 0.03964070563678585, 0.04056632591195053, 0.04148971107335269, 0.04238958691998913, 0.043308821573678616, 0.044215602600082754, 0.04512392850152109, 0.04602517403147786, 0.04691372486621797, 0.04779998980332539, 0.04868766062506531, 0.04955446944645979, 0.05041207306503331, 0.05125649516051699, 0.0520944521620298, 0.05299142928150416, 0.05379791025776256, 0.05459625432705151, 0.0553717248278234, 0.05615240814818944, 0.05689558098540112, 0.05765501359534418, 0.05839969069084399, 0.05916505253242407, 0.0598743417439116, 0.06059521360331425, 0.06127245389588902, 0.061935727726212336, 0.06259789519733089, 0.06322913652410136, 0.06386373674097648, 0.06446098164403503, 0.06504243201699104, 0.06559023457576403, 0.0661400436114171, 0.06669666331870192, 0.06720515716649893, 0.06769545860361681, 0.06821657824638772, 0.06866262758702865, 0.06913963299460384, 0.06954504531543458, 0.06993476113594572, 0.07031291506989178, 0.07066773784378609, 0.07102505000178301, 0.07134055080980946, 0.0716379032943629, 0.07190276922428482, 0.07216365879445549, 0.07244494898159241, 0.07265913715907803, 0.07285451105044598, 0.07309552290375343, 0.07324366735168546, 0.0734181532567947, 0.07352735521400822, 0.07362116431435997, 0.07370384680980831, 0.07376378863664754, 0.07379622228382618, 0.07382245736385236, 0.07382998528118527, 0.07391260929605148, 0.07387032880005269, 0.07382622671201376, 0.07375413177237891, 0.07366761301771073, 0.07360373290679602, 0.07348213477344978, 0.07339827477493123, 0.07324265009921209, 0.07307555461142952, 0.07288781241003613, 0.07269712380860222, 0.07255116425882101, 0.0723262364677278, 0.07209103213659611, 0.07181267967922166, 0.07155997323873921, 0.07135078117803179, 0.07106541521898285, 0.07076575569178865, 0.07046262323250382, 0.07014998123870891, 0.0698895221013271, 0.06955065781637373, 0.0692338119706856, 0.06888072359394497, 0.06852373565616462, 0.0681593204735408, 0.06779475785787836, 0.06747227012343375, 0.06709397398588982, 0.06671476348173247, 0.0662885186925038, 0.06591350067911635, 0.06556442721490023, 0.0651802059825592, 0.06479591689401462, 0.0644342919136345, 0.064048650240932, 0.06368809423612327, 0.06330584863211232, 0.06292871455421409, 0.06256392621321363, 0.06219741009488535, 0.06183093604704103, 0.061479559362087495, 0.061135765674755635, 0.060870298657699995, 0.06053485696391158, 0.0601754392212519, 0.05987219498831568, 0.0595809467200553, 0.05929894665624846, 0.05903416862630572, 0.05878843317180066, 0.05855162642451706, 0.058330619566428675, 0.05812790419752275, 0.05794064678770313, 0.05783833936582176, 0.05768006039105087, 0.057545461007956517, 0.05739724368998446, 0.05731573990127125, 0.05729111086223087, 0.05725147565742536, 0.05723807568134809, 0.05727197656925737, 0.057310167126260934, 0.0573553208197216, 0.05745519012998399, 0.05758405655374475, 0.05771877006257765, 0.05791100292745365, 0.058164027727047686, 0.058413433416427074, 0.05869658907907024, 0.058961237849334706, 0.059320781432196226, 0.05972015178107273, 0.06014599573635604, 0.0606075347610191, 0.06115024356347377, 0.06168063486875359, 0.062271029441141094, 0.06288203474374886, 0.06353648329912705, 0.06418698262130543, 0.06493578379230651, 0.06577808465103469, 0.0666057782764773, 0.06748038919687858, 0.06836989499619311, 0.06934382090346675, 0.07033178646306897, 0.07140361326477869, 0.07252165063734398, 0.07372107210930645, 0.07493013175087565, 0.07615425176980214, 0.07747032276987206, 0.07883646327975985, 0.08025693197104768, 0.08172525446976164, 0.08328724203505425, 0.0848563543926416, 0.08648174564703294, 0.08812610040782043, 0.08986966687814828, 0.09171100887305703, 0.09355987681473417, 0.09546737077553079, 0.09742343178650674, 0.09945007182864202, 0.10150461464463192, 0.1036527789551241, 0.10585847889154079, 0.10808977399713426, 0.11041620710284378, 0.11285622983051108, 0.11529058720803001, 0.11778658427022985, 0.12031696751687676, 0.12293997471256135, 0.12559258919460903, 0.1283405264846075, 0.1311476702585066, 0.13399569772561767, 0.1369250001395795, 0.13993079139095568, 0.14297717958399317, 0.14608475614579264, 0.14929813506191714, 0.15252295872288724, 0.15579648658882356, 0.15915112374959195, 0.16256838432567997, 0.1660122100543918, 0.1695587409547635, 0.17313970405924287, 0.17680969466703675, 0.18053842671748935, 0.1843500165413017, 0.18819370277000472, 0.19210296136335667, 0.19606668953851297, 0.2000907179191863, 0.20415935946398867, 0.20830499268933939, 0.21248172789099545, 0.21674745935548004, 0.22106955667768877, 0.22550089248187138, 0.22992863295318955, 0.23433316730446505, 0.23888823313116575, 0.24349611203752086, 0.24817214070335625, 0.2528834826700868, 0.2576327417455365, 0.262452228004806, 0.267323303153124, 0.27223875962597177, 0.2772127046712339, 0.2822861334838482, 0.28735317252338083, 0.2924719013249287, 0.29761912158632753, 0.30284110282209326, 0.3081191424004006, 0.31343427482371466, 0.31879578919004553, 0.3241737243358369, 0.3296289444173224, 0.3351312870733186, 0.34066913986916475, 0.3462478152457517, 0.3518271733265276, 0.35748994088128655, 0.36320070513419517, 0.36893342343971497, 0.3747015756270185, 0.38048553754537395, 0.38632441887538443, 0.3921984981298222, 0.3980997132500053, 0.4040312598905763, 0.40992897867725797, 0.415926373654359, 0.421939115633973, 0.42798484608404663, 0.43405283381721127, 0.44015098032804356, 0.4462603827134223, 0.45237666292019735, 0.4585279438684258, 0.46469704892822905, 0.47085910187200913, 0.47706397408606455, 0.4832891441030148, 0.4895191563559206, 0.49576110954833846, 0.5020019388946979, 0.5082659358624845, 0.5145616892340032, 0.5208371867825883, 0.5271195464538019, 0.5333441215240834, 0.5396439581879219, 0.5459718975803604, 0.5522652239468199, 0.5585572929614355, 0.5648450961952565, 0.5711309417412992, 0.5773824042237852, 0.5836599101393941, 0.5899277250693973, 0.5962051995182869, 0.6024475204861768, 0.6086486471324177, 0.6148689246584094, 0.6210845117400212, 0.6272687490539387, 0.6334345310892027, 0.6395633879384992, 0.645690269830787, 0.6517593799641431, 0.6578421284532371, 0.6638967935167759, 0.6699240386979747, 0.6759191326778835, 0.6818590269369343, 0.6877934058441572, 0.6936927456978129, 0.6995645280977081, 0.7053894702102588, 0.7111320882883181, 0.7168856164241323, 0.7225962264872702, 0.7282920327149875, 0.7339102531149362, 0.7394961598563711, 0.7450229850735054, 0.7505035399716056, 0.7558953679055319, 0.7612842622328108, 0.7666493518536187, 0.77192777595249, 0.7771527870324486, 0.7822614944124398, 0.7873833789373067, 0.7924306657738203, 0.7974315935882252, 0.802369109715771, 0.8072355624997218, 0.8120446251163714, 0.8168266168930018, 0.821497063987967, 0.8261015309198833, 0.830626787767449, 0.8350970236905774, 0.8394678022121271, 0.8437997859910119, 0.8480575029554556, 0.8522349550029196, 0.8563421559931959, 0.8603618853753778, 0.864315077828494, 0.8681887247770377, 0.8720196198822875, 0.8757269890496724, 0.8793510494660535, 0.8828979334146965, 0.8863624983640183, 0.8897180705673237, 0.8930181586110695, 0.8962485627852144, 0.8993722037483062, 0.9024085619108555, 0.9053482320155989, 0.9082085531170675, 0.9109393057720916, 0.9136233702265761, 0.9162135721725173, 0.9187112681198123, 0.9211124532327445, 0.9234580739920258, 0.9256641354327626, 0.9277767133111635, 0.9297677366669386, 0.9316946710417559, 0.9335467554767536, 0.9352763631767984, 0.9369093999020759, 0.9384060235583789, 0.9398493277709675, 0.9411974968269234, 0.9424395229312379, 0.9435813613381886, 0.9445920991422516, 0.94553701233698, 0.9464052266529595, 0.9471423566803688, 0.947778831412434, 0.9483059999749385, 0.9487419464559755, 0.9490730792787365, 0.949306688562172, 0.9494387669853434, 0.9494676829957334, 0.9493971618524557, 0.9492235795928645, 0.9489507073866761, 0.948576677707815, 0.9481221852491092, 0.9475438220986974, 0.9468506824699754, 0.9460755533978364, 0.9452003654704445, 0.9441878037006474, 0.9431181319224565, 0.9419762750579852, 0.9407011126484484, 0.9393276542849973, 0.937881946154149, 0.9363099089362097, 0.9345893377846094, 0.9328331758160476, 0.9309791007625288, 0.9290467199208915, 0.9269968579072253, 0.9248183643058545, 0.9225845733813249, 0.9202557332836663, 0.9178276838496878, 0.9153122834763712, 0.9126890345717529, 0.9099916297722165, 0.9072028563618065, 0.9043699571981921, 0.9013958880221212, 0.898317488275064, 0.895175425788769, 0.8919482004651997, 0.8886145170769917, 0.8852225639374259, 0.8817692476302552, 0.8782084842561158, 0.8745677085951069, 0.870880376338981, 0.8670784444009804, 0.8631534925083743, 0.8592080776445626, 0.855186462515013, 0.8510933566056648, 0.8469227845662557, 0.8426783761483078, 0.8383650395377225, 0.833982036840894, 0.8294999112183624, 0.8249853953380495, 0.8204273615113042, 0.815776511768152, 0.8110627031958393, 0.8062736152432028, 0.801439684121136, 0.7965529494000771, 0.791600366239819, 0.7865915082740602, 0.7815312263218593, 0.7764136908962659, 0.7711982445112665, 0.7659844382043753, 0.7607191380603586, 0.7554366340817518, 0.7500696562522959, 0.7446498098663408, 0.7391967273130821, 0.7337017720623807, 0.7281630715584332, 0.7225894392948359, 0.7169749597186088, 0.7113284741466273, 0.7056475105384995, 0.6999473373822926, 0.6942004713697048, 0.6884297955989461, 0.6826258809549606, 0.6767962753078854, 0.6708826134477942, 0.6650135622079417, 0.6591506258554928, 0.653230358298631, 0.6472910604513507, 0.6413258151254938, 0.6353544113326564, 0.6293666420683397, 0.6233678085379947, 0.6173575391463881, 0.6112947534832824, 0.6052719385518076, 0.5992572715664941, 0.5932163519149874, 0.5871712759501531, 0.5811032303104886, 0.5750574913757756, 0.5690097332097563, 0.5629653648121892, 0.5569240945760155, 0.5508944604844197, 0.5448635869093327, 0.5388275099644967, 0.5328168390831783, 0.5268169154980347, 0.5208310446923541, 0.514857152871769, 0.5089158791880951, 0.5029723630231683, 0.49704827019509223, 0.49112951034162994, 0.4852500759818941, 0.47942381688710717, 0.47358670720191204, 0.46775427556855115, 0.4619748640312783, 0.45622330267986216, 0.45049746212431463, 0.44480588112379643, 0.43909620526436843, 0.43347508902502896, 0.42788515829737467, 0.42239297301611406, 0.41686197363652555, 0.41136189383799093, 0.4059117986570004, 0.40050248355152024, 0.3951058683106807, 0.38978470387325687, 0.38451755547935434, 0.37928016791356417, 0.3740878342838667, 0.36893814780103135, 0.3638393639757191, 0.3588020759899765, 0.35379817548964293, 0.34884476970168565, 0.3438965142883692, 0.33905232267823415, 0.33430283474679834, 0.32955468779531205, 0.32486149683142446, 0.32018118471574364, 0.31560524739434204, 0.3111333471895438, 0.30666104571073105, 0.30224785335980103, 0.297849779198539, 0.29356175784422106, 0.2893248428296406, 0.2851543603761607, 0.28104296215842045, 0.2770033524453344, 0.27301077695937315, 0.2691227445421984, 0.26524888641922695, 0.26144018367694655, 0.25763347591924124, 0.2539633172468852, 0.2503550184700168, 0.246809182549005, 0.2433263495217957, 0.23988136356474482, 0.2365291632880073, 0.23323809408879778, 0.23001231682672646, 0.22685026338585304, 0.223805313791205, 0.22076513758363722, 0.21780120546522574, 0.21489513378647915, 0.2120568150012122, 0.20925520094391487, 0.20655542833341645, 0.20397382058649627, 0.2013976832224542, 0.1988896058745609, 0.19638412057613475, 0.1940188296084518, 0.1917079025778993, 0.1894695636425517, 0.1872937053314499, 0.18520597924142954, 0.18315182912432318, 0.18114780313949266, 0.17922262340107334, 0.17735974703185037, 0.1755588882954356, 0.17381972650567443, 0.17215899862404424, 0.1705399760780932, 0.1689824538742691, 0.1674653404423389, 0.1660316539726234, 0.1646599548692675, 0.16334252312131178, 0.16208291688501264, 0.16085666629981651, 0.1597140826942684, 0.15861089503037087, 0.15757938638030053, 0.15660089431265722, 0.15573142646117943, 0.15485060315265547, 0.15396138448711666, 0.15319723810825683, 0.1524823944672983, 0.15186423801473212, 0.15124048393733255, 0.15064151167334036, 0.150120829627748, 0.14964712075241507, 0.14924694044277192, 0.1488613278082947, 0.14851495117517177, 0.14822127576611224, 0.14797115476181685, 0.1477447887762714, 0.14758115559197538, 0.1474348049549155, 0.1473521327981945, 0.14730599486623014, 0.147300808528476, 0.1473249216997761, 0.14740754004865422, 0.14749692502045045, 0.14762048931255703, 0.14774466313095766, 0.14793740494227314, 0.14817802463047866, 0.14842572044795302, 0.14870187087861594, 0.14898151772020735, 0.14931450544612568, 0.14970909934765922, 0.1500844951528491, 0.15048428099851452, 0.1509123826677769, 0.15135671301111603, 0.15179823981727597, 0.1522866487316825, 0.15279246925442128, 0.15328910020249636, 0.1538300839272856, 0.15438412604596766, 0.15495045009135602, 0.15552825043906301, 0.15614233235101113, 0.15673732825789058, 0.1572948276325938, 0.15791549553355147, 0.158541657897186, 0.1591982644018803, 0.15983007808452207, 0.16045469784427188, 0.16109657657740287, 0.16174058196745153, 0.1623892474664668, 0.1630344126161865, 0.16367238636620393, 0.16431677849716245, 0.16495857948759274, 0.16558154092159366, 0.16621750278705455, 0.16683031538848628, 0.1674555777829684, 0.16807232269699332, 0.1686884672266371, 0.1692851877003452, 0.1699488270957287, 0.17051508660731038, 0.17107415656247038, 0.17156313096353057, 0.1721115432153042, 0.1726556595472714, 0.17317300742448583, 0.17367504780935272, 0.17421230842786362, 0.1746750305538964, 0.17509749609367561, 0.1755331081635677, 0.17595050635840329, 0.17632669730120448, 0.1767081842748768, 0.17707139997914775, 0.1774085732667229, 0.1777232503699427, 0.17803542469037575, 0.17830098126489416, 0.17848899145259783, 0.17871510974124685, 0.17891405218405948, 0.17915917346495402, 0.17929403983416348, 0.1794156348662051, 0.17950136853251736, 0.17956264483287204, 0.1795730800093997, 0.17958650523712122, 0.17956343523767052, 0.17952168006356567, 0.17945079935080535, 0.17936422535458396, 0.17923265964409266, 0.17907889974769756, 0.17888810753795512, 0.17866809679200354, 0.17840318916076411, 0.17812583145388233, 0.17778000484200573, 0.17744558966999438, 0.177078062139832, 0.17668109771405185, 0.1762476622811465, 0.1758161954547407, 0.17531418423342307, 0.17478221472227276, 0.1742167519819891, 0.17362497833425664, 0.17298228553415207, 0.17233228381560473, 0.17163877888341153, 0.17092742135243574, 0.17018427621459206, 0.16937547391227567, 0.16857400518204027, 0.16775342076826508, 0.1668852183775112, 0.1659861038109807, 0.16507527426968044, 0.16411313820564588, 0.1631564866701553, 0.16213285405446173, 0.1610828979119044, 0.15996215814691192, 0.15886515241593066, 0.15775136866187348, 0.15659584085820688, 0.15541318740946372, 0.15421745406297915, 0.1529799515455607, 0.15168819128000063, 0.15040425568658086, 0.1490941115751257, 0.14775834276712704, 0.14639752756362595, 0.14503958596946734, 0.14362694167092332, 0.1421925036826249, 0.14070927827776766, 0.13923579428780058, 0.13776233931540902, 0.1362423196539393, 0.134702657970173, 0.13313698509300892, 0.13156032603929346, 0.12996168548912038, 0.1283489124476928, 0.12671855537226634, 0.12505756941070795, 0.12339566261766428, 0.12173097846723666, 0.12003519779331025, 0.11832523640085928, 0.11663419723816222, 0.11489366688242737, 0.11310509157837959, 0.11134881676191226, 0.10958080807857924, 0.1077779054517861, 0.10599175024177657, 0.10420505756735683, 0.10239696514364677, 0.10058051461035523, 0.09878385836613987, 0.09694964175078964, 0.09511782094844745, 0.09327441050303974, 0.09142806410370215, 0.08958443914547912, 0.08773318380238347, 0.08589802205155549, 0.08404315617362818, 0.0821893621144698, 0.0802994846716642, 0.07845395508868484, 0.07660026890738333, 0.0747574299120637, 0.07291614903409198, 0.07112515094277302, 0.0692835228033066, 0.06740937197034205, 0.06558670762076854, 0.0637694935238108, 0.06196535611192002, 0.060160530675430035, 0.058375820857086765, 0.056586471109896515, 0.05480730487391779, 0.05303034735108982, 0.05127434355127372, 0.04952976314532005, 0.04779725040296741, 0.04607744032786643, 0.04435557654795042, 0.04266498331707207, 0.04101542194762119, 0.03934946316871508, 0.03770013832598384, 0.03609524259515263, 0.03447708144184534, 0.03283572192787342, 0.03126225931864026, 0.029706431244606604, 0.02814494215096906, 0.026629280561409768, 0.02517104638438643, 0.023687408103530806, 0.022225563533047946, 0.020794413010898752, 0.01937614039311739, 0.017935059956689585, 0.016569580714570684, 0.015225421243880278, 0.013913498605369529, 0.012612625023117803, 0.011349176181432932, 0.010094532761932005, 0.00886529234616346, 0.007644657860656774, 0.006469255805002915, 0.005346493861908685, 0.004218623439942264, 0.0031183542885919154, 0.002001375705084562, 0.0009623068033301295, 0.0