0.03790220119193408, 0.03741678228813773, 0.0370000008360527, 0.03654821841963169, 0.036114715728294076, 0.03568940555495464, 0.035285669914120146, 0.03486910312489765, 0.034488341377143863, 0.03411400678584832, 0.03372589179271208, 0.033364052214734534, 0.033024328082744005, 0.03266549669471832, 0.032310032930011896, 0.031923620641636896, 0.03157834530389113, 0.03126786914913495, 0.030920107529964384, 0.030575516337598727, 0.030172004163686313, 0.029841650888050752, 0.029517040364973813, 0.02918622969521592, 0.028856811983986517, 0.02857513739498579, 0.028244253994072058, 0.027852306008849657, 0.02754083582778094, 0.02723127920640134, 0.026995253608577484, 0.02668247549994311, 0.026334546899691617, 0.026042576112753648, 0.02575584033268916, 0.025499816631947097, 0.025221390145222053, 0.02491806389176761, 0.024659082928368978, 0.02440608204016644, 0.024154989909548643, 0.023915574316653858, 0.02367846847384588, 0.023453429214561023, 0.0232355134124492, 0.02300581760949127, 0.022805498018359887, 0.022606182456891916, 0.02242084730862755, 0.0222428648839472, 0.02212287762695269, 0.0219543489380172, 0.021739376013685863, 0.021600438443016106, 0.021469262718877835, 0.021375808497406917, 0.021257562274589, 0.02114981405399191, 0.021052624256870028, 0.02096605822666826, 0.02084435839721742, 0.02078505038411473, 0.02071184556089194, 0.020672350935874332, 0.020640756344667614, 0.020629442999418636, 0.02061376260827311, 0.020600760649568298, 0.020606467949330902, 0.020657909583095983, 0.020679962729811308, 0.020714879072619853, 0.02076264410024592, 0.02082325756633801, 0.020839078208070825, 0.020932730544818656, 0.021036072437471593, 0.02121761890761872, 0.021333231851090727, 0.021380966002219542, 0.021536699622884937, 0.021702406680040018, 0.021869786858467733, 0.022058216707142288, 0.02229906630451892, 0.022504809852731913, 0.02272484260044277, 0.022965147655793418, 0.02321322335552997, 0.023434744839877487, 0.02371776209632375, 0.024013364381616366, 0.0243381925438336, 0.02465801261296667, 0.02500567402547647, 0.02535304071653333, 0.02571599371022057, 0.026075347285731253, 0.02647200627581213, 0.026852243409888142, 0.027282276605036602, 0.027725581770719605, 0.028178147666349993, 0.028649784869201358, 0.02919767844374636, 0.02969013904025649, 0.03020089419674787, 0.030722323026185213, 0.031269945763868726, 0.03180972095149183, 0.03239500494253896, 0.03299600957761, 0.033571488509400456, 0.03420959435223107, 0.03484967113310166, 0.03551730797967873, 0.03619890705523625, 0.036902294441908255, 0.037612130907930696, 0.03839218303029825, 0.03912636148441958, 0.03987953750326949, 0.04058046850434711, 0.04137978778494697, 0.04225839357994501, 0.04307832626456705, 0.043916811127570635, 0.044758798979563384, 0.04563548091054479, 0.04652323628132057, 0.047434549651037446, 0.04836233859977043, 0.04925629759519235, 0.05022325781535189, 0.05122294190182024, 0.05221482402316884, 0.05322191422863681, 0.054220636317394405, 0.05526133568825554, 0.05633232503859567, 0.05739921374227222, 0.05848137481361605, 0.05957582208624329, 0.06068879143166189, 0.06186402164983175, 0.06300085365316789, 0.06415514515547999, 0.06525693233494112, 0.06645351019889334, 0.06767559343868282, 0.06889504803737605, 0.07012771796181591, 0.07137060611947856, 0.07262993256447403, 0.07387845625250085, 0.07516638379029297, 0.07646562999468383, 0.07783981714147971, 0.07915378357014684, 0.08040727939160507, 0.0817600508668256, 0.08312239532046012, 0.08450474993406289, 0.08588514800452712, 0.08732460362580932, 0.08871924669580698, 0.09012660761457822, 0.09154019589952386, 0.09297203467883484, 0.09437764545308018, 0.0958351578025558, 0.09730042002355235, 0.0987747718409307, 0.10025490383536913, 0.1017261117687097, 0.10322274891937364, 0.1047253395502355, 0.10622635908580784, 0.10774135938318342, 0.10930575316014567, 0.11082507008865579, 0.11235156048671263, 0.11389055646117753, 0.11542892059867282, 0.11692283570641483, 0.11847860230789259, 0.12003621973808261, 0.12158224166643437, 0.12314478297365809, 0.12473746663850775, 0.1262972893179248, 0.12785904267122153, 0.1294281936454228, 0.13099171830389716, 0.1325325034871055, 0.13410034279671776, 0.13566676490731758, 0.1372802472645558, 0.1388367244857121, 0.14035806051304023, 0.14191894441455033, 0.1434766962425229, 0.14499542817450656, 0.14655016878062116, 0.1481000148356078, 0.14964167587750513, 0.15117671106098055, 0.1526930547330968, 0.1542155832141011, 0.15573887891628851, 0.1572438468860894, 0.15874070690477268, 0.1602276078235564, 0.16170730048867435, 0.16319388791642175, 0.16465237708631336, 0.166101569257722, 0.16751132517350617, 0.16894394775355123, 0.17041565071984205, 0.17181608861103742, 0.1732061028139475, 0.1745716051992661, 0.1759401369940697, 0.17725532873361158, 0.17860146956150905, 0.1799307828438477, 0.1812563299075562, 0.18254954553711733, 0.183883518512241, 0.1851352205665795, 0.18637239490720164, 0.18757639594413664, 0.1887840935153682, 0.18992787673713873, 0.19110457783718812, 0.1922594069589955, 0.19337293910186737, 0.19448580666511905, 0.19558685171495385, 0.19665080104718163, 0.19769147752728475, 0.19872632946938595, 0.19971732467674916, 0.2006466800860549, 0.20159564696056836, 0.20251829716223532, 0.20345734248650293, 0.20432142877105522, 0.20513590369028295, 0.20595362033071737, 0.2067442938919045, 0.20750906013099474, 0.20824442765680867, 0.20899466442545864, 0.20966824170855478, 0.2103154923161984, 0.2109090985245151, 0.21150498165201842, 0.2120547917943331, 0.21259273996769973, 0.21309923728862146, 0.21357554350681573, 0.21401828968387826, 0.21446003820922022, 0.21483452841040582, 0.21517822580638576, 0.21549950459848857, 0.21577904028565317, 0.21596627817857159, 0.21618962836883066, 0.21640210583375546, 0.2165503500506051, 0.2166641306620125, 0.2167521399989996, 0.21679534194384445, 0.21680257624227053, 0.2167767484431037, 0.2167158863271137, 0.21666266292866806, 0.21652572924386157, 0.21632752148175627, 0.21612726143643213, 0.21589128261956525, 0.21564158587540772, 0.21533086309241634, 0.2149822442945623, 0.214601719764715, 0.2141855355100787, 0.21376749565601047, 0.2132751324291404, 0.2127248645886576, 0.21216660642957585, 0.2115720638109277, 0.21099881336501014, 0.21032420569250815, 0.2095897855564126, 0.20885167212455177, 0.20807801289584296, 0.2073352344635798, 0.20648181955371994, 0.20555945931730538, 0.20464622257290327, 0.20369798243333545, 0.20277679299965518, 0.2017506342758565, 0.2006929810057329, 0.1996034220610214, 0.19848164275049837, 0.19733628592462174, 0.19614834273899162, 0.19498292503935424, 0.19372364050468646, 0.19243516034028618, 0.19116292290117923, 0.18980919954758685, 0.1884191367786678, 0.1870111407546447, 0.1855743949555394, 0.1841264986007014, 0.18262968359137838, 0.18113601336687085, 0.17957944814265572, 0.17799676203921352, 0.1763819323361965, 0.1747475248958955, 0.17317828535971352, 0.1714795252222308, 0.1697599124267602, 0.16801609368189588, 0.1662541049935914, 0.16451320108949383, 0.16270224012809986, 0.16087204377222436, 0.15901065650286697, 0.15714322250508775, 0.1552455152628283, 0.15333984170236054, 0.1514143434718978, 0.14949616095148094, 0.14752929105743592, 0.14561235115160281, 0.1436043319103323, 0.14158441407182962, 0.13958515198862895, 0.1375375333103549, 0.13546548369265973, 0.13340051736540545, 0.13132534512621047, 0.1292522071324127, 0.12715644471652565, 0.1251058204794616, 0.12298768888918704, 0.12086557254971335, 0.11877516834520893, 0.11664135217303045, 0.11451832152886425, 0.11238113967354435, 0.11024411283373042, 0.1080691272611289, 0.10593833591168726, 0.10381566295131178, 0.10168314042540205, 0.09955218053279598, 0.09746209655413103, 0.09533206324396418, 0.09322325018189385, 0.09110486818415817, 0.08899510268092634, 0.08689458853927377, 0.0848040194821435, 0.08279510061255163, 0.08071773286792824, 0.07865666174868925, 0.07657226923711027, 0.07454982909624186, 0.07256480251544381, 0.07057092472128966, 0.06859533820695013, 0.06664028896328204, 0.06470344557479203, 0.06278888536290221, 0.06089433708840792, 0.05902245137606392, 0.0572229290980841, 0.05539297258514441, 0.053617841626614426, 0.0518415360122115, 0.050096169328809566, 0.04840440329554299, 0.046719646136892376, 0.04508648821659092, 0.04346771417548044, 0.04188488261375949, 0.04028675392525757, 0.03878392766562141, 0.037327682872426465, 0.035893982550813656, 0.03449792066722144, 0.03316120210689219, 0.031840830804587314, 0.030584472890440428, 0.029345825779861685, 0.028151982438928108, 0.02704947801219183, 0.02594160376887102, 0.024827148194043615, 0.023825992516010218, 0.022872196512540532, 0.02194162839731304, 0.02108872116181636, 0.02032908887070615, 0.019569600700935847, 0.01886384222298246, 0.01822734483975399, 0.017629431870013427, 0.01709426509855456, 0.01660992282906905, 0.016184067448796646, 0.01579959444875432, 0.015494877531610964, 0.015261427884687253, 0.015074911310197767, 0.014950115521349918, 0.014923214114032987, 0.014919453452148084, 0.014971129619997622, 0.015100643849557461, 0.015296182813435111, 0.015577494750044598, 0.01590425153691162, 0.016253894769797855, 0.016724264954101186, 0.017261576462961576, 0.017874011844157375, 0.018546608661500784, 0.019300655121680988, 0.0201116301813049, 0.020994121199662066, 0.021954522566642275, 0.022980727446257274, 0.02412600925546618, 0.02529330738829046, 0.026537195232634363, 0.027856193528221083, 0.029253477609852682, 0.03072144492068531, 0.032272762510510256, 0.033900546253411365, 0.03557096260434301, 0.037356482974121114, 0.03925254698737641, 0.04118414747877628, 0.043193639475714085, 0.04532544691434804, 0.04748533533102432, 0.04967259882701248, 0.05200010965263584, 0.054404672093910575, 0.05688352583963535, 0.059443124664799216, 0.062088979115362514, 0.06480235908160036, 0.06759385257215429, 0.07046641173638474, 0.07341372222922773, 0.0764702748147461, 0.07956995727603916, 0.08274936353284895, 0.08594010163458517, 0.08928639481877378, 0.09277988874201853, 0.09626672345508043, 0.09983266697747256, 0.10340474143013452, 0.10713645249062818, 0.11101996887638751, 0.11488874893481593, 0.11883987893234922, 0.12286322942989292, 0.1269633627754644, 0.13112331218285647, 0.13537696499186758, 0.13965118939785787, 0.14405860823068647, 0.148535727930269, 0.15307796851218639, 0.1576945469866974, 0.1623858539535123, 0.16713901225875577, 0.17196065049925402, 0.17688282260379412, 0.1818358533897816, 0.18681772651146372, 0.19191245175119012, 0.19707195350793538, 0.20229123445317118, 0.20757911315483624, 0.21295925270511082, 0.21836811523717548, 0.22383995257893935, 0.22936342412392588, 0.23495953199736289, 0.24062537348114516, 0.24633800217463808, 0.2521086922149431, 0.2578920264401248, 0.2637812337293097, 0.269731649542093, 0.27572366955455335, 0.2817669844421395, 0.2878621512295854, 0.2940050661970962, 0.30016691465957873, 0.3064095253850889, 0.3126968617007546, 0.31901771189814837, 0.3253931612007607, 0.3318159141309775, 0.3382724607716241, 0.34476880424704454, 0.35128020475368155, 0.35785583305821556, 0.3644872521661856, 0.3711294470624309, 0.3778058334602531, 0.38448409215378465, 0.3912289393345755, 0.3979476444129363, 0.4047554276253591, 0.4115864646041473, 0.4184444439373375, 0.4253190931931047, 0.43221177237372266, 0.4391277272515926, 0.4460623545557681, 0.4530411221867005, 0.4600062488154839, 0.46696282375163833, 0.4739627825847541, 0.4809748884283584, 0.4879992934577971, 0.4950314940264115, 0.5020674133839664, 0.5091150541211246, 0.5161677222092114, 0.5231796357558296, 0.5302436487685128, 0.5372807134899001, 0.5443431413808978, 0.5514000269677819, 0.5584606837881548, 0.565502002482338, 0.5725084442748879, 0.5795352887812799, 0.58654972610417, 0.5935165935145243, 0.6005069764330488, 0.6074912282075923, 0.6144431670406847, 0.6213756749116685, 0.6282889696862546, 0.6351786051616163, 0.6419962059984036, 0.6488441276607657, 0.6556632729976207, 0.6624466939450013, 0.6692058648535244, 0.6759045481361488, 0.6826013128826038, 0.6892617365359303, 0.6959143631946954, 0.7024952365020316, 0.7090293108872877, 0.7155340237411433, 0.721997451860712, 0.7283738763764427, 0.7347562224113608, 0.7411010020949336, 0.7473851717539015, 0.7536198837038973, 0.7597728856784816, 0.7659089622265932, 0.7719694567497568, 0.7779973672052828, 0.7839671665300728, 0.7898956748909226, 0.7957442016387332, 0.8015401080746068, 0.8072664913287685, 0.8129308975088153, 0.8184818035227602, 0.8240248350106822, 0.8295111319076388, 0.8349147116507243, 0.8402486873226088, 0.8454721449081246, 0.8506689470372648, 0.8557953042356106, 0.8608410779511066, 0.865810763016693, 0.8706887560485345, 0.8755056485599354, 0.8802312695452442, 0.8848900104018926, 0.8894671048301713, 0.8939618490922443, 0.8983735146078086, 0.9027250068695507, 0.9069652675995046, 0.9111214976518918, 0.9152001235494583, 0.9191844853606582, 0.9230513613267514, 0.9268658137854021, 0.9305902115656711, 0.9342372235557965, 0.9377779242739468, 0.9411431551102223, 0.9445113714028429, 0.9477822216984664, 0.9509630949522648, 0.9540382115105586, 0.9570457665480289, 0.9599226751069326, 0.9627036599562312, 0.9653823075862735, 0.9679707056327556, 0.9704495638914857, 0.9728436251076205, 0.9751385113596375, 0.9773117659732272, 0.9794102657777133, 0.9813971711050035, 0.9832944071885357, 0.9850896475941289, 0.9868080127302331, 0.9883960394506756, 0.9898612424084681, 0.9912505397141007, 0.9925374985365696, 0.993702895304857, 0.9947875955482159, 0.9957777493299994, 0.996654666443405, 0.9974290001747882, 0.9980949268239612, 0.9986651192934345, 0.9991119983021236, 0.999479744454034, 0.9997440629321612, 0.999946704447543, 1.0, 0.9998911567973646, 0.9997522182530285, 0.999509818004823, 0.9991571641829751, 0.9987105536917176, 0.9981898969828754, 0.9975360779616033, 0.9967829092138127, 0.9959263164347593, 0.9949761125056313, 0.9939259790717346, 0.99277952291689, 0.9915354782044862, 0.9901692276844463, 0.9887347451274936, 0.9872546056069247, 0.9856195606432133, 0.9838915694468007, 0.9820517692717589, 0.9801414350110653, 0.9780688180454434, 0.9759823265811668, 0.9738004821474575, 0.9715866450842039, 0.9692100128050937, 0.9667185888870604, 0.9641696150884281, 0.9615116200529399, 0.9587895537967177, 0.9559798875482631, 0.9530645226395963, 0.9500854323945942, 0.9470032480522326, 0.9438569376997228, 0.9406267448723241, 0.9373421028114436, 0.9339445958088993, 0.9305012464256331, 0.926943930954356, 0.923312153140208, 0.91956383342859, 0.9157909696858854, 0.9119097379440563, 0.9079936977793205, 0.9040038913316607, 0.8999758390418932, 0.8958387212263771, 0.8916312399296742, 0.8873608315117482, 0.8830251592502703, 0.8786047208435354, 0.8741447282322767, 0.8696603535686286, 0.8650712502860292, 0.860424246029503, 0.8557026571743351, 0.8509452935621663, 0.8461056830502048, 0.8412416950800111, 0.8363231547140474, 0.8313870554162012, 0.8263594463017337, 0.8212261071792055, 0.8161108141190805, 0.8109465870422972, 0.8057188480993327, 0.8004638213787708, 0.7951978883754877, 0.7898504574259615, 0.7844634034619538, 0.7790262537254913, 0.773565509272451, 0.7680300999401496, 0.7625032043761024, 0.7569408033225272, 0.7514067182654608, 0.74577060400876, 0.7400823945375476, 0.7343966334039861, 0.7286847312557678, 0.7229687410890844, 0.717206006700449, 0.7113440026082393, 0.7055505185990494, 0.6997340989327656, 0.6938891960405298, 0.6880333069582407, 0.6821446276476434, 0.6762563193217838, 0.6703525690613116, 0.6644454614795801, 0.6585146663708049, 0.6526109978135961, 0.6466573515890998, 0.6406988815571207, 0.6347470551666142, 0.628780993914319, 0.622783022970887, 0.6168202113297037, 0.6108569153737572, 0.6048693339486602, 0.5989122169872595, 0.5929615698659474, 0.5870094350802144, 0.581062487545164, 0.5751102556872123, 0.5691792105363426, 0.5632788336718839, 0.5573633309862805, 0.5514602464764791, 0.5455736440270789, 0.5396983328240663, 0.5338521995708151, 0.528008003068173, 0.5221825199732084, 0.5163471114004479, 0.5105655803657511, 0.5047920707910177, 0.49905290415134873, 0.4933352376963725, 0.48767132534187546, 0.4819963224399546, 0.47633033450187556, 0.4707119329911564, 0.46512098630194004, 0.45951117414319537, 0.4539840537355739, 0.4485526269186938, 0.44307359058074364, 0.43762859440062385, 0.43215469337438694, 0.4267876922562329, 0.4214560134751081, 0.4161545234565804, 0.41088781076130326, 0.4056524516024663, 0.40045883735262483, 0.39529228858340837, 0.3901757148495283, 0.38509773724633367, 0.3800769940153714, 0.37507660995048103, 0.370137581600842, 0.365219655826288, 0.36034614856689573, 0.35546277385284125, 0.35068625191270336, 0.3459419552347219, 0.3412527267435211, 0.3366071056353345, 0.3320251127196141, 0.3274666209418093, 0.3229668638150673, 0.3185011642172907, 0.3140839475801468, 0.3097184855089097, 0.30539878937381265, 0.3011448993575297, 0.29692247885029666, 0.2927509876892237, 0.28863346842393056, 0.2845637228932745, 0.2805423810940707, 0.2765757962611371, 0.2726605392025681, 0.2687420023211646, 0.2649365820332082, 0.2612181095393631, 0.25750536273905084, 0.2538442421019253, 0.25025108886256686, 0.2466913874851282, 0.2431489359157356, 0.23969908001260373, 0.236299763488792, 0.2329038641116256, 0.22961212103009243, 0.22636574395321551, 0.2231714742877687, 0.22002618983275699, 0.2169730860952339, 0.21392125339250193, 0.21094523104828403, 0.20799450623281507, 0.2050968220748075, 0.2021926155802773, 0.19940721044958354, 0.1967013143845702, 0.19400898659581542, 0.19136696001181608, 0.18878087006686045, 0.1862378504104797, 0.18375937114135538, 0.18131362996883604, 0.17891773518860982, 0.1765238807622936, 0.17423216785219722, 0.17198764524096244, 0.16978706645529135, 0.16763203219705988, 0.16551495023815582, 0.1634513010366482, 0.16139511420186772, 0.15942473498995857, 0.15749617797124063, 0.15561090413637413, 0.15376568438943267, 0.15203012206817174, 0.15025939782812267, 0.14853366350426622, 0.1468106691232937, 0.1451776041492375, 0.1435536682061023, 0.14200442402118119, 0.14049268513934224, 0.13902559796533764, 0.13758714978755782, 0.13618574152291318, 0.13482093274457296, 0.1334922533510798, 0.13224503444603036, 0.13098130501838814, 0.12976654361834516, 0.12857467210039447, 0.1274187750458916, 0.12624318454651098, 0.1251632774021652, 0.1241681652796781, 0.12314110251927537, 0.12209013385889823, 0.12113378646051043, 0.12020473194981435, 0.11928924833509212, 0.11841517979126379, 0.11757075184538432, 0.11674614004627018, 0.11594615935861145, 0.11517622556116122, 0.11442324249667699, 0.11370400753441032, 0.11299590533851782, 0.11231055181451692, 0.11167532092195286, 0.11102977334950612, 0.11039754593812896, 0.1097965682169105, 0.1092154504695276, 0.10858391109223087, 0.10804891399068522, 0.10755709299293012, 0.10704538322580752, 0.10654849955098128, 0.1060452090889834, 0.1055789704165081, 0.10511439649576974, 0.10467308365140492, 0.10424235608256688, 0.10383513726406436, 0.10342272066088516, 0.10300413496614479, 0.10261338343682502, 0.10223065139143274, 0.10189539303492674, 0.10152225086939612, 0.10117123189524548, 0.10081320918708317, 0.10046310933539489, 0.10010969622842125, 0.09977412509261632, 0.09940786476735498, 0.09908566283029427, 0.09876488529712979, 0.09843924641549388, 0.09812093111244381, 0.09780254303359058, 0.09748371426536892, 0.09716406128807746, 0.09688162396670184, 0.09655426294094555, 0.0961797099614337, 0.09585782827172326, 0.09553197864837533, 0.0952491824936794, 0.09490854394955367, 0.09458786388536013, 0.09423928084414301, 0.09388834781816635, 0.0934958159117035, 0.09314266050008, 0.09279750578309584, 0.09242856676890322, 0.09205298155213286, 0.09165107518363975, 0.09126327815890115, 0.09091079782644994, 0.09049908555899255, 0.09008034466407443, 0.08967023789847907, 0.0892336330944299, 0.08878037983325787, 0.08832873729462419, 0.08786766674557613, 0.08738343347060115, 0.08690393530911553, 0.08645003536497724, 0.08594292131016852, 0.08542609000726308, 0.08485470114947413, 0.08432262131289624, 0.08381692549274491, 0.08325274322383702, 0.08267727648651386, 0.08211828936127795, 0.08151576750600738, 0.08094258908325108, 0.0803134320713865, 0.07967510962993324, 0.0789826159263067, 0.07832968949549439, 0.07770035434259626, 0.07701596296891539, 0.07632018381805675, 0.07567035814949535, 0.074943629890879, 0.07420945069440464, 0.07346405353217428, 0.07270866293625579, 0.07192213727474162, 0.07114812442193888, 0.07046386720391783, 0.06965240859219779, 0.06883436403453504, 0.06798085251879193, 0.06715094407907507, 0.06638036878498263, 0.06552118058649069, 0.06465541752628164, 0.06381498118490336, 0.06293021903667761, 0.061981557045369194, 0.06109105507880467, 0.06019011880400029, 0.059308474959458714, 0.05838345503811437, 0.05751235246650484, 0.05656317324465407, 0.05560943568288567, 0.054678874902132656, 0.05371151877136319, 0.052784785384688615, 0.051804082132627514, 0.05082167500577785, 0.049822339059584664, 0.04883719689118567, 0.04790326671650903, 0.04690426130053348, 0.0459049656253667, 0.04487850032872302, 0.04388129486809228, 0.042957224130670824, 0.04194622038241903, 0.04093775029490669, 0.03993304282986075, 0.038928822442031, 0.037928288302529936, 0.036928350682744526, 0.03593089561977474, 0.03494794997499, 0.03395463268008573, 0.03294899417755702, 0.03196589654068689, 0.030986449384311585, 0.03007769756895249, 0.029098729075799728, 0.028122871132378942, 0.027162754645991643, 0.02621152653316831, 0.025288665973497142, 0.024353627244136967, 0.02347681624429682, 0.02255790408693048, 0.02165315789893944, 0.02077144493475557, 0.019893994914642124, 0.019021123240209378, 0.018175011913192273, 0.017343674894311673, 0.016524555696850268, 0.015724389037726376, 0.014949037414225678, 0.014180188126300045, 0.013428907011660017, 0.0127371163086504, 0.012017354900435347, 0.01130141600890842, 0.010627294297526254, 0.009974342510456986, 0.009374131286594804, 0.008761200053977377, 0.00818170922254239, 0.007617146792468858, 0.007078399590565178, 0.006579141205108659, 0.0060914942006871356, 0.005609472215069619, 0.005180611067890034, 0.0047791135137471045, 0.0044366659950078055, 0.004087906161046565, 0.0038012515216206454, 0.0035111046459440857, 0.0032546302547665903, 0.0030645850217422307, 0.0028721017728555592, 0.0026701545176906804, 0.0025563176790121545, 0.002476591949440151, 0.0024626476430642647, 0.002449104700683321, 0.0024777514210695853, 0.0025395530135717964, 0.002640183170928128, 0.0027785854026555236, 0.0029583535058288176, 0.0032314331516762962, 0.003485162803847921, 0.003782999367132522, 0.004080699204873889, 0.0044727371367759726, 0.004932021178449421, 0.005405737325893548, 0.005924228146203566, 0.006524868035995235, 0.007129503503342494, 0.007715765806161564, 0.008425280326113248, 0.009204720440716197, 0.01000143061422557, 0.010845882303409759, 0.011760768753321334, 0.012699449743500178, 0.013703438005383399, 0.014741618565063426, 0.01583180741197767, 0.016963881794376003, 0.01816009435004529, 0.019458736693274935, 0.02075329213645809, 0.02210356506809381, 0.023502124889333443, 0.024964698155356898, 0.02645302745754772, 0.028030128510586474, 0.029661204239851156, 0.03133337237433067, 0.03307533215235233, 0.0348998291042136, 0.03674761738776243, 0.03865236435831197, 0.04060835327477141, 0.042628354541708206, 0.044730700790174466, 0.04686218926787967, 0.04905276586511079, 0.05130244308238991, 0.053611245809759706, 0.05596886000939368, 0.05839733127276209, 0.060884466840790456, 0.06342891783032921, 0.0660339464217168, 0.06872747779133825, 0.07144674731503844, 0.07422681099913551, 0.07702463688858047, 0.0799312413810521, 0.08293422701866941, 0.08595207783717708, 0.08903042600330596, 0.09214693091320399, 0.09534858418545361, 0.09858091478308971, 0.10190366819146031, 0.1052836221477327, 0.10876384339182775, 0.11225331295874813, 0.11578656318881549, 0.11939787950418485, 0.12306773833877581, 0.1267856274583288, 0.13057336867809707, 0.13444217581011347, 0.13834161466447162, 0.14229949050408847, 0.14628585339048492, 0.1503631880698939, 0.15447396518185352, 0.15866517972941196, 0.1629104143476985, 0.16724657684309585, 0.17159497378816893, 0.1759607187559374, 0.18042504486992908, 0.1849419924720715, 0.18952022620885972, 0.19414063279918448, 0.19882227597306606, 0.20354588723951422, 0.20832151975015858, 0.21311168082450097, 0.21799440758881472, 0.22294020985535162, 0.2279173645888632, 0.23294301371638323, 0.23803586791463183, 0.24315452333562443, 0.24829009597990825, 0.2535078535974577, 0.2587703312201947, 0.26406667107994525, 0.2694183308543771, 0.27485684057311643, 0.2802873621553438, 0.28576176977730805, 0.29124066141070665, 0.2968048133587969, 0.3023723442782317, 0.3080180659451846, 0.31369935402944316, 0.3194024896118186, 0.3251552856670834, 0.33098581946372785, 0.3367992983236395, 0.3426476192213964, 0.34847364288900246, 0.35439585290329356, 0.36038823097626715, 0.36636222169192695, 0.3723661753303569, 0.3783414474839536, 0.3844096353686175, 0.39053406996137185, 0.39664503411331503, 0.4027803623646771, 0.4088903219935725, 0.4150776792603386, 0.4213221879022705, 0.4275414966143908, 0.43378037381588247, 0.4399860248243413, 0.4462674048232089, 0.4525607648778268, 0.4588685678221539, 0.4651883213569588, 0.47153993256466376, 0.47787854931441265, 0.4841627102421518, 0.49052963235142377, 0.49690127736891987, 0.5032755563251626, 0.50965492307075, 0.5160560868408144, 0.5224373689376183, 0.5288206251531956, 0.5351515585561236, 0.5415422324242424, 0.5479315394611645, 0.5543124706434608, 0.5606877292099266, 0.5670342598326801, 0.5733982816590047, 0.5797614598953599, 0.5861040878409155, 0.5924357504617941, 0.5987509852288501, 0.6050581582843004, 0.6113553633496257, 0.6176320810684512, 0.6238924392437454, 0.630118999838408, 0.6363451494555739, 0.642488362698427, 0.6486795830699091, 0.6548442755558587, 0.6610217222184595, 0.667126334948342, 0.6731365297896056, 0.679195744472647, 0.6852223808936491, 0.6912231843178784, 0.6971817135329907, 0.7030778299661744, 0.708970350463428, 0.7148251036296334, 0.720641320962334, 0.7264181729253341, 0.732142950245284, 0.7378398726449098, 0.7434939863314639, 0.7491324728172845, 0.7546946582529831, 0.7601477323450546, 0.7656287774324807, 0.7710596431990422, 0.7764632825179045, 0.7817886414540185, 0.7870806250249317, 0.7923004725667931, 0.7974681127208907, 0.8025335603002716, 0.807599364548225, 0.8125667456575587, 0.817519811598288, 0.8224105594490405, 0.8272370021432114, 0.8320017115773304, 0.8367259665499158, 0.8413588092143899, 0.8459275086983038, 0.8504562697657103, 0.8548907204672509, 0.8592152973874743, 0.8635231730184644, 0.867760795769673, 0.8719629247037124, 0.8760533780085505, 0.8800304929201779, 0.8839843908995819, 0.8878633629845156, 0.8916712076452196, 0.8953978446190308, 0.8989975965478937, 0.9025766433819287, 0.9060748465600422, 0.9094771305993983, 0.9128145941748128, 0.9160930337366822, 0.9192618650287879, 0.9223147299090613, 0.9253233779933666, 0.9282470440437948, 0.9311504896875253, 0.9338950820763691, 0.9365012234653163, 0.9390874831033108, 0.9415865926231175, 0.9440248238769674, 0.9463452445707979, 0.9485390527680031, 0.9506905524691794, 0.9527519966693637, 0.9547645802864149, 0.9566400729293276, 0.9584065081494432, 0.9601073383455584, 0.9617175708316394, 0.9631881078967367, 0.9646223903649458, 0.9659742753172125, 0.9672187461270171, 0.9683698909564198, 0.9694247368668895, 0.9703895476568534, 0.971237146831598, 0.9720178274476646, 0.9727036136559235, 0.9733213027462997, 0.9738144793309967, 0.9741866772299733, 0.9744975542491694, 0.9747138449890754, 0.9748298333471248, 0.9748582844509742, 0.9748278732572248, 0.974663390358557, 0.9744070257553072, 0.9739981165870863, 0.973565535173062, 0.9730716305065954, 0.9724446482509275, 0.9717253195644093, 0.9708724807920827, 0.9699743992287412, 0.9690030887348048, 0.967915159221439, 0.9667356845334791, 0.9654325581468594, 0.964075363323668, 0.9626704245943455, 0.9611241439663434, 0.9594896570580209, 0.9577258892940387, 0.955921211980153, 0.9540802794779774, 0.9520906730325096, 0.9500160672889142, 0.9477680680630071, 0.9455356429304329, 0.9432216923140034, 0.9408116564189484, 0.9383153877219945, 0.9357486815244347, 0.9330810877703035, 0.9303147905459539, 0.9274851961034386, 0.9245739023462788, 0.9215715228576279, 0.9185010129582344, 0.9153333375976933, 0.9121072394076802, 0.9088027467753266, 0.9054742188510584, 0.9020096029395182, 0.8984729297509363, 0.8948648512618439, 0.8911860604128189, 0.8873988527994036, 0.8835857298286485, 0.8796887375464735, 0.8757373144272264, 0.8717168665176176, 0.8676892473763617, 0.8635267981080966, 0.8592920611172107, 0.8550077588405915, 0.8506624246199613, 0.8462333087007035, 0.8417716469323889, 0.8372474837189032, 0.8326682996638323, 0.8280317973561188, 0.8233377271016407, 0.8185904643028272, 0.8137806264029315, 0.808928326305296, 0.8040243293583269, 0.7990093535361403, 0.7940136082884552, 0.7889623016667879, 0.7838666671903767, 0.7787231999070514, 0.7735794465230286, 0.7683396208108326, 0.7630787504177265, 0.7577571728372129, 0.7523988258856054, 0.7469885123048277, 0.7415619020956564, 0.736059487524214, 0.7305705568247555, 0.7250474334974176, 0.7195065108325404, 0.7139179261728597, 0.7082829611474055, 0.7026407290190734, 0.6969716297376005, 0.6912934348926857, 0.6855730480901323, 0.6798252443829778, 0.6740639032987558, 0.6682833336495708, 0.6625233176869932, 0.6567034601877555, 0.6507877576340501, 0.6449532618577204, 0.6391031175595558, 0.6332479318378623, 0.6273705226962716, 0.6214697010462912, 0.6155752660623843, 0.609672956046693, 0.6037938844064472, 0.5978766844767791, 0.5919533509390327, 0.5860345070009082, 0.5801160976715266, 0.5741742136274722, 0.5682635095946684, 0.5623406894995191, 0.5564385897087214, 0.5505410962174628, 0.5446570570254197, 0.5387721677391459, 0.5329275878819651, 0.5270585807071405, 0.5212031100453901, 0.5153562401777405, 0.5095315308689972, 0.5036904580757482, 0.49790322394223324, 0.4921324091004124, 0.4863733989184602, 0.4806400291357528, 0.47490583710766987, 0.4692160739209499, 0.46354746914800654, 0.4579146637234434, 0.4522906484297971, 0.4467190002529129, 0.4411442158755243, 0.43559881428308156, 0.4300555171318499, 0.4245748618432912, 0.4191229628932033, 0.4137039956306116, 0.40831721181864894, 0.4030005511078706, 0.39767637607688855, 0.3923582696981072, 0.3871128446886508, 0.3819039972493056, 0.376762159523074, 0.3716253006235645, 0.36647893708049495, 0.36143050328546217, 0.3564211196623254, 0.3514961024781976, 0.3465620629288028, 0.34161614271868446, 0.3367782688337208, 0.3319824845395366, 0.3272134555003774, 0.3225066306973613, 0.3178687275343151, 0.3132472020773345, 0.30867260672433666, 0.3041898630204575, 0.29970520637864867, 0.295202115143282, 0.2908284656027062, 0.28650223890229237, 0.28222119733781154, 0.27799228835539636, 0.27387914563630084, 0.26974088763546933, 0.26565671123584256, 0.26162064903035953, 0.2576452431770741, 0.25367026750819444, 0.2498089383453406, 0.24599837424014098, 0.24223018979513128, 0.23852367853499326, 0.2349042139932204, 0.23129675902302377, 0.2277791061112711, 0.22427583201364448, 0.220828905449101, 0.21737003953508433, 0.21404357744716318, 0.21081321098099634, 0.2075849556611958, 0.20441152476315566, 0.20126764621820645, 0.19820661586965213, 0.195214825961731, 0.19225774308994034, 0.18935461063198145, 0.1864683219255161, 0.1836773035725692, 0.1809243693681813, 0.1782379176911145, 0.17560226961544076, 0.17301162553414318, 0.17047861503936795, 0.16798737663523539, 0.16555677011118153, 0.16317625208166459, 0.16084431256192114, 0.1585640093888052, 0.15638520006344916, 0.15419769071138995, 0.15206245527341283, 0.14996551970608726, 0.14793452137731775, 0.1459678674693091, 0.14403359763570459, 0.14214866452101899, 0.14025771705360043, 0.13847642278423372, 0.1367542449018609, 0.13505955668777708, 0.13340959875237457, 0.131840922712239, 0.13027450564642107, 0.12875507125423055, 0.1272786955699734, 0.12584636125150797, 0.1244173890169246, 0.12307590255365138, 0.12177100192314172, 0.12050856188553498, 0.11928464105337513, 0.11814609440814745, 0.11699184637188444, 0.11585367639508357, 0.11478096552938721, 0.11374485026185426, 0.11271508284208452, 0.11175384781248619, 0.1108225327876206, 0.10992696570786821, 0.10906315655180633, 0.1082631271420474, 0.10745718661655573, 0.10667140770041186, 0.10593009052015928, 0.10521841030687956, 0.10448536827188898, 0.1038371049159718, 0.10321787189231484, 0.10261789433461889, 0.10204201921300961, 0.10152524485871788, 0.10099160591482365, 0.10045293818159963, 0.09997124213837005, 0.09951069112910323, 0.09908397279278955, 0.09866215597522847, 0.09824701120987717, 0.09786604838592909, 0.09750275034303028, 0.09715052692838254, 0.09682126249497125, 0.09655604801869029, 0.09625048394889933, 0.09596158561077997, 0.09569566633973083, 0.09543596991308043, 0.0951828442074792, 0.09495098030332318, 0.09473064964693587, 0.09446626229906778, 0.09427326351102054, 0.09412456386285553, 0.09393805060963072, 0.09375876304366547, 0.09357855705887232, 0.09341241027529654, 0.09321093880090892, 0.09305836129906218, 0.09290682280231484, 0.09281217108588563, 0.09265458777500658, 0.09247793591526143, 0.092328497029925, 0.09217920949179312, 0.09205014057105397, 0.091896658508881, 0.09169236083535326, 0.09154335557499926, 0.09138945985888607, 0.09128358037153037, 0.09111221195612405, 0.09089358223540003, 0.09072119444953947, 0.09054183747703486, 0.09037583505781667, 0.09017879414121072, 0.08997479801498955, 0.0897632826622775, 0.08954370048980259, 0.08931256344436594, 0.0890756431772414, 0.08885998836407112, 0.08859912416610619, 0.08832931527250827, 0.08804987745814594, 0.08776017042949377, 0.08745959493879041, 0.08714759012593935, 0.0868236310727678, 0.08649166152539592, 0.08614179125544853, 0.08583648968563981, 0.0854527211713833, 0.08505825984977222, 0.08466852769415013, 0.08424819147418122, 0.0837995440575754, 0.0833564297696409, 0.0828989655454842, 0.08243853064390505, 0.0819495814827436, 0.08146793119678788, 0.08094602808211124, 0.0804097489553423, 0.07991627177586721, 0.07934258750104314, 0.07880826734475731, 0.07820252912838559, 0.07758591044030225, 0.07696779265258914, 0.0763253450039627, 0.07568193330021616, 0.07501174331352034, 0.07432820960016809, 0.07365739942669142, 0.07294229155982115, 0.07219183637719194, 0.07145271614538765, 0.0706983398709131, 0.07000991818557215, 0.06921451991044018, 0.068402402166662, 0.06758555424918981, 0.06675652350886732, 0.065928315007023, 0.0650724320639868, 0.06424588213444332, 0.06336049592289712, 0.06246515503441086, 0.06156988015118127, 0.06065244547991959, 0.05976044286615819, 0.058818304251219415, 0.057867950660110926, 0.0569283570288863, 0.055958518687946025, 0.055026945591475446, 0.054036072457940565, 0.05304007259989358, 0.05200020447438044, 0.050998015812179665, 0.050002759622507366, 0.048983328448652934, 0.04795757967231165, 0.046987900890806095, 0.045942612218161746, 0.044873357992726945, 0.043827227030438246, 0.04277802864372181, 0.041794062683409086, 0.04073107790564654, 0.03963589130880143, 0.038580702266772696, 0.037525305411379446, 0.03653955284271147, 0.03547611904691195, 0.03442059235969835, 0.03336663283897178, 0.03231778790899936, 0.03128896084599451, 0.030248921889277924, 0.029187346980928515, 0.028164194440171004, 0.027159858590788753, 0.026146644430647275, 0.02514091301715371, 0.024168342155624405, 0.023176073342660898, 0.022215135388593807, 0.02124195628894959, 0.02028149681783199, 0.01934890223283776, 0.01841315691244652, 0.017529172034971938, 0.01661875628704986, 0.01572606675735777, 0.014860176499449667, 0.014002506476693103, 0.013141723634412628, 0.01232532465324523, 0.011527493398695675, 0.010806525515625571, 0.010040490688207344, 0.009268693808829083, 0.008554253472524174, 0.007862526725670352, 0.0072222253875006285, 0.006574273431789135, 0.00596734502005362, 0.005370473840203244, 0.004801655596330461, 0.004249497222496747, 0.0037396286984437057, 0.0032482394659981875, 0.0027979887830449253, 0.002377312647045725, 0.0019943747190572896, 0.0016342312525510628, 0.0013507470815054766, 0.0010503290085972393, 0.0007861411540766133, 0.0005141981252298703, 0.00032921570350867856, 0.0002427638027005455, 0.000120507931205149, 3.844381102800469e-05, 1.3031628756369228e-06, 0.0, 7.642194010912752e-06, 9.377448833449109e-05, 0.00022035800383920533, 0.0004043670225866751, 0.0006119278636568002, 0.0008762726013221336, 0.0011696660979986467, 0.0015084049449504194, 0.0019166017334324539, 0.0023444338631793556, 0.0028351417034127406, 0.0033575943479939754, 0.003929608222865126, 0.004552902329324036, 0.005224609327760599, 0.005942348840593555, 0.00671587128689593, 0.007540274056343134, 0.008420387758400559, 0.009347187114001376, 0.010326328774551653, 0.01135819301081186, 0.012443165848716123, 0.013549113227054056, 0.01474558274186046, 0.016010762999445288, 0.01731071988946691, 0.01866529045345869, 0.020094132376352217, 0.021556800045838136, 0.023060160006811766, 0.024639018999847013, 0.026274374085723046, 0.02799910399257233, 0.029744385961585844, 0.03155638728145271, 0.033419423906226, 0.035342282922179544, 0.037276175580828186, 0.03932484857048122, 0.04143950069315847, 0.04360168929168244, 0.04582227785870622, 0.048128137017207424, 0.0504629124535188, 0.05285679305931229, 0.05531287903964607, 0.057829377246845365, 0.06040329466239094, 0.06304087566206105, 0.06576370496471907, 0.06851830688336166, 0.07133435294408694, 0.07416723028941952, 0.07711099332138961, 0.08011738666511578, 0.08317709698041913, 0.08629544463128684, 0.08950495330455659, 0.09273643234473923, 0.09600462486531836, 0.09935947164279452, 0.10277264839766834, 0.10627799455674362, 0.10980302202151562, 0.11337590273975358, 0.11702127852699942, 0.12072466833798358, 0.12447681021966589, 0.12829616742945182, 0.13215410554151596, 0.13608800467754834, 0.14007652555497635, 0.14407508179501496, 0.14817770696611876, 0.15238634523351854, 0.1565847009781647, 0.16083739803467983, 0.16510543100831168, 0.16946995317265537, 0.17386422500727594, 0.1783319642447789, 0.1828483541113054, 0.18743091231222064, 0.19204163004595426, 0.19665235583703297, 0.2013662843281829, 0.20612514918348904, 0.21092430083497854, 0.21577287756226257, 0.2206475311871051, 0.22558559084418123, 0.23056562016513843, 0.23560646297866053, 0.24066680712186267, 0.24573043158192936, 0.25087834337869974, 0.25606432860944817, 0.26128790318725725, 0.26654851503537313, 0.2718839866694562, 0.277211915865558, 0.28257703533419615, 0.2879132234590771, 0.29335771756033496, 0.29883251418134565, 0.3043370500591936, 0.30987069365721126, 0.31541057664885414, 0.32100310259490433, 0.3266404659336819, 0.33228113188969394, 0.337947094777611, 0.3436610634786101, 0.34937176428372363, 0.35507068259684266, 0.3608320411522267, 0.36661266043810914, 0.37237316655214614, 0.3781943189113327, 0.3840119193704634, 0.3898629654695857, 0.3957256892047448, 0.4016274735671789, 0.40750781602106034, 0.4133591798722982, 0.41926532099669817, 0.4251778952128584, 0.43113893193699276, 0.43705636897766437, 0.4429503875282009, 0.4488825182739065, 0.454816458951831, 0.4607008485721963, 0.466641443171425, 0.4725525239178847, 0.4784867657181188, 0.484413615075742, 0.4903264652674551, 0.49623711725939174, 0.5021510385882786, 0.5080390767846162, 0.513916042997999, 0.5198074623981769, 0.525655631253993, 0.5314199074946725, 0.5372497910931372, 0.5430599815054709, 0.5488984514404052, 0.5546605865424692, 0.5603602715141904, 0.5660872919823862, 0.5717895768463701, 0.5774276662090556, 0.5830822321100942, 0.5887259471875669, 0.5943171344693452, 0.5998968664421277, 0.6054231961568761, 0.6109177415859229, 0.6163289531581329, 0.6217624245516817, 0.6271559525866415, 0.6325118014756863, 0.6378272976448274, 0.6431221842372553, 0.6483514624899239, 0.6534794549639964, 0.658630692323117, 0.6637340341621139, 0.6688257025756275, 0.6738263168435178, 0.6787669150524107, 0.6836714664361286, 0.6885248074122268, 0.6932918568968557, 0.698043830099486, 0.7027231661707496, 0.7073636250984041, 0.7119451241840213, 0.7164683919343597, 0.7209294956316303, 0.7252938812551445, 0.7296361317777369, 0.7339134065434011, 0.7381576129322308, 0.742298928813303, 0.7463691963471896, 0.750379988870039, 0.7543233166025207, 0.7581731048026281, 0.761981852861517, 0.7657026433822328, 0.769369327699591, 0.7729619313718491, 0.7765197433085507, 0.7799572372699017, 0.7832558988179382, 0.7865530387611918, 0.7897707594930373, 0.7929574204402698, 0.7960088230832588, 0.798999906942301, 0.8018920422992004, 0.8047053303895756, 0.8073796484149113, 0.8100397958551798, 0.812626773857151, 0.8151150554624328, 0.8175182307413582, 0.8198357962939631, 0.8220672515538658, 0.8241736647428791, 0.8262362800014005, 0.8282091648297143, 0.8300936379262855, 0.8318863700681726, 0.8335889028903802, 0.8352010017583288, 0.8367224216314711, 0.8381514325278696, 0.8394909231681599, 0.8406989757498146, 0.8418602258131205, 0.8429272351304746, 0.843928181925324, 0.8448033973977574, 0.8456127404852464, 0.8462994148883374, 0.8468946890118916, 0.847358249932421, 0.8477746181963914, 0.8481021918033715, 0.8483284439010766, 0.8484604141608727, 0.8484729727410181, 0.8484195723253499, 0.8482779096819029, 0.8480325074817184, 0.8476923373681305, 0.8472486944949302, 0.8467206098000165, 0.8460622907457422, 0.8453494390224346, 0.8445403558341649, 0.8436341101875975, 0.8426343639655339, 0.8415590819756802, 0.8403678862931945, 0.8390839765057521, 0.837731313290976, 0.8362599194933285, 0.8346714901229733, 0.8330227678903023, 0.8312824840080073, 0.8294629166864174, 0.827539380426275, 0.8254805085479661, 0.8233841457460651, 0.8211965190254185, 0.8189036612640114, 0.8165378046342086, 0.8141428597140884, 0.8115908298112092, 0.8089542578667372, 0.8061714161279669, 0.8033747422378875, 0.8004971777731757, 0.7975271426243289, 0.7944726021834443, 0.7913300292139984, 0.78810975446229, 0.7848133419220682, 0.7814291461672302, 0.7779650845404679, 0.7744545554298568, 0.7708292825337921, 0.7671227029708857, 0.7633480289016542, 0.7594989483744938, 0.7555274458112349, 0.7515380600207027, 0.7474635845825831, 0.7433272784492053, 0.7391181377747499, 0.734886246903564, 0.730529144271387, 0.7260806446910255, 0.7215950354801863, 0.7170434792467452, 0.7124049183942138, 0.7077276297226915, 0.7029939122498627, 0.6981893644152464, 0.693324029386156, 0.6883577453713327, 0.6833797610766775, 0.6783571385096663, 0.6732600036689838, 0.6681073602837799, 0.6629227511800594, 0.6576603754279013, 0.6523049240836942, 0.6469487105280353, 0.6415422005113, 0.636112046621381, 0.6306062994904358, 0.6250369251388609, 0.6194460296392411, 0.6138121314174328, 0.6081395921000556, 0.6024235160984956, 0.5966288651397089, 0.5908418615358433, 0.5850166447195739, 0.5792243531146519, 0.5733188539732634, 0.5673720622591283, 0.5614101100597162, 0.5554200345555087, 0.5494000327907078, 0.5433575664970641, 0.537235635081011, 0.5311517846875177, 0.5250425789649684, 0.5189304122729222, 0.5127729281025319, 0.5066109972851476, 0.500414594075146, 0.4942025976820586, 0.48792157698392485, 0.48168911410922227, 0.47549058397006894, 0.4692239652337692, 0.46294861194495884, 0.45662287614866204, 0.45033914907436867, 0.4440523997993375, 0.4377547770510058, 0.43145306404374645, 0.42515168289417876, 0.41884578188106825, 0.4125047852048761, 0.40620549593385, 0.39990729368871836, 0.39361769333465213, 0.38732566796857243, 0.38108553591650474, 0.3748012514711974, 0.36852837745592176, 0.3622442278460183, 0.3560000816039358, 0.34972904756826, 0.34351719690630306, 0.33731850803658053