0.026631815322728278, 0.02635116863318271, 0.02606988269933067, 0.025868772987728824, 0.025694716371030355, 0.025532244056850537, 0.025402215338179726, 0.02529065168047441, 0.02518969056546328, 0.0251002694496721, 0.024993935195989813, 0.024926036014678098, 0.024877814112391726, 0.024818815246727327, 0.024765060850752058, 0.024716081710317507, 0.024671565602665767, 0.024553763530960244, 0.024527571933636614, 0.02450129888630135, 0.024526564543932046, 0.02449594994012332, 0.024402948289885335, 0.024391197831355103, 0.02438134628769831, 0.024401019898778988, 0.02439430529293758, 0.024379623351817672, 0.024387289436814914, 0.024401314057673, 0.024440148480500454, 0.024466549485524847, 0.024470362331322135, 0.024519601299947843, 0.024577068425903917, 0.02464849212324021, 0.024723653242945717, 0.024768429451966806, 0.024869831475897365, 0.024980182903853045, 0.02511803312683688, 0.025246202942604903, 0.025371104751054384, 0.025525609593287753, 0.0256920605944778, 0.02585059422035201, 0.026044920075074734, 0.026252654717306357, 0.02647163160495525, 0.026703843270661946, 0.02694590956988408, 0.027206340677842666, 0.027460642798920364, 0.027752449382182343, 0.028058036655528588, 0.02834863194036524, 0.028686865367666608, 0.02902201355063338, 0.029389830543381602, 0.029771308715715504, 0.03018487635193269, 0.030593238600231457, 0.031005242114380827, 0.031448247792617776, 0.03190751257363697, 0.032370697050781154, 0.03286519084151842, 0.03338517969891924, 0.033912137282610985, 0.03445696229677588, 0.03500721109875486, 0.03559018436050742, 0.03618727560588641, 0.03680693698631585, 0.037444976138146374, 0.03811952908001845, 0.03879305104548934, 0.03945255782128819, 0.04017120269176596, 0.04090852827328033, 0.04166877814772753, 0.04244423998650814, 0.043227083474855585, 0.044044672412669836, 0.04488227439901833, 0.04573011008626552, 0.04661018184214699, 0.04752479394718656, 0.04844460863797035, 0.04938654826440263, 0.050377560705778604, 0.05136109208098042, 0.0523575040776108, 0.05339113876370941, 0.05444848638477829, 0.05551696518932405, 0.05662375691709823, 0.057708186160942046, 0.05886785237863999, 0.0600488557485835, 0.06125433634098465, 0.062479427151605545, 0.06373907187027901, 0.06500935706288746, 0.06630420179383081, 0.0676353073933, 0.06897857059500669, 0.07035028356714021, 0.07174514145594266, 0.07316624953976476, 0.07459078861095149, 0.07606750159857341, 0.07757955685742055, 0.07910556511790533, 0.08065777416387708, 0.08225791280441051, 0.08386010694863537, 0.08547983273638121, 0.0871386218998931, 0.08882435188844605, 0.09049759837704459, 0.09224218504454038, 0.0939835052517169, 0.09578135252980165, 0.0976028990102432, 0.099477833770239, 0.10134433473970998, 0.10324747721959104, 0.10516565044138752, 0.10711088617000962, 0.10909071358350453, 0.11108879799796986, 0.1130758935722624, 0.11513293746310206, 0.11721462533779403, 0.11932616025448275, 0.12145680162167338, 0.12360624537889287, 0.1257879762249891, 0.12799441213387028, 0.13021788652809005, 0.13247455859654778, 0.13473496502631055, 0.1370423153538517, 0.13937245950451418, 0.14177503970283012, 0.14414459267522992, 0.1464977593266645, 0.1489232959687037, 0.15137110757692104, 0.1538881277171753, 0.15637415122837503, 0.1588566633132609, 0.16139457055434112, 0.16395422504322787, 0.16650860216297947, 0.16911415920648556, 0.17178094003334102, 0.17441957015410142, 0.17707950321570384, 0.17975383636742046, 0.18245555688450465, 0.1851346551727288, 0.18787990289747492, 0.19064120654057343, 0.19344005452184773, 0.19623030192842988, 0.19904874531197808, 0.20187062233999634, 0.20470903050240463, 0.20754944024811678, 0.21042105666076494, 0.21329916590945755, 0.21619956299715518, 0.21911277915477723, 0.22205113219447664, 0.22498715974397446, 0.22789730877325554, 0.23086214257562565, 0.23383597876401868, 0.23680710668932886, 0.2397995551069269, 0.2427918106257631, 0.24579980516879624, 0.24881417763910274, 0.25187911968876614, 0.25489962298097896, 0.25791138731765306, 0.26094876933007627, 0.2639914322748628, 0.267053992400357, 0.2701033478225107, 0.27314544053189765, 0.2762038197966206, 0.27926417174354856, 0.28228639463589217, 0.28535363395325397, 0.28845927628847484, 0.2915164127475857, 0.2945727480151171, 0.2975766296423949, 0.3006354446865028, 0.3037111541268972, 0.30675472010486166, 0.30979280183273555, 0.3128425661555351, 0.31586550210545966, 0.318862921539027, 0.3218745646118645, 0.32484145015129406, 0.3278386380144784, 0.3308233496781051, 0.3338358824706579, 0.33678925972817253, 0.33970695771466164, 0.342639506483859, 0.34555749087517573, 0.3484742586244114, 0.3513594055765351, 0.3542109968432654, 0.35706609145470725, 0.3599028384536516, 0.3627015110604711, 0.365502005448258, 0.36831033335136215, 0.3710637615717639, 0.3737963129810347, 0.3765020750249396, 0.37919104588885344, 0.3818296934218494, 0.38447404213570396, 0.3870917502311843, 0.3896988060826181, 0.39225948841198144, 0.3947940315742298, 0.397298993621945, 0.3997751422127729, 0.40218612587435976, 0.4046069215202478, 0.40700358798566166, 0.4093567522449996, 0.4116764675687639, 0.4139850532572606, 0.41623324967750885, 0.41842082511990436, 0.4206037789815304, 0.42274975831277756, 0.4248416894159699, 0.42691417358213507, 0.428947098860623, 0.4309400293882311, 0.4328925079303451, 0.43479007065425196, 0.43666197333494633, 0.4385089751884328, 0.44029281881352417, 0.44203413832312227, 0.44372345179257816, 0.44537911218849224, 0.44699765162458927, 0.44856235188877736, 0.4500817414785011, 0.45156798184412467, 0.45299348561248265, 0.45434350731945344, 0.45567961691719083, 0.45696662441468694, 0.45820927414000046, 0.4593964011164551, 0.4605184085646529, 0.46160735224643357, 0.46264479708511874, 0.4636457438634339, 0.4645774756763277, 0.4654704840657913, 0.4662973307288498, 0.46707267261945856, 0.4677617057662268, 0.4684370029961453, 0.46905373301507175, 0.4696198987421026, 0.4701308707040545, 0.4706043596496467, 0.4710024072127489, 0.47130145363023207, 0.47159589512333777, 0.4718328647306082, 0.4720264944066101, 0.4721471552511727, 0.47224454881297556, 0.4722483318555038, 0.4721975699756756, 0.472063988051935, 0.4719068171467519, 0.47168384564472404, 0.47141403676033344, 0.47108690253852104, 0.4706885713530537, 0.47024890494283017, 0.4697819983835212, 0.4692231837567004, 0.4686087764510426, 0.46794256296069464, 0.46721642906601385, 0.4664196506454007, 0.46558469750690357, 0.46469357224835006, 0.46372867078170477, 0.46272806315067644, 0.46165565945735887, 0.46054429037898365, 0.45937628627883087, 0.45817885007538356, 0.45689567656618346, 0.4555550022858872, 0.45416518723220534, 0.4527219880822348, 0.4512219092864325, 0.44967339957470615, 0.44805958356545683, 0.44640790371997235, 0.4447037355521726, 0.44291963171356225, 0.4411156150913072, 0.4392820252910696, 0.43737095010341775, 0.4354101992357754, 0.43338377843894244, 0.43132738727139064, 0.429243648289375, 0.42708728668353624, 0.4248845576674262, 0.4226257995749219, 0.4203331770536976, 0.4179685040802349, 0.41558921895128714, 0.41316439955546885, 0.4107229051871347, 0.4082061087834353, 0.4056784661474326, 0.4030756914306284, 0.4004345104243008, 0.39774006956088814, 0.3950252742257903, 0.3922471447731686, 0.3894604294399502, 0.3866357394814321, 0.3837549142526969, 0.3808594263973199, 0.37795178695670967, 0.37498167437893926, 0.37197869927960614, 0.3689449591109737, 0.3658785845467889, 0.36274885921920874, 0.3596269338290362, 0.356474560215988, 0.3533004955838912, 0.35008961799571886, 0.34686220609568846, 0.3435976287207886, 0.34030891038010497, 0.337002042661144, 0.3336671179572894, 0.3303390423774112, 0.3269592012753217, 0.32356156613925896, 0.32012773260817873, 0.316698970681468, 0.3132407461907843, 0.30978102464282586, 0.30630569937704494, 0.3028030947200108, 0.29930128730355304, 0.2957773657854201, 0.29225138502041614, 0.28871392576338195, 0.28516869419463775, 0.281611420775392, 0.27806784888620234, 0.274493084129117, 0.270913752789512, 0.2673370860087286, 0.2637504439369807, 0.26012789833591404, 0.2565433049586677, 0.25295691425291345, 0.24941056046337476, 0.24581882428761057, 0.2422449078425475, 0.23865980638254242, 0.23508082352080248, 0.23148700688253662, 0.2279250228533978, 0.22432678930121483, 0.22078516456263023, 0.21724993135384824, 0.2137337923479344, 0.21021361988288967, 0.20674608033078276, 0.20324296924480334, 0.19975492064427142, 0.19629148139136635, 0.19283438596398117, 0.1893795805480304, 0.1859601364083743, 0.18255864818449236, 0.17915427706999607, 0.175793772206266, 0.1724230944002264, 0.1691053842344528, 0.16580569908843953, 0.1625278698948399, 0.1592714654137866, 0.15607185379579783, 0.15285700677027236, 0.14969644516284028, 0.14653129926848388, 0.14339527131956314, 0.14025695628678922, 0.13718436737194037, 0.13411998823600413, 0.13110778290925357, 0.12812436708691557, 0.12516038835568657, 0.12223826143157261, 0.11937340483516612, 0.11650982106173825, 0.11367983736046834, 0.11091065005648373, 0.10814595056532557, 0.10538980943480393, 0.10270195821892174, 0.10004956575844919, 0.09741786097148154, 0.09483976329525091, 0.09228877438294794, 0.08978437625592954, 0.0873165601653631, 0.08490241487893439, 0.08250730261314242, 0.08016778382960059, 0.0778490139135653, 0.07557083502313289, 0.07329650988503848, 0.07110460031567147, 0.06898342529491566, 0.06686581143122085, 0.0647897439960331, 0.06274005666356702, 0.06074928781905135, 0.058822363323802807, 0.05691080470005401, 0.05504185412583019, 0.05319258692675626, 0.05141164422442458, 0.04965157417325834, 0.04795578890460602, 0.046300344775792035, 0.04469694200791271, 0.04312145213319014, 0.041590119147388534, 0.040097568142116576, 0.038646813514404514, 0.037284868551032836, 0.03591161770774871, 0.03455973067466418, 0.03327740155392264, 0.03203710706858697, 0.030839871922699495, 0.02968274145720422, 0.028569507777470787, 0.0274944915179782, 0.026460424021323967, 0.02546954558182359, 0.02451614016796333, 0.023552034423344616, 0.022685054640952204, 0.021854701100195027, 0.021092823126445184, 0.020331815822149536, 0.019627025150814003, 0.018940233784517254, 0.018292122643375618, 0.01765291290623806, 0.017084274726710282, 0.01656508498006217, 0.016065310987259628, 0.015601179265867498, 0.015181136138490415, 0.014785785267076423, 0.014393382713304988, 0.014070971292012456, 0.01378039096085298, 0.013567111468519386, 0.013333436428317665, 0.013092431675423816, 0.012929854029607224, 0.012796821377199286, 0.012701819140628044, 0.012625474401898184, 0.012574030045465843, 0.01255503464864362, 0.012563399957537339, 0.012587122699442534, 0.012649967272594804, 0.012741626914155745, 0.012853480890765972, 0.01298950906187737, 0.013152942703306759, 0.013335069754618093, 0.013570308530320591, 0.013793101505803769, 0.014038875878408847, 0.01427746517447264, 0.01457017184060225, 0.014901882661938549, 0.015228713987800386, 0.015574099239162512, 0.01588764049194358, 0.01627400949673344, 0.01672718622157458, 0.017133222399048402, 0.017554865788887684, 0.017950542224039478, 0.01840592537923358, 0.018883495968279478, 0.019358419240847843, 0.019843707744923975, 0.020350170474292214, 0.020852825506456972, 0.021378544889802772, 0.021896833930094874, 0.02242349313549115, 0.022944958201169322, 0.023487444230327555, 0.02402874700952981, 0.024581700440699076, 0.02513810256909478, 0.025693511173712245, 0.026255409939599152, 0.026861895235001414, 0.027420426431934423, 0.027981532849768297, 0.028542992034619543, 0.029106599918293043, 0.02963946306562367, 0.030205659070484826, 0.03076830521230279, 0.0313879276547509, 0.03193420868652463, 0.032478814400202165, 0.03302073527685921, 0.033559023472559776, 0.03409278781656491, 0.03462118923065644, 0.03512181773930572, 0.03563989702108158, 0.03614915481823963, 0.036687246147559374, 0.037172563083232, 0.03764466411170675, 0.0381136011526967, 0.03857264386661504, 0.039047869629141044, 0.03948189997131897, 0.03992483485502396, 0.040335372947125095, 0.0407353898177097, 0.041158437675841264, 0.041530787368566656, 0.04193689698887647, 0.042281245922136466, 0.0426156804288375, 0.042941676231181475, 0.043252873397440966, 0.04360230126685535, 0.043881022492749035, 0.044148510392813915, 0.044382138149281145, 0.04462699322058308, 0.0449076071928775, 0.04511531848952771, 0.04530985728289342, 0.0455171605392393, 0.04567978084671686, 0.04583000924339215, 0.04596445415894637, 0.046084038745509, 0.046254396400494474, 0.04633450389348877, 0.046380615986575224, 0.04643791708704979, 0.04648018565528051, 0.046541392618201095, 0.0465482449458643, 0.04655894576524416, 0.04653522438823106, 0.04649781792388912, 0.04647432962265715, 0.046404988765432774, 0.04637736942435744, 0.046274850996482854, 0.046161854998438216, 0.046032698510744575, 0.04589773510941266, 0.045781126616995856, 0.045617778071745725, 0.04544367863243564, 0.045267463693972845, 0.04507004156019189, 0.044887303790041994, 0.04466510976600535, 0.04447680061035895, 0.044230331749272926, 0.04397682393018166, 0.04372490428691771, 0.04345548629199237, 0.043212108919881635, 0.04292443466096067, 0.04263162801653979, 0.04235646169872869, 0.04205025057638112, 0.0417388786545501, 0.041425038696396736, 0.04110731514334211, 0.04081641621611489, 0.040487707671884234, 0.04015507410437534, 0.039824076038697157, 0.03949194327922515, 0.039176813510623326, 0.03884122746445046, 0.03853085816260354, 0.03819469148746691, 0.03786172882126315, 0.03754116203730283, 0.03721442567056909, 0.0369268117360624, 0.03660572381306859, 0.03629224273484894, 0.03599552507330328, 0.035696978231532485, 0.03543678767319723, 0.03515316045331109, 0.03488115464418779, 0.03459690147482285, 0.034352154781138386, 0.03415566721256858, 0.03392972274832832, 0.033718670510145876, 0.03350136084539683, 0.03332429457306283, 0.033196825464096864, 0.03304674540358344, 0.03291548268603739, 0.03277816839465205, 0.032689498707879336, 0.03265693033554155, 0.03260293797383718, 0.032572035373296615, 0.03258136473341647, 0.03259642166456906, 0.03260946336205172, 0.03268056290613845, 0.03277725892503916, 0.032913153125688085, 0.03306209233857987, 0.03323237543469602, 0.03344101610906646, 0.0336797915209262, 0.03399408163308185, 0.03429011059515884, 0.03458958916884246, 0.034960629130166336, 0.035366181924344056, 0.03584650823363791, 0.0363186155584014, 0.0368388592862095, 0.037388823788868805, 0.03797958411777943, 0.03858239761272841, 0.03926000058185886, 0.039978373981415474, 0.040738347040956815, 0.0415407403188638, 0.04240289678452239, 0.04329046280165059, 0.044250483495171446, 0.045226816294015995, 0.04625169140253414, 0.0473090137026742, 0.0484344011080252, 0.049630408432736875, 0.050851702179684904, 0.05212448351818932, 0.053416146880048476, 0.05479747544807849, 0.05624003002256035, 0.05772293969943965, 0.059258971102413634, 0.06087927273565399, 0.06251955688032718, 0.06417708980594394, 0.06593603513389332, 0.06775012098694255, 0.06964799871848354, 0.07157081810982714, 0.07354591539656065, 0.07558716589749416, 0.07768740289246517, 0.07985847139508062, 0.08207642170994983, 0.08432209936382869, 0.08666608169030067, 0.08906953394378507, 0.09156223076443483, 0.09408246190714555, 0.09665508972915446, 0.09930192298274278, 0.1020110999189011, 0.1047701465271493, 0.10760632789833778, 0.11050608070415101, 0.1134669862618064, 0.11649080074361938, 0.11955484357054472, 0.12270796958708494, 0.12595250874995634, 0.1292265707528672, 0.13256499894001372, 0.1359397876995408, 0.13941038398672453, 0.1429220225041189, 0.14652081965321245, 0.15018130952656478, 0.15390626517381664, 0.15769044484264907, 0.16153823549974913, 0.16544696482177973, 0.16941811918935704, 0.1734630697415341, 0.17755736241049946, 0.18169784320541435, 0.18591937967239547, 0.19020211034248116, 0.19453693072245243, 0.19894252731753584, 0.20339919067689455, 0.20792560483786585, 0.21251095449638263, 0.21717787262260213, 0.221877379418419, 0.22660694627936848, 0.23142819451980381, 0.23630594453112172, 0.24126907289704727, 0.2462549658961679, 0.25127231788383103, 0.2563744768114155, 0.26153062167109387, 0.26674274707280976, 0.2720048607227375, 0.2773015493694552, 0.2826700020742679, 0.2880884680429924, 0.29357798592229145, 0.2990919617668041, 0.3046120602804001, 0.31022934853089495, 0.3158918068508508, 0.3215848913610543, 0.3273377354916008, 0.3331420332727441, 0.33897825335574455, 0.3448562610520023, 0.350762551383135, 0.3567233362449136, 0.3627188935027064, 0.3687565333759764, 0.3748308959503184, 0.3809322191928661, 0.38707852909928875, 0.39326089927001506, 0.39947301357829385, 0.4057169294364053, 0.4119458561188285, 0.4182561005096854, 0.4246306006448623, 0.4309874969430459, 0.43737109887001174, 0.44376624005824544, 0.450201467576777, 0.45663613048054447, 0.4631177804056219, 0.46961819434517393, 0.47611729962043475, 0.4826546135303521, 0.4892192064763755, 0.49578306196697486, 0.5023601892010962, 0.5089227019124992, 0.5155261752640149, 0.5221199837484157, 0.5287409338370171, 0.5353668701379314, 0.5419891596097438, 0.5486229667811924, 0.5552683299867686, 0.5619025190262028, 0.5685364192958575, 0.5751636736626875, 0.5817938003327774, 0.5883507893537574, 0.5949793620006051, 0.6015969823907675, 0.6082092120903113, 0.6148016468727244, 0.6214126378025081, 0.6279735005214955, 0.6345156102204047, 0.6410483461252747, 0.6475642454783234, 0.6540555358723726, 0.6605343138543366, 0.666929314956819, 0.6733716564383974, 0.6797862520903776, 0.686191272604604, 0.6925451828500577, 0.6988720516397333, 0.7051652326440891, 0.7114264690563392, 0.7176150312596549, 0.7238134255953576, 0.7299698821307619, 0.7360914852434091, 0.7421726492058183, 0.7481652381350508, 0.7541681852014699, 0.7601399547823007, 0.7660472944434201, 0.7719073787573099, 0.777711522925378, 0.783474860321063, 0.7891948753105064, 0.7948542559596761, 0.8004609103077533, 0.8060047372380403, 0.8115034561959424, 0.8169364217568421, 0.822321414435878, 0.8276467490806707, 0.8328515634562945, 0.8380618490222523, 0.8432185289109422, 0.8482939241670153, 0.8533023747511983, 0.8582379404534115, 0.863110552388209, 0.8679005664838196, 0.8726341328240108, 0.8772953003759294, 0.8818628958178164, 0.8863793355233105, 0.8908209604167867, 0.8951843467834671, 0.8994702491590982, 0.9036702540793086, 0.9077997862033834, 0.9118172174881415, 0.9157893929400801, 0.9196779453631551, 0.9235154160599283, 0.927230938931965, 0.9308147038529008, 0.934368595309758, 0.9378346090206439, 0.9412186517170588, 0.9445067220596012, 0.9477261832773991, 0.9508331974339066, 0.9538512493933572, 0.9567274578643955, 0.9595719740544918, 0.9623631377338824, 0.9650141624543792, 0.9675728919747288, 0.9699980049725383, 0.9723754329320058, 0.9746564766416039, 0.976840913919366, 0.9789285093831579, 0.980912660468761, 0.982806639268116, 0.9846319257564277, 0.986326127920561, 0.9879236375254663, 0.9893985914761355, 0.9908046787150934, 0.9921241793074129, 0.9933299306204553, 0.994436859215019, 0.9954295018363514, 0.9963401314513867, 0.9971302040577585, 0.9978429850910548, 0.9984544235193914, 0.9989596203265144, 0.9993695748757969, 0.9996860829229116, 0.9998931427629623, 1.0, 0.9999928293865109, 0.9999015526735127, 0.9997085458814489, 0.9994168314112033, 0.9990252267881734, 0.998545514573338, 0.9979537013791181, 0.9972356978039837, 0.9964512677266728, 0.9955676226026048, 0.9945992965956465, 0.9935170864070357, 0.992320273338665, 0.9910471487277334, 0.9896771107098121, 0.9882107743589879, 0.9866487576540841, 0.9849827819611842, 0.9832324069979475, 0.9813877454974087, 0.9794698666355426, 0.977436229313575, 0.9753116265507661, 0.9730966339680853, 0.9707918569777886, 0.968377583257033, 0.9658977431274369, 0.9633391404260947, 0.9606810250738734, 0.9579363182317356, 0.9550804031339214, 0.9521682001275703, 0.9491832059932699, 0.9460994603459612, 0.9429330777316801, 0.9396964743855845, 0.9363662958596023, 0.9329596161402294, 0.9294719443428272, 0.9259072310739992, 0.9222626084863852, 0.9185471629354612, 0.9147395786724369, 0.9108787689389427, 0.9069447546259382, 0.9029146108752303, 0.8988409552882589, 0.8947193457497156, 0.8905025453085363, 0.8862190416344402, 0.8818535204911757, 0.8774423628880968, 0.8729634398116418, 0.8684262423522658, 0.8638276308154481, 0.8591779045863283, 0.8544595247876217, 0.8497123805038107, 0.8448782895475027, 0.8399916527544584, 0.8350510249201974, 0.8300629476538646, 0.8249797980892835, 0.819900142542718, 0.814771083598466, 0.8095878950584638, 0.8043657056564255, 0.7991074842058121, 0.793795919667162, 0.7884431338911282, 0.7830544446745492, 0.7776232328472416, 0.7721631253604077, 0.76665934480584, 0.7611223597290058, 0.7555459223741731, 0.7499476464044378, 0.7443122729507713, 0.7386574879954199, 0.7329757265038811, 0.727246886401422, 0.7215184450616268, 0.7158044848554529, 0.7100255428736065, 0.7042283673927343, 0.6983964539988781, 0.6925689738632994, 0.6867058506117902, 0.6808518289161684, 0.6749843160601194, 0.6690922187955196, 0.6632041736641736, 0.6573028951822721, 0.6513981413449429, 0.6454870102858806, 0.6396181620089797, 0.6336931154630017, 0.6277220023526151, 0.6218060115165349, 0.6158906547779696, 0.6099952854077215, 0.6040835623045441, 0.5981818417073288, 0.5922833272269304, 0.5863938380445957, 0.5804764916671799, 0.5746136763099203, 0.5687882392306918, 0.5629449503049503, 0.557076208658401, 0.5512698034832346, 0.545478854564222, 0.5397189078056215, 0.5339617211785874, 0.5282519968764388, 0.5225342431857816, 0.5168413080345897, 0.511175488260329, 0.5055351055437198, 0.4998845380724961, 0.4943059236581748, 0.4887551571447354, 0.4832246499553547, 0.4777346014564483, 0.47228207267773814, 0.4668548054352718, 0.46146153641652315, 0.45612627990826826, 0.4508014510150222, 0.4455240791106235, 0.4402760787649455, 0.4350688143816091, 0.4298547201169863, 0.4247373132088444, 0.4196462157504958, 0.41461231552326766, 0.4096201586687778, 0.4046861561827294, 0.3997789474340758, 0.394889633538248, 0.39007856203519425, 0.38531346875934, 0.3806042672779065, 0.3759329799448375, 0.3713148441703563, 0.36674251875010005, 0.3622212462227947, 0.35773770011403877, 0.353322255975545, 0.34894498137008273, 0.34463630319619615, 0.340380317285994, 0.33622224305759957, 0.33206809259772274, 0.3279622081848036, 0.32392372494061006, 0.319942323265249, 0.3160348136927729, 0.31216630963923164, 0.3083413568924499, 0.30459251634477474, 0.30090185610115733, 0.29723019184019317, 0.29366157476546423, 0.29017120943054886, 0.28671362979795834, 0.2833148494057546, 0.27994584029962405, 0.2766689906923596, 0.27344987637245516, 0.27028886958480003, 0.267186286905379, 0.26416782660024407, 0.2611796207963431, 0.2582468294219074, 0.2553801912926976, 0.2525735978662444, 0.24980281925789524, 0.24711914620353256, 0.24450025499542344, 0.2419326897827856, 0.2394239908344024, 0.23698044515500694, 0.23458842783279618, 0.23222480242295418, 0.22995425320311175, 0.2277404499153455, 0.2256024540209345, 0.22349963784707214, 0.22145953318925513, 0.21947101295932842, 0.21753975982736937, 0.21564375995920212, 0.2138285735901819, 0.21208474122628995, 0.21037684129425807, 0.20872412014785263, 0.2071146619505776, 0.2055723182147773, 0.20407415133581364, 0.20263866664359048, 0.20125488746323697, 0.19993385643733005, 0.19865080150928943, 0.19738445727430484, 0.19620725198958486, 0.1950779824524527, 0.19400266950973744, 0.1929674066329542, 0.19197419639806734, 0.19103333375939732, 0.19013825045724486, 0.18931002458180646, 0.18850211304961137, 0.18773185008108953, 0.18701465929742422, 0.18634071334727956, 0.1856838324874193, 0.18509734349533402, 0.18455548935119107, 0.18404688149396825, 0.1835769291517779, 0.18316402939648443, 0.182766918016519, 0.1824112450100417, 0.18208800248506243, 0.18180080822107975, 0.18153220718342486, 0.18131643555206778, 0.18110378069704722, 0.18095566159781565, 0.18083669957187753, 0.18076413133522093, 0.18069949159984286, 0.18064538769667216, 0.18063885962599424, 0.18065802372880693, 0.1807365190832406, 0.18080061011728246, 0.18089142619368476, 0.18100522026879884, 0.18114246946081677, 0.18132758582264807, 0.18150547972108735, 0.1816378368444736, 0.18186679571862552, 0.18211150763031717, 0.1824146419077331, 0.18268365320360916, 0.18295632060722716, 0.18325867561166517, 0.1835746881185126, 0.18390348624579667, 0.18424420191638158, 0.18461123150747386, 0.18497126554604035, 0.18534149567947983, 0.18569170091461157, 0.18608312569090704, 0.18647389079774013, 0.1868768381744228, 0.18728375767242447, 0.18771688996909558, 0.18812689576611083, 0.1885312662431971, 0.1889480604271287, 0.18936589610935095, 0.1897725588931734, 0.19019162246748408, 0.19061133759084958, 0.191025636373047, 0.1914368625161662, 0.1918456004322289, 0.19224845986632155, 0.19259920824205926, 0.19299720903755824, 0.19338613423783615, 0.19379493148287047, 0.19416106351431675, 0.1945174711419528, 0.19486621750737276, 0.19520516147087924, 0.19555275637955083, 0.19586782261070929, 0.19617357877421687, 0.19646656386643196, 0.1967475522545025, 0.19700820047755885, 0.19726404701887326, 0.1974977778701622, 0.19772504351736592, 0.19793626275531692, 0.19811569489180708, 0.1982953183031684, 0.1984629829580629, 0.1986048384132095, 0.19872806976535073, 0.19885645140051877, 0.19893822207172449, 0.19900157986653796, 0.19904596345849193, 0.1990708444839161, 0.19905156384294392, 0.1990390337762612, 0.19903094825993578, 0.19897030295638107, 0.19888846428035958, 0.1987595728861138, 0.19863731803889392, 0.1984938017426542, 0.19832348408716075, 0.1981216127660116, 0.19790426547108358, 0.19766227840583356, 0.19739049287663232, 0.1970996541998289, 0.1967696889242689, 0.19643031755417326, 0.19606497158794278, 0.19572206246336532, 0.19529890727292767, 0.19481965511941274, 0.19435428638959215, 0.19386341680259483, 0.19333562388653946, 0.19279527361075605, 0.19227083218600893, 0.19167319648691866, 0.1910521250202857, 0.19039215031271953, 0.18972555735206717, 0.188999838564559, 0.18828804036686117, 0.18754961181841986, 0.18678362875960844, 0.1859931265543032, 0.18522778669986134, 0.1843797593550181, 0.18350950581781, 0.18256859268079706, 0.18165971441418152, 0.18074732130728072, 0.17978584768989517, 0.17880125240698783, 0.17777848509735003, 0.17675021957606876, 0.1757100921263349, 0.17463413833732477, 0.1735362637117131, 0.17240530076278424, 0.17126587609488422, 0.17011874387885745, 0.1689345614300582, 0.16773027372191823, 0.16651380144147296, 0.1652692252272664, 0.16400588835846114, 0.16272406358481703, 0.16142404457074647, 0.160065450364374, 0.1587351458048803, 0.15738026914348896, 0.15601232807618276, 0.15462597224514607, 0.15323841657134432, 0.15181516440847048, 0.15037767272665706, 0.1489237200486807, 0.14745529220298964, 0.1459893928709063, 0.1444913412877455, 0.1429442839915152, 0.14142698689323097, 0.13989620214873055, 0.13837295448276965, 0.1368146341230348, 0.13528027702898557, 0.13369732959441274, 0.13210686095099686, 0.13045692675166468, 0.12885863268461192, 0.12724804803379725, 0.12563130316435345, 0.12400608963852594, 0.12241125733576673, 0.12076635914629494, 0.11913115825045235, 0.11747624410868714, 0.11581851708923546, 0.1141277225938931, 0.11246905897837255, 0.11078259875931244, 0.10912031924341828, 0.1074542376383177, 0.10582073854649106, 0.10414485132406821, 0.10244396764182925, 0.10077257629765078, 0.09910101712735188, 0.09746552878845846, 0.09579100911240143, 0.09410236141465034, 0.09243774269157332, 0.09077641965824172, 0.08912777729646787, 0.08747336881376584, 0.08581402878772075, 0.08417179844021182, 0.0825350614411075, 0.08088142883595444, 0.07926007102674025, 0.07767492828311692, 0.07606176699920282, 0.074457316730863, 0.07287338730118634, 0.071286010897198, 0.06971799770427513, 0.06815070308310109, 0.06659495179552276, 0.06501283044713826, 0.06348571948241213, 0.06198276251696155, 0.0604748035733927, 0.058978947379061744, 0.05750451982156855, 0.056033005314978956, 0.05455371523137022, 0.05311294164627024, 0.05168543862749509, 0.050289500658163296, 0.04888773533710011, 0.047491465625366464, 0.04612260223026015, 0.044769388421375386, 0.043462696767374534, 0.04213796456701407, 0.040798543545219376, 0.039514806381066594, 0.0382477341382908, 0.037047284100410305, 0.035808333989826274, 0.034597484753309336, 0.03339841457840734, 0.03222008134244393, 0.031021691832783506, 0.02988971174242849, 0.028839561812129533, 0.027736343387195845, 0.026655538456621147, 0.025570200233586523, 0.02453691948223831, 0.02357228177883532, 0.022573619468911937, 0.02159817268728674, 0.020643104870130734, 0.019713579346724006, 0.018796212038362018, 0.017912490588889163, 0.017050267581378436, 0.01625022717391051, 0.015425836802626122, 0.014651934610246537, 0.01387142160981493, 0.01311561215953598, 0.012376434082332206, 0.01166973084997769, 0.011058637440538803, 0.010388795717052453, 0.00974573789285888, 0.009118548916954863, 0.008528216923669263, 0.007981226586240503, 0.007436612569740872, 0.006916586003288233, 0.00642578254979856, 0.005952995655566398, 0.00555985878147882, 0.005127057630264399, 0.004720476136558905, 0.004350863351160753, 0.0039932747492353975, 0.00371539952737825, 0.003400407465609305, 0.0031124854814177988, 0.0028329749677968178, 0.0025989890011147926, 0.002432062844120651, 0.0022398349522663617, 0.0020730739412203, 0.0019527384956928512, 0.0018322835656814254, 0.0017456778540112315, 0.0016733859034865077, 0.001625407519569775, 0.001626647176007281, 0.0016225614697147946, 0.0016949674593743473, 0.0017324431959974708, 0.0017961667392838642, 0.0018776712952290446, 0.001992451423246346, 0.002186801952260633, 0.0023412471042397213, 0.0025215294363483656, 0.002714112470310868, 0.002945323637608517, 0.0032478275863817123, 0.0035184290885839796, 0.0038138973942993606, 0.004150050970763429, 0.004491115270873814, 0.004878992840850598, 0.005264410305045612, 0.005673918850710426, 0.00611706048583089, 0.006571655052943407, 0.007058163147614887, 0.007557167447872758, 0.008090219724756733, 0.008632549897949555, 0.009197320912309435, 0.009843891944511863, 0.010444814725822517, 0.011041220118827648, 0.011694567020548361, 0.012369628140679417, 0.013116954930911997, 0.013828112767977085, 0.014565573728271596, 0.015323332316681785, 0.01610388196078033, 0.016916935106085555, 0.01774046509372515, 0.018600158081202064, 0.01946590618818082, 0.020353946646909447, 0.02126391211324649, 0.022195493404837216, 0.023180225113362946, 0.02415029074630061, 0.025143114485786006, 0.026181194506828157, 0.02721552619828301, 0.028230939284756628, 0.029316263089192517, 0.030421528678796456, 0.031576039554232556, 0.03271766511791631, 0.03389632852479252, 0.03507942631166605, 0.03628488649116382, 0.03754174840998686, 0.038787649560457396, 0.040037974919970125, 0.04133295789746438, 0.04264977104676941, 0.044013785095436214, 0.0453708821531345, 0.04675621697988767, 0.04815878201374874, 0.049584447117906265, 0.05104451167292774, 0.05251453364012487, 0.053996534900084985, 0.05551472640208587, 0.05705548762954701, 0.05861377429229879, 0.06020046652142474, 0.06185668353615504, 0.06348251039906738, 0.06513373855847826, 0.06680378872453413, 0.06850601512376706, 0.07021116174642579, 0.07196517615374752, 0.07374250208866187, 0.07553572130993176, 0.07736127488075166, 0.07920781560844824, 0.0810810349682209, 0.08297820265281229, 0.08493013161148175, 0.08687220634783611, 0.08887894754520721, 0.09086925578997412, 0.09288829685818775, 0.09492057613335421, 0.09699836715621575, 0.09908442377728917, 0.10121935322715689, 0.10338066883571273, 0.10554699961639016, 0.1077645658005266, 0.11005128968161824, 0.11231565384044166, 0.11460919204720797, 0.11692176622297593, 0.1192750699509312, 0.12167368662809658, 0.12408264548902559, 0.12652168709955483, 0.12898705992598888, 0.1314869613605053, 0.13400553824526376, 0.13656727875602293, 0.1391588092206728, 0.14175877252446875, 0.14441339693530528, 0.14709228296507287, 0.1498066689004076, 0.1525509342459989, 0.1553343918433471, 0.1581384953912826, 0.16097540045353292, 0.16384266418850854, 0.16674203838386706, 0.16967629150418168, 0.1726402296051318, 0.17563833628850695, 0.17866808139519125, 0.18173113594994222, 0.18483782370325322, 0.18796665611295604, 0.19111199963870226, 0.19431176462141414, 0.19754495344750372, 0.20077743297166475, 0.20408240258698898, 0.20741307149215, 0.21078339357070383, 0.21418623432524475, 0.21765377750992596, 0.22111876313473747, 0.22458602443609144, 0.22812587540331836, 0.2316992163644118, 0.23531902512513156, 0.23895848238815853, 0.24263027021162312, 0.24633984888872765, 0.2500842450201008, 0.2538762136224559, 0.25768873279795873, 0.2615164965154971, 0.26540265540368313, 0.26932302871750236, 0.27328401572351696, 0.2772721119455989, 0.28126430937160163, 0.28532542850962683, 0.2894192829100119, 0.2935345645201891, 0.2976957038098872, 0.3018790444441689, 0.30610632545638167, 0.31036557474492527, 0.3147039420204297, 0.31902141989014665, 0.3233126103188111, 0.327706893273321, 0.33213167091991214, 0.3366251772483031, 0.3411063136590835, 0.3455832909441471, 0.35013414960342903, 0.35471489101150083, 0.3593546667396187, 0.3639911396745601, 0.3686192941646043, 0.37332250495104047, 0.3780536921344509, 0.382801260371309, 0.3875893508762233, 0.3923876578030816, 0.3972311483421239, 0.40210003692996593, 0.40701706661163256, 0.41193335703849465, 0.41687317572500904, 0.4218414397553154, 0.426834628020835, 0.431819162686063, 0.4368648160359432, 0.44192811559781553, 0.44701686234603316, 0.45212618122297443, 0.4572429745940408, 0.462393855509261, 0.46756712771073755, 0.4727542673732757, 0.4779593245371666, 0.48316395723481514, 0.4884054469981488, 0.4936379652974467, 0.4989123890952973, 0.5041995947358133, 0.5095195288180255, 0.5148284595767783, 0.5200926985489914, 0.525433192134793, 0.5307814968298762, 0.5361499926782529, 0.5415112195906892, 0.546861919991934, 0.5522392904837161, 0.5576215670928524, 0.5629903353533641, 0.568382785378506, 0.5738013050828612, 0.5791938909846017, 0.5845884318797872, 0.5899674629558399, 0.5953651808063681, 0.6007152744631123, 0.606114226766171, 0.6115069970473515, 0.6169400725990876, 0.6223127601772649, 0.6276482048250317, 0.6330128679642792, 0.6383400266429804, 0.6436882730208054, 0.6490235862414842, 0.654324875232483, 0.6596346055835429, 0.6649532971488391, 0.6702261319152653, 0.6754823912916639, 0.6806879567347592, 0.6859120588601987, 0.6911183144206459, 0.696297760754207, 0.7014540110622298, 0.7065632030701842, 0.7116730059469049, 0.7167527710994794, 0.7218070287378334, 0.7268318474440979, 0.7318084800176967, 0.736773803439718, 0.7416752285225564, 0.7465767547698826, 0.751441346248506, 0.7563013311727842, 0.7610856022730702, 0.7657739073755633, 0.7704894691841299, 0.7751619314886519, 0.7798032948219357, 0.7843857375376544, 0.7889501679665005, 0.7934388119706028, 0.7978822344678489, 0.8022384859779739, 0.8065928506985236, 0.8108743445898479, 0.8151280318549088, 0.8193274089755681, 0.823474228510602, 0.8275622476397333, 0.8315643531174491, 0.8355418164012898, 0.8394591000467608, 0.8433141985820858, 0.8471090372983737, 0.8508285779586551, 0.8544990223924751, 0.8581044637478855, 0.8616275805117671, 0.8651027059562254, 0.8685234317239645, 0.8718592769768445, 0.8751260163262375, 0.8783481764857263, 0.8814707592667455, 0.8844911304625215, 0.8874757699543858, 0.8903859841708924, 0.8932324037606401, 0.8959898721946332, 0.8986647453985862, 0.9012696335141317, 0.9037961220943291, 0.906256100735854, 0.9086217119645161, 0.9108957464743392, 0.9131016516240557, 0.9152250311568684, 0.9172715024511752, 0.9192268206338804, 0.9210952556618243, 0.922881477896711, 0.924581767873042, 0.9261789286047885, 0.9277074731973601, 0.9291243441502036, 0.9304777567861676, 0.9317401901080824, 0.9328910391849025, 0.9339733015361981, 0.9349524651235686, 0.9358500456849297, 0.9366538733495307, 0.9374058401536756, 0.9380166125922729, 0.9385204446981342, 0.9389493243058815, 0.9392847769097407, 0.9395010967431991, 0.9396521135668174, 0.9397189614486119, 0.9396772938060561, 0.9395406326439484, 0.9393203183778928, 0.9389919230432622, 0.9385663636327108, 0.9380488999383774, 0.937436406251233, 0.9367428043444711, 0.9359383098461261, 0.9350102063731601, 0.934020596480673, 0.9329348411955443, 0.9317264613707886, 0.9304524823211637, 0.9290981059614225, 0.9276286581670687, 0.9260641586238598, 0.9243960356655079, 0.9226435621151914, 0.9207991130984993, 0.9188577270602902, 0.9168228674822194, 0.9147140561544067, 0.9124911924268454, 0.9101734978666671, 0.9077694287988327, 0.9052748558697603, 0.9026953162462172, 0.9000204765585976, 0.8972377926050003, 0.8943883338138101, 0.8914500858295997, 0.8883869018106466, 0.8852779504018637, 0.8821159913677821, 0.8788263856542583, 0.8754523001283362, 0.8719588857782151, 0.8684226425239977, 0.8648404212110157, 0.861132215622082, 0.8573442495381485, 0.8534773173272275, 0.8495322471903469, 0.8454819229435927, 0.841386729225544, 0.8372145050437376, 0.832990591091357, 0.8286647879039271, 0.8242515912586988, 0.8197844447051539, 0.8152463258465945, 0.810633323632164, 0.8059574434706092, 0.8011935250628941, 0.7963860919940876, 0.7915123484701994, 0.786609340947807, 0.7816027818558178, 0.7764967784285909, 0.7713762904621002, 0.7661958612995574, 0.7610040536920272, 0.7557023132367233, 0.7503159821722293, 0.7449137728151211, 0.7394592397693448, 0.7339614594516535, 0.7284056585029067, 0.7227934157220055, 0.7171450627446625, 0.7114514891482677, 0.7056887626723517, 0.6999124723100605, 0.6941220281000289, 0.6882596570337917, 0.6823601419233889, 0.6763918738573715, 0.6704266282979912, 0.6644407719400437, 0.6584063133397926, 0.6523415261369835, 0.6462289331251149, 0.6401106905057197, 0.6339988942554279, 0.6278249756914785, 0.6216297528877905, 0.6153841378019691, 0.6091544783035103, 0.6029048716811535, 0.5966397409673703, 0.5903592814955665, 0.5840995203476322, 0.5777891185476377, 0.5714601638721939, 0.5651356559937255, 0.5588049506177352, 0.5524364697547812, 0.5461020130489571, 0.5397716056577774, 0.5334307861757205, 0.5270903099931112, 0.5207200265015537, 0.5143891618160873, 0.5081024167268593, 0.5017750981602631, 0.4954571207935088, 0.48909267754235036, 0.48280487359411867, 0.47655669945784557, 0.4702878304801586, 0.4640346650428679, 0.45782288327581366, 0.4516026006246468, 0.4453568100465136, 0.43918682253551855, 0.4330471573120529, 0.42692052463342317, 0.4208190437664634, 0.4147492780952436, 0.40870185498463046, 0.4026994632243321, 0.39671099542600596, 0.3907558172657366, 0.38481348416007505, 0.3789311342065526, 0.37308054590977746, 0.36727115533964033, 0.361499742654271, 0.35574725236750027, 0.3500582091193858, 0.3444339388657241, 0.33882441994156304, 0.33325953244095097, 0.3277149073887932, 0.3222456717781551, 0.3168214990662838, 0.3114462984779861, 0.30611972418830663, 0.3008365412518455, 0.2956113501086608, 0.29044529931589846, 0.2853232125092523, 0.2802551166622713, 0.27524954178099664, 0.27029112951721995, 0.26536939034961154, 0.26052833270341746, 0.2557446135215234, 0.25103816705668686, 0.24636924603618715, 0.24171794421740472, 0.23717678342327608, 0.23269519294262037, 0.2282689733798803, 0.22390976480143995, 0.21964283555084382, 0.21540403277366632, 0.21123013748322875, 0.20710627735916592, 0.20306526858243892, 0.19911102780500956, 0.19519802869171093, 0.19135224374681203, 0.18757895681179798, 0.1838675348113839, 0.18017456620130426, 0.17660562614432404, 0.17310216531890318, 0.1696697569364994, 0.166298007015978, 0.16301364069189256, 0.15977365638436647, 0.1566023324726983, 0.15346788383349663, 0.15043789824883783, 0.1474607505893446, 0.14456637819616353, 0.14173837461226935, 0.13900236956219908, 0.13630441202219326, 0.1336428596109822, 0.13108512920920265, 0.12859340993481758, 0.12619442166305758, 0.12383133352599787, 0.12152418394213403, 0.11929694799158246, 0.11713570764649593, 0.1150261622123015, 0.1129977135601378, 0.11102199942484885, 0.10912306559439412, 0.10728704329217995, 0.10555307291391086, 0.1038369940757686, 0.10214308339852024, 0.1005598417760234, 0.09903690430115546, 0.09756242271598016, 0.09616028591797099, 0.09483427162169038, 0.09354608218252819, 0.09231628348793551, 0.0911645462184684, 0.09004690297088172, 0.08896380119941882, 0.08796300681253638, 0.08701654068796605, 0.08611604517933356, 0.08527699240681674, 0.08450611436007989, 0.08376751859661548, 0.08307998798348877, 0.08244132370833994, 0.0818532940286566, 0.08129310333292636, 0.0808030751309988, 0.08035819459011338, 0.0799780093411065, 0.07961842344603234, 0.07929628335927211, 0.07902406429135299, 0.0787931981555576, 0.07857597829911012, 0.07842818127282719, 0.07831211893910349, 0.07823779313283956, 0.07819833847430803, 0.07821453262622007, 0.07823952943462249, 0.07830053159673855, 0.07839102295591657, 0.07851289982098206, 0.0787019063893894, 0.07887848689853465, 0.07901008864445234, 0.07925482708506121, 0.07952258152922104, 0.07984693096594594, 0.08015406204640517, 0.08047356500561981, 0.08082592177125464, 0.0811979529289973, 0.08161021354330186, 0.08201566234840144, 0.08241589863703612, 0.08285834383842439, 0.08331469345797542, 0.08376992508279374, 0.08425274441553252, 0.08478371473464517, 0.0852807746843174, 0.08578808743513416, 0.08628021828048103, 0.08680730069830236, 0.08735861640364191, 0.08789260047867882, 0.08843080702179933, 0.08891612447896134, 0.08946639920051905, 0.09003087564548444, 0.09057374959938286, 0.09111388316994365, 0.09167076961051136, 0.09220027647381032, 0.09271160181124508, 0.0932334462067299, 0.09374823771242607, 0.09424490143480045, 0.09474417133391422, 0.09524202246181715, 0.09571871621785785, 0.09618396612894514, 0.09664578724529604, 0.09708437268071209, 0.09749539320249735, 0.09790766659056249, 0.09830374311439269, 0.09871209745026661, 0.09906976620151019, 0.09939913339764495, 0.099723551564755, 0.10002854068669313, 0.1002967532192082, 0.10056255255030908, 0.10081198051501154, 0.10103090645979126, 0.10122624692185136, 0.10140117154648633, 0.10154693833244431, 0.10165981562501886, 0.10175540160683177, 0.10182406741119586, 0.10186401799939443, 0.10187744768855346, 0.10184328160535178, 0.10180161174503674, 0.10172942394116671, 0.1016137130047281, 0.10148122877587942, 0.10132045475242066, 0.10112308858373781, 0.1008934423765867, 0.10068469067724668, 0.10038302217339014, 0.10002593136239377, 0.09966684377474874, 0.09927508437095581, 0.09884650082542512, 0.09838889615016524, 0.09790765005190806, 0.0973809042873268, 0.09682048726347363, 0.09618925807671522, 0.09556540812469669, 0.09490385554638045, 0.09420743239793078, 0.09348238508040822, 0.09271261377026598, 0.09190726283140725, 0.09108673770569208, 0.09020783825906147, 0.08927817017007598, 0.08833281070895344, 0.08735216459893498, 0.0863338067098666, 0.08528327667932693, 0.08420661358945948, 0.08308506780740714, 0.08192935796991073, 0.08074216035603744, 0.07951822171336652, 0.07824419462051323, 0.0769554110808368, 0.07563252225809669, 0.0743013189081163, 0.07290808029470908, 0.0714832529470524, 0.07002700970567054, 0.06853955731188728, 0.06700333091561568, 0.06545645812760519, 0.06390616028143863, 0.062293414103137705, 0.06065178109503105, 0.058926839075337134, 0.05723516473162359, 0.055530227719868375, 0.05377497262641425, 0.051991231650295816, 0.05019996573551118, 0.04835852153706268, 0.046469955870525645, 0.04458069154210966, 0.04266563750758438, 0.040726734872405294, 0.038761947358829686, 0.03676963106575336, 0.03475855587493564, 0.03272486986634686, 0.030664179337596197, 0.028587993429559703, 0.02650752133244925, 0.024388343120526224, 0.02225073950113355, 0.02008131696326353, 0.017910431131919678, 0.015739966868701428, 0.013532814738976493, 0.011310775908640899, 0.00906936666414833, 0.006820023883555619, 0.004563726653447853, 0.0022876456414689405, 0.0