0.03543602010415581, 0.03522262636435172, 0.03502890954935439, 0.03486155967830808, 0.03466636947576662, 0.034537453517451217, 0.03441875046079714, 0.0343278320200638, 0.03422262629880022, 0.034076771911911136, 0.033991004199485496, 0.033893431223776846, 0.03381425421949803, 0.033736240420022545, 0.03375511943283339, 0.03366726459889307, 0.03358840051135107, 0.03351278873514637, 0.03344274768647372, 0.03334434408577096, 0.0332885478052306, 0.03319480344344806, 0.033149797982340225, 0.03310557129367252, 0.033110538537915755, 0.03306338924687653, 0.03301885313919307, 0.03298211584779448, 0.03295046988281376, 0.032873803438607775, 0.03285921733367397, 0.03285942343376897, 0.0328495792015672, 0.032844412709259786, 0.032808445468912, 0.03281845569057887, 0.032863483979160196, 0.032877995534691735, 0.03289939154724436, 0.03289444329130199, 0.03293470153324967, 0.03302388156434591, 0.0330708535408751, 0.03312704705091675, 0.033159019038265035, 0.03323812771280181, 0.033341579188014496, 0.033434093349064185, 0.033535818362796975, 0.03358467093241018, 0.03371318292323434, 0.03387901818923412, 0.03401663920914064, 0.034163435314926, 0.034362775107238765, 0.03452326638246817, 0.03460033368536568, 0.03479749310656944, 0.03500138583011452, 0.035306078510941155, 0.035513632842753565, 0.03569911348818343, 0.03593863764138651, 0.03618952657041162, 0.03641359159646443, 0.03669241198744351, 0.03698798936755274, 0.03728547958321943, 0.037593769647073554, 0.0379490761758167, 0.03827531209661868, 0.038615210202252295, 0.03896872816564165, 0.03933584538030073, 0.03968064756271993, 0.040079521206107784, 0.0404900312853762, 0.040912517307915, 0.04134729735992675, 0.04179706461570236, 0.04225700964371821, 0.042706287718963024, 0.043196044585147704, 0.04369819030594122, 0.04416764103412529, 0.044701505000490006, 0.0452654865813335, 0.045819541349226195, 0.04638693653991741, 0.04700159211709381, 0.047592594564609444, 0.04814963407399573, 0.04877965801267747, 0.0494232464541106, 0.05004493419640546, 0.05072149365051177, 0.05143476088148453, 0.05213443968067896, 0.052849391082161676, 0.053613428109787774, 0.054355535516690125, 0.05504854668581963, 0.05583495473897336, 0.05663543122228961, 0.05751272441650526, 0.05833490217298277, 0.05912089917614037, 0.05998765368284318, 0.06086990426241744, 0.06182543287882755, 0.06273233123225405, 0.06368274048585859, 0.0646255015413699, 0.06558871017801716, 0.06651930900029408, 0.06752896861237723, 0.06855271126948063, 0.06959579566488454, 0.07065553921668233, 0.07174166951810464, 0.07283395358681355, 0.07391749452551961, 0.07504831702787046, 0.0761952916608583, 0.07743765012802697, 0.0786075714770982, 0.07976034246361767, 0.08097692124746227, 0.08221155883265752, 0.08342585577535341, 0.08470118489035545, 0.0860089209235086, 0.08731365191487742, 0.08863538695568235, 0.0899980894280677, 0.09135085313548612, 0.09265973293069954, 0.09405688671801493, 0.0954684962975806, 0.09685177110630061, 0.0982986042532657, 0.09979175157000447, 0.10126043644662017, 0.10274471288498586, 0.10429013985703191, 0.10580001524995884, 0.10729940117042035, 0.10884899363860981, 0.11041443518836773, 0.11195009996664675, 0.11355257103079398, 0.11518464812237574, 0.11681088059354824, 0.11845121813292926, 0.12020137417480588, 0.12185761242252785, 0.12345406149701854, 0.1251578221113801, 0.1268746225360943, 0.12861390271940792, 0.13035514046069635, 0.13213582199926885, 0.13389967375739464, 0.1356775641783402, 0.13741632553196081, 0.13922749088725453, 0.14112971919519715, 0.1429498918566603, 0.14478421920885623, 0.14650266641260556, 0.14837946298470756, 0.15025866817109135, 0.1521457965233253, 0.15403834462752466, 0.15596051530991434, 0.15786157519122807, 0.15980346232498074, 0.16171474525949747, 0.16363487195355592, 0.16555377198660287, 0.1674913203448301, 0.16943331058965783, 0.17138442689051797, 0.17334142372453681, 0.17530389964102178, 0.17727144482357685, 0.17917181406379634, 0.18115731922910494, 0.18314258803637998, 0.18520198132925003, 0.18717773262074947, 0.18911929717025114, 0.1911074664540263, 0.19309628775196017, 0.19506149064181028, 0.1970536352367517, 0.19908473637590093, 0.20106804204114206, 0.20305144259484992, 0.20506545657178868, 0.207043298654326, 0.20899724142084988, 0.21097736111834517, 0.21295454536376704, 0.21493540409737766, 0.21690409745779735, 0.21889250193770662, 0.22084909307137796, 0.22280158445392934, 0.22467257872828417, 0.226624247579653, 0.22859160735472317, 0.23051858010971593, 0.2324433669406897, 0.23435030889688455, 0.23624749840647546, 0.23808897049638958, 0.23997097803377945, 0.24193022106880438, 0.2437731078409269, 0.24560705505886382, 0.24742632429729, 0.2492401992158013, 0.25100385674911674, 0.25279798486698274, 0.25457654379696604, 0.2563271621967519, 0.2580748853123543, 0.2597931645085264, 0.26150712275662363, 0.26320225043571965, 0.26485433064065944, 0.26651397351299844, 0.2682267606076525, 0.26983470768048995, 0.27142538731427435, 0.27297162883259607, 0.2745286419649631, 0.27611241017139276, 0.2776205979194199, 0.27910932643877234, 0.2805465852769177, 0.2819977284284461, 0.28338206839402125, 0.28479075819609556, 0.28617235377493916, 0.2875051820530671, 0.2888349044558109, 0.29016218501657853, 0.29143097533749757, 0.2926723297191257, 0.293849991661807, 0.2950399772762222, 0.29624255285324036, 0.2973659988397289, 0.29846116179886906, 0.2995634563288375, 0.3005960272926646, 0.30160087072867886, 0.30257723647340906, 0.3035244228458485, 0.3044274076344155, 0.3053161232688447, 0.3061179375867988, 0.3069495238178967, 0.3077453548476579, 0.3085413988499829, 0.3092613040536838, 0.3099475242259669, 0.31059972552564996, 0.31121758509670067, 0.31178881992191393, 0.31233858559482985, 0.31280933950107537, 0.3132925418251344, 0.31373704568366867, 0.31413343820778217, 0.3145022069912725, 0.31486802694268917, 0.3151546618163641, 0.31540467762150454, 0.315601090422237, 0.31577932369333356, 0.31592653540970705, 0.31602739163120935, 0.3160903204130647, 0.31610082891275987, 0.31608934263335653, 0.31611058587528956, 0.31601182982755954, 0.31587801736248367, 0.3156199828867723, 0.31542559359300865, 0.31522316570699516, 0.31494175041551725, 0.3146212820834234, 0.3142952781139593, 0.3138924685761037, 0.3134381440355988, 0.3129626101755483, 0.31244868156359396, 0.31192504884046773, 0.31133060146527286, 0.3106634094970247, 0.30999964060646906, 0.3092966739943529, 0.3085211745276353, 0.3077446108869251, 0.3069443028999207, 0.3060850880090671, 0.30518723629601197, 0.30429892704319, 0.30331862826738576, 0.30226016263105404, 0.3012150805984242, 0.3001323760576802, 0.29905310196992096, 0.29789105805554844, 0.29666599780218567, 0.2954390424846899, 0.2941762859861278, 0.29289243514433144, 0.2915572927665652, 0.2901882061049337, 0.288785428002544, 0.28734923485015856, 0.2858918965591726, 0.2843882767021397, 0.2828193520680347, 0.28125666200243393, 0.27966085948490566, 0.2780756299351092, 0.2764099125081992, 0.27464102465200685, 0.2729270181550564, 0.2711803841419503, 0.26943074906542713, 0.2676178728319882, 0.2657502132562929, 0.2638843293614451, 0.2619896323223953, 0.26010041058857164, 0.25814613161257816, 0.2561456095146475, 0.2541451012804651, 0.2521195785433445, 0.2500696851618604, 0.24799605959276325, 0.24593764431216625, 0.24381361133506116, 0.24166989221303725, 0.23945892325558663, 0.23728288855742063, 0.2350807673010929, 0.23286355360703043, 0.2306263782415708, 0.22835569158500094, 0.2260828380357043, 0.2237987926939843, 0.22148916319075387, 0.21916329785604413, 0.21685309466017377, 0.21449312647644772, 0.21207066827585844, 0.20969312198543974, 0.20730153742217078, 0.20495909764196998, 0.2025343318622719, 0.20012088241612813, 0.19767836782861029, 0.195229827491684, 0.1927587730662756, 0.1903011671156973, 0.1878184077008494, 0.1853517737414687, 0.18287918544022075, 0.18043490684436111, 0.1779484036678147, 0.17543371912944253, 0.17294732656145984, 0.17045858227511324, 0.1679442843112431, 0.1654560837818892, 0.16296161536072892, 0.16047198795019846, 0.15798243841249215, 0.15555613055836215, 0.1530615780684083, 0.15051579396340803, 0.1480413038537536, 0.14557053169394638, 0.14310913969147057, 0.14064779326624602, 0.1381929789244302, 0.1357454595409043, 0.13330598177377267, 0.13088964247361906, 0.1284666110917556, 0.12598993376696363, 0.12359764763213084, 0.1212138816100225, 0.11888043317926864, 0.11651178171816697, 0.11415703094848373, 0.1118167702099658, 0.10949157965687249, 0.10723949269034236, 0.10493888268617703, 0.10260797716095373, 0.10035377633896658, 0.09811695544417993, 0.09584781610047313, 0.09365384294290745, 0.09146895170016979, 0.08930936480165123, 0.08716747470530067, 0.08512317877807983, 0.08300929383777793, 0.08090566139263734, 0.0788429161681306, 0.07676109343144578, 0.0747520990961749, 0.07276524310096438, 0.07084903940636714, 0.06890225593863332, 0.06695095283624389, 0.06506145792342326, 0.06319712350491416, 0.06138949998515544, 0.05957280808543534, 0.057781849957063244, 0.056021838374284934, 0.0542900778736792, 0.05250293630490824, 0.050838779927504324, 0.049222631908700284, 0.0476044337748886, 0.046013270060995363, 0.044519076726730104, 0.0429746648544326, 0.04145537483668911, 0.03997629690962384, 0.038528786070217855, 0.037036161083107665, 0.035661292928527925, 0.034359034874581244, 0.033033246051823346, 0.03173824679766938, 0.03052680742851804, 0.029287005547243502, 0.02803331816154211, 0.026867206698744813, 0.025731721298229142, 0.02459104499807657, 0.023521625355384358, 0.022543304533363017, 0.021524044036277567, 0.020537739847803375, 0.01961046086079092, 0.018685952768540466, 0.017730478937504204, 0.016881065711891338, 0.016060865182159136, 0.015260448723071814, 0.014500291145264826, 0.013778717755092056, 0.013075480193514418, 0.012401978730659416, 0.011734229809753628, 0.011123077798203752, 0.010595183771691224, 0.010033524719761617, 0.009503250397159295, 0.009011086928185497, 0.008541319358793797, 0.008068493890665468, 0.007663412448458894, 0.007285976813670987, 0.006955164425164361, 0.006630046580797074, 0.006273197625993165, 0.006011503959850083, 0.005773787386972263, 0.005665480551958452, 0.005462593658845931, 0.005260943078192185, 0.005120693775031573, 0.005006997990936528, 0.004971940669092921, 0.004902944043152286, 0.004816251634045967, 0.004807631372921498, 0.004822385989060499, 0.004831305031595934, 0.004895008677498966, 0.005010174964751278, 0.005110379993292667, 0.005232165855379853, 0.005372597112664133, 0.005536230951621589, 0.005808295278224055, 0.005999910718284818, 0.006215334762077273, 0.006436594346724698, 0.006698203533219767, 0.006938595616765037, 0.007243482284333158, 0.0075639381286000075, 0.00795700120228056, 0.008300054066297424, 0.008677376564782424, 0.009052431559075928, 0.009444192578403923, 0.009839754704184953, 0.010263698864774861, 0.010813575330909675, 0.011249416560727277, 0.01170364590795576, 0.01215318726776311, 0.012642469430080735, 0.013144739823808507, 0.013659010400434006, 0.014184369366599388, 0.014743915395367858, 0.015285952756460388, 0.015893132973395938, 0.016447483289238264, 0.017013316237739638, 0.01764929610021465, 0.018227057596118194, 0.01878287647911844, 0.01938664648146419, 0.019997481619979253, 0.02065044006683588, 0.021268373576430532, 0.02189782835338759, 0.02252768049934762, 0.023162739867957628, 0.023862050497358782, 0.02449759460759235, 0.02517061107812136, 0.02581382246787049, 0.02646305747733279, 0.027165073181753995, 0.027817038444407558, 0.028455528309279523, 0.029120087078055773, 0.029787012927678914, 0.030460317604059525, 0.031129130335404917, 0.031865543417495555, 0.03252642472474725, 0.0331905414330823, 0.033852115491837725, 0.03452045970429184, 0.035246611269592686, 0.0359077532800755, 0.03657129192699289, 0.037255445934019756, 0.037918672292334074, 0.038551792718901724, 0.039220233357900064, 0.03988653343518748, 0.04055756785909476, 0.04121780914680692, 0.04190188226632561, 0.042553562653112526, 0.04320381891810933, 0.04387145714383394, 0.04451546137648211, 0.04518698272325607, 0.04582459154299741, 0.04646199280369414, 0.047113107244883295, 0.04774702293743715, 0.04845226339470573, 0.049075749576137695, 0.0497021530548747, 0.050261260530478885, 0.050900068757583135, 0.05157903463117565, 0.05220665002012116, 0.05283403983999906, 0.053434705405680544, 0.054064552470788785, 0.054680424869639394, 0.05530800212189186, 0.05593337116005909, 0.05663111198309538, 0.05724375935149371, 0.057869029232418406, 0.05848633165361147, 0.05910684509252065, 0.05973999361911117, 0.0603653332980486, 0.0609678406636701, 0.06160349078430279, 0.06224117478749843, 0.062941054930936, 0.06357618307877262, 0.0641674202715859, 0.06482157979118279, 0.06547918037110476, 0.06615504052670587, 0.06681908073562469, 0.06750553015928491, 0.06817912832624967, 0.06886009831010323, 0.06956549206069973, 0.07026000103243228, 0.07093986648798092, 0.07165626144335477, 0.0723811779912372, 0.07316064551193367, 0.07389848215322871, 0.07461313284382505, 0.07538117406156238, 0.07616039851898401, 0.07692267615325951, 0.07772971131547364, 0.07856490486518726, 0.07939347309155956, 0.08027916422759614, 0.08113101328848189, 0.0820006599009595, 0.08292434545105808, 0.08382607091731793, 0.08470801134452309, 0.08565687010256699, 0.08662473311073048, 0.08762896570944181, 0.0886345478139309, 0.08960925495526137, 0.09066559860873386, 0.09174181828349535, 0.09288677323209439, 0.09399957965239175, 0.0951641113086772, 0.09632486173060686, 0.09751349463620604, 0.09869681695755428, 0.09994647537052209, 0.10118493053995305, 0.1024943525615494, 0.10383014621253596, 0.10524599463029438, 0.10663085714254376, 0.10805273832948152, 0.10950192203615958, 0.11098455574079709, 0.11250828441135767, 0.11405831486394505, 0.11565082000849307, 0.11727097767566924, 0.1189277514001775, 0.120652693439577, 0.12238006460468029, 0.12407770241366327, 0.1258934792171802, 0.1277455544907487, 0.12969464739930345, 0.1316143021571009, 0.13351144659279796, 0.13552381769175717, 0.13757527016243895, 0.13972650397401262, 0.14185103686087636, 0.14398928312805354, 0.1462076635834044, 0.14846962747172732, 0.15077330556325222, 0.15312429771784375, 0.15552505316543133, 0.15796588403986217, 0.1604529283549768, 0.16296266117666325, 0.16554639791013237, 0.16825043527412537, 0.17091751093509872, 0.1736359232024712, 0.17634810286542896, 0.1791761707855813, 0.18204495615556202, 0.18497018638852114, 0.18794378673455997, 0.1910308459216272, 0.19409430567952304, 0.1971750662008672, 0.20034930833827608, 0.20357440457538062, 0.2068409344643054, 0.21016940432064257, 0.2135581913017821, 0.21698711647643523, 0.22046766454791986, 0.22401665139730476, 0.2275984782524596, 0.23119707363720227, 0.2348886766213999, 0.23863068626692574, 0.24244480525326811, 0.2462853257368832, 0.2501682265713778, 0.25411373537339255, 0.2581103745586575, 0.26221551544680144, 0.26630685222475253, 0.2704067048088767, 0.2746111781612865, 0.2788658809282588, 0.2831490618645993, 0.2875063159356185, 0.2919214887438851, 0.29637411600632124, 0.3008753789640803, 0.30546571621074975, 0.31005828217200104, 0.31466257687264526, 0.3193593786983525, 0.32410271684615044, 0.3288491420205546, 0.33368991093389794, 0.33859040204164387, 0.3435148752599567, 0.34848297566442116, 0.3535062976725043, 0.3585589618871536, 0.3636570523186246, 0.3687948733288545, 0.37397462486823463, 0.3792459096920962, 0.3845011129526403, 0.38977024096509233, 0.3951132421674347, 0.40049502348642907, 0.405907541120728, 0.4113651999851485, 0.4168442630955396, 0.42237444861705975, 0.4279379218618728, 0.43352196302234697, 0.4391512480291732, 0.4447725016245214, 0.4504664402094878, 0.4561869793190945, 0.4619886745054666, 0.4677538421900671, 0.4734990656786276, 0.4793250124221992, 0.48517389629067137, 0.4910808538946461, 0.4969686884437227, 0.502905331522174, 0.508833572442777, 0.5147833450526867, 0.5207364629225262, 0.5267271599840683, 0.5326791634480887, 0.5387083371557237, 0.5447483230708624, 0.5508102947711653, 0.5568679399114569, 0.562946476803101, 0.5690193946116117, 0.5750997628457648, 0.5811911569079521, 0.5872821661634945, 0.5933245376768208, 0.5994289851122664, 0.6055319185096582, 0.6116563969683337, 0.6177505664230736, 0.6238800540182159, 0.6299621661054341, 0.6360409518302514, 0.6421004692088141, 0.6481697131663052, 0.6541559433532913, 0.6602155929869046, 0.6662594996007314, 0.6722509591103984, 0.6782654794188893, 0.6842955806044166, 0.6902642030661981, 0.696213039914992, 0.7021026406302017, 0.7080132898397965, 0.7139248195277579, 0.7197803065608058, 0.7256099173600783, 0.7313333997157263, 0.737117503075205, 0.7428890643310141, 0.7486016076760424, 0.7542798717418276, 0.7598725820300702, 0.765485611453842, 0.7710632061991226, 0.7765944686624361, 0.7820842665643196, 0.7875077539799831, 0.7929148836820179, 0.7982404205575069, 0.8035598763278695, 0.808829865458062, 0.81405928790483, 0.819227023145223, 0.8243603326483205, 0.8294226186887498, 0.8344327014046811, 0.8393918079836248, 0.8442936701969124, 0.8491207826081473, 0.8539126710383407, 0.8586454844925043, 0.8633014234773937, 0.8679150768198292, 0.8724559923469395, 0.876943611647399, 0.881365670357373, 0.8856518619773396, 0.8899489422866586, 0.8942193912600513, 0.8983661241671925, 0.9024425122411269, 0.9063686923872692, 0.9103118141596273, 0.914199126273637, 0.9179845770696721, 0.9217172847329359, 0.9253457922725922, 0.9288978347037561, 0.9322983923093284, 0.9357044982096908, 0.9390371688769995, 0.9422758561452295, 0.9454316397856422, 0.9484562592599817, 0.951451128903728, 0.9543520009734724, 0.9571740743876699, 0.9599087167595685, 0.9625486109622395, 0.9651088443686191, 0.9675759050374734, 0.9699597687275888, 0.9722545311840793, 0.9745054527098074, 0.9766155440506777, 0.9785808638406079, 0.9805229479201114, 0.982373227794725, 0.9842058088298002, 0.9858627274513324, 0.9873669617099974, 0.9888552211241642, 0.9902503760212328, 0.9915547240789269, 0.9927630773029137, 0.9938925391397229, 0.9949124560973872, 0.9958397218985581, 0.9967028719028722, 0.9974406462690378, 0.9980461846863564, 0.9986057041261999, 0.9990707977596974, 0.999484672636837, 0.9997558114293567, 0.9999089822174311, 1.0, 0.9999975928563827, 0.9998588069464758, 0.9996754559281132, 0.9994255067824288, 0.9990484397238126, 0.9985787910591176, 0.9980432160139809, 0.9973860510247751, 0.9965813406646264, 0.9957514467356686, 0.9948286379003655, 0.9938136431917772, 0.9927071783605058, 0.9915602288068557, 0.9902665785044938, 0.9888863821738924, 0.9874103545581228, 0.9858592042810632, 0.9841812965310784, 0.9824636985408065, 0.9806588282833187, 0.9787221059732495, 0.9767511670173862, 0.9747553623352067, 0.9726035779614282, 0.9703706402761718, 0.9680021523784096, 0.9656159111552916, 0.9631379442363789, 0.9605898109194737, 0.9579613507768481, 0.9552873005721365, 0.952497570409346, 0.9495946532291911, 0.9466608805731681, 0.9436518392664812, 0.9405759250616724, 0.9374190560273941, 0.9341932948271431, 0.9308946529842349, 0.9275270610022782, 0.9241107513811616, 0.9206060756445628, 0.9170774726209033, 0.9134393290316505, 0.9097407413976718, 0.9059584288079209, 0.9021440298833385, 0.8982987483958406, 0.894362523563628, 0.8903703927166503, 0.8862657495193565, 0.8821716915755953, 0.8780571365562468, 0.8738471780850241, 0.8695857314051602, 0.8652930921152918, 0.8609296948854162, 0.8564379713687059, 0.8519920739696457, 0.8474968240270649, 0.843001881006597, 0.8384071435297753, 0.8337613384694503, 0.8290860811891371, 0.824371306992218, 0.819606391594548, 0.8148181369974151, 0.8099721829621626, 0.8051157903974353, 0.8002249039221265, 0.7952628032755892, 0.7903125031258912, 0.7853852949757806, 0.7803658866262307, 0.7753211422953783, 0.7702618828533369, 0.7651689907675862, 0.7600382820899843, 0.7549065714421028, 0.7497552270163617, 0.7446119180896105, 0.7394219657901747, 0.7341723411514212, 0.7289608754088295, 0.7237348897787356, 0.7184671519300501, 0.7132202238110357, 0.7080286063703063, 0.7027513870916885, 0.6974694317291458, 0.6921717689548754, 0.6868848763982998, 0.681535781059644, 0.6762529156287111, 0.6709666495876372, 0.6657193193734311, 0.6604259473991371, 0.655112241181639, 0.6498302511983626, 0.644552794830582, 0.6392524564824046, 0.6339916141338685, 0.6287543043336121, 0.6235063437268425, 0.6182689512672304, 0.6130768598624595, 0.6078599748167485, 0.6025824722336176, 0.5974081277014628, 0.5922472015270764, 0.5871418802599098, 0.5820070241646018, 0.5768849271252466, 0.5717918173005043, 0.5667201383055215, 0.5616636862920465, 0.5566386904946896, 0.5516639268120619, 0.5466843610871115, 0.5417320795324229, 0.5367886312175258, 0.5318954498129538, 0.5270066450160652, 0.5221739836649997, 0.5173699839541416, 0.5126148016565354, 0.5078686630131446, 0.5031694975037336, 0.4984874767129051, 0.4938402888006829, 0.4892476538402276, 0.4846694040540572, 0.48006410208895395, 0.4755696072251556, 0.47110988049373886, 0.4667026169005101, 0.46231305424738683, 0.4579067653983935, 0.4536014833768998, 0.4493326900287163, 0.4451971703077258, 0.4409922058596096, 0.4367720473812475, 0.4326639873485017, 0.4285972830803366, 0.42457966421121074, 0.42059636508132653, 0.41665635103179305, 0.4127600008669466, 0.4089076675670582, 0.4050206687082635, 0.4012673183211325, 0.3976143181307481, 0.39393527931151273, 0.3903017763271291, 0.38676191132553756, 0.3832140516126182, 0.37965752983536466, 0.3762142953322977, 0.37275393052757044, 0.3694090759150469, 0.3661063455425363, 0.36286079703459057, 0.35964247793502047, 0.3565167672158239, 0.35338214912847454, 0.3502954990441287, 0.3472039514344063, 0.3442193178872514, 0.3412455896168639, 0.33835426260712836, 0.3355058587223115, 0.33277018800241687, 0.329999899075005, 0.32730365683497104, 0.32462505035964473, 0.321994823944377, 0.3193381491525623, 0.3168122779993333, 0.3143408607677038, 0.31189851194733315, 0.30949940509483337, 0.3071936907578021, 0.3048742910495073, 0.3025861058504094, 0.3003590571250635, 0.2981755552181314, 0.29598485546892606, 0.2938934119210958, 0.2918508839949305, 0.2898368529039351, 0.2878625404171462, 0.2858989891377176, 0.2840070348532565, 0.28217396063375666, 0.2803538594958035, 0.27857207332750616, 0.27679232532875697, 0.275090597104056, 0.2734671063534414, 0.27183007095253997, 0.2702302610030061, 0.26867187547584354, 0.2671441409681138, 0.26567607047324454, 0.2642161198478347, 0.262791974422392, 0.2613669031290267, 0.2600164838219828, 0.25865438307480426, 0.25737178621384044, 0.2561172553105308, 0.25491459002839073, 0.2537126780404029, 0.2525874661695301, 0.25143663921998755, 0.2503163155559333, 0.2491465753365316, 0.24809455287830187, 0.2470587849186517, 0.24605436129566838, 0.24507254994494965, 0.24409396762093935, 0.24315906368319054, 0.2423310541199187, 0.24142644143677355, 0.24054688542069683, 0.2396722212879694, 0.2388422101997446, 0.23797341503496863, 0.23719237579985158, 0.23642758147796747, 0.23576499153599595, 0.23502104056876996, 0.23426381398898288, 0.23356353523400922, 0.23287956452796502, 0.23222079583947305, 0.23156619230325318, 0.23089529268771491, 0.230273554835938, 0.22966346245329533, 0.22911964286811506, 0.22852454344066123, 0.2279188763336141, 0.22735263495958746, 0.22679663358392885, 0.22626460071344523, 0.22572536749818914, 0.2251330645322117, 0.2246193550463081, 0.22410994252408242, 0.22357833398180466, 0.2230803376841866, 0.22258697307091288, 0.22209309978162275, 0.2216014466517712, 0.2211429698684475, 0.22065127498756912, 0.22015574377309494, 0.2196711267617663, 0.21918841189484975, 0.21873587583999143, 0.21825196899919347, 0.21777021352916526, 0.21728992661783114, 0.21681045730402357, 0.21628808803541424, 0.21581386809159725, 0.21541048894557493, 0.21491992812468275, 0.21442974411489227, 0.2138648893578263, 0.2133824268303798, 0.2128986640000805, 0.21240335695380663, 0.2119020801705572, 0.21140904922193485, 0.21089355156261702, 0.21039394569474418, 0.20986410694888064, 0.20932921999260676, 0.2087576955826234, 0.2082152843145614, 0.20765758742226886, 0.2070997454970761, 0.20653312416522376, 0.20594805822057477, 0.20536481314591198, 0.20477434923991572, 0.2041715364569936, 0.20355915231902744, 0.20299217922735227, 0.20235342602956263, 0.20169354974333112, 0.20104255299128593, 0.20038295571978162, 0.19970485322827075, 0.19902831359918313, 0.1983369549861568, 0.19764079588812403, 0.19693402542787633, 0.19620936625539723, 0.19548200717328043, 0.19475535014687165, 0.1940039310424438, 0.1932419008896621, 0.19243803532445586, 0.19165843647624622, 0.19085904474083323, 0.19005532839712772, 0.18923897011061433, 0.18844370846891514, 0.1875984651040545, 0.18678136840927576, 0.18591085619241113, 0.18503214864323592, 0.18406826040598256, 0.18318179845934607, 0.18233217891726525, 0.18141288948873877, 0.18048375940131012, 0.17953754397481375, 0.1785894797453351, 0.17760711596314405, 0.17664142972595748, 0.17566418493814318, 0.17463256655142498, 0.1736384852134633, 0.17266235923250908, 0.1716385965259349, 0.1706045471957723, 0.16951975552421555, 0.16847100906715531, 0.1674798366965993, 0.16639914163305625, 0.16531153583940492, 0.16423368331105756, 0.16312988302995193, 0.16200795165808088, 0.16089320778325986, 0.15977140033776638, 0.1586305994914189, 0.1574963270418922, 0.15629226344963815, 0.15515098472508926, 0.15399908627480924, 0.152866015699962, 0.15169133820793423, 0.15045696527192695, 0.14927523588808514, 0.14808417972954765, 0.14693001910119208, 0.14571668998882822, 0.14452254412777132, 0.14329686752668752, 0.1420681729887774, 0.14089393119018018, 0.13965198740175125, 0.13833373668731122, 0.13710171750192987, 0.13589614885347626, 0.13465122772474225, 0.13340413186587907, 0.13211666182916007, 0.13087040644746342, 0.12964654871523407, 0.12838955746918512, 0.1271310266607158, 0.1258592014100202, 0.12459976132504567, 0.1233603277317236, 0.12209541117620555, 0.12083081837243347, 0.1195451459497091, 0.11828437525795892, 0.11701601537511261, 0.11575569916121466, 0.11449528082355427, 0.1132926183238434, 0.11202590165499543, 0.11070598539862192, 0.10945494757202684, 0.10820476877295615, 0.10701573989564273, 0.10576099325371059, 0.10451410001292318, 0.1032698630342823, 0.10203105082252824, 0.1007305806720766, 0.09951099989334908, 0.09831939293835316, 0.09710034913463142, 0.09588556452816711, 0.09470886008402357, 0.09349925135354546, 0.09222722814483152, 0.09104044269066162, 0.08985681788433042, 0.08865302332782354, 0.0874805334814536, 0.08634028233897041, 0.08517184214291366, 0.08400979387393788, 0.08288318602657405, 0.08173121876613594, 0.08058814260514882, 0.07945398228603001, 0.07832877416010832, 0.07716707400297952, 0.07606567063942012, 0.07504265942265169, 0.07394573938154085, 0.07286024745245634, 0.07176441887713748, 0.07070389731725289, 0.06967460664508934, 0.06863078813625942, 0.06759799279491484, 0.06655696779810338, 0.06554837014646271, 0.06453752791368786, 0.06355002141127705, 0.06257181653491592, 0.061610312863639646, 0.06065043916055772, 0.059691301296549426, 0.05875338240820358, 0.05782547027003834, 0.056886201545620546, 0.05598156736986463, 0.05508384743486677, 0.0541984489680127, 0.053322822624551486, 0.05242850733610047, 0.051576836631893004, 0.050786718192383645, 0.049946560141509756, 0.0491190148229626, 0.04825369468288239, 0.04745741649193539, 0.04670175640664974, 0.045920848881844695, 0.04515177799489519, 0.04441368445469069, 0.043665820190366286, 0.042976304112609345, 0.04224822235488626, 0.04153520554095231, 0.040714630022491434, 0.04004568910681037, 0.03940033604123278, 0.03874355170621709, 0.03809569421789893, 0.0374499113133269, 0.036821757089423895, 0.03624367476765932, 0.03562936499624312, 0.03502716778910462, 0.03446804841138503, 0.03388566544492562, 0.03333343500866391, 0.03277532124478254, 0.03223078111842417, 0.03164428103588994, 0.031132498342365568, 0.030651479790900625, 0.030155502521761496, 0.02967012428844402, 0.029173678520498892, 0.02871187035887166, 0.02825910358753856, 0.027815438580659935, 0.02738091505382358, 0.026948370969831867, 0.02653308327479976, 0.026100208315805784, 0.02570577964606337, 0.025318661650875027, 0.025006095338742283, 0.02462568488066951, 0.024168239832551223, 0.023821680369829845, 0.023480825932136403, 0.023174729905613353, 0.022842559634128377, 0.022513710361324938, 0.022198292061090894, 0.021890553919444486, 0.021595220856649833, 0.021302029655402704, 0.021119500039967563, 0.020828561776565314, 0.020550808765279593, 0.020189483844394507, 0.019947346842951793, 0.01972231431325838, 0.019488978794995154, 0.01926152217122015, 0.019070977292722013, 0.018851058325908263, 0.01865043743796696, 0.01844329566807938, 0.018243452487720628, 0.017997823828124183, 0.017818038681192316, 0.017605544644298785, 0.017436810330177657, 0.0172694361839561, 0.01713248552637746, 0.01696513552129065, 0.016882984340091153, 0.01671286775781941, 0.016550973774216108, 0.016358248771198573, 0.01621547598517114, 0.016028854960300782, 0.01589996071711841, 0.015771929436655504, 0.015740690635989138, 0.015602717287608809, 0.0153947354931825, 0.015278952678328104, 0.015164121844567599, 0.015055064718057953, 0.014941611036535235, 0.0149012443442702, 0.014781165647979802, 0.014666242849195904, 0.014452863979911683, 0.014359355870082455, 0.014361596160676338, 0.014251184800243677, 0.014144491362159608, 0.014028989538984814, 0.013929632813665464, 0.013834203479752375, 0.013737294172177785, 0.013641446871856172, 0.013563136895019614, 0.01346646535486447, 0.013356647595317132, 0.013263877225187369, 0.013170846593281488, 0.01310611339167903, 0.013008422908330004, 0.01299779655713185, 0.012890582453938784, 0.012788380137496315, 0.012589644188050517, 0.012507336530033244, 0.012507969702054799, 0.012408398784149644, 0.012310676777326552, 0.012209433219580597, 0.012114341724128523, 0.012028873414190532, 0.011932317499246961, 0.011835701325953263, 0.011765029367213667, 0.011664013399961959, 0.01157552724038062, 0.01147369862683717, 0.01137232800119924, 0.011330872750044501, 0.01122171307712621, 0.011098587249086037, 0.010996414857825727, 0.01093067342551493, 0.010824604017160018, 0.010720351624265097, 0.010598206524740977, 0.010498430255574598, 0.010500934844667416, 0.01038663125621064, 0.010277144380307213, 0.010157196463864671, 0.010056558893869416, 0.01000068635615623, 0.009897507791556659, 0.009797641838348102, 0.00968610509895741, 0.009592935662533043, 0.009541435310413626, 0.009444842346387483, 0.009351140976526482, 0.009310189557218443, 0.009214740220275932, 0.009138363694230295, 0.009049925548083558, 0.008965938911243304, 0.00888591326784415, 0.008809461190431061, 0.008741075360287311, 0.008670358676898146, 0.008602830921889645, 0.00859823033854604, 0.008529218681627008, 0.008519248980569629, 0.008455875892771816, 0.00840105150810466, 0.008339739173045129, 0.008301947286482814, 0.008265478189276946, 0.008240313615532605, 0.008220668924283999, 0.008271175084819508, 0.008254411675904176, 0.00827564849295673, 0.008273407145034835, 0.008281382484727309, 0.008277605035113517, 0.008307583987911106, 0.008314497210122493, 0.00836457514282234, 0.008421109247316191, 0.008553929610870394, 0.00861579788926438, 0.008720363819037569, 0.008801304928586046, 0.00889536580199442, 0.008971173349758993, 0.009094754468988997, 0.009265135332296635, 0.009406187642013241, 0.009560652741825833, 0.009735722714339357, 0.009916192055556713, 0.010050818542691723, 0.010266990745266755, 0.010494079866471535, 0.010742340014639615, 0.010992059655819094, 0.011279137558874193, 0.011553194027901932, 0.011843064568950349, 0.01211315465799035, 0.012440165731471975, 0.0128945024413321, 0.013237521095919576, 0.013602912255108136, 0.013928113661578999, 0.01434527515529563, 0.014864439170261902, 0.015307844176948714, 0.01577502180608643, 0.016275312442790325, 0.016788199817058834, 0.01728662638103348, 0.017851968311673697, 0.01843891114054431, 0.019059783963044974, 0.01968950617052897, 0.02033065379113503, 0.02100898993036875, 0.021710687204774815, 0.022474498569680992, 0.023219413982657516, 0.02396245689339153, 0.02476486921597562, 0.025592861191001043, 0.026497164059750878, 0.02737131579441606, 0.028177064681342144, 0.029123200839220972, 0.03009373744687665, 0.031173403667654583, 0.03218487690869601, 0.033173001752160015, 0.034254967550189766, 0.03536578139816295, 0.036532383330567776, 0.0376993468594883, 0.038898369325880866, 0.04012976872361636, 0.041393867923386445, 0.042695781995797925, 0.04402565766011729, 0.04541343097652347, 0.04680848282625829, 0.04823942461723498, 0.04967763435307374, 0.05118434200273782, 0.052716152378408064, 0.05429383884613809, 0.055906472479407665, 0.057540149285139314, 0.0592258567841421, 0.060978152049721575, 0.06273136516500104, 0.06452278701525192, 0.06633586061401908, 0.06820642993814217, 0.07017713306160266, 0.07211594027759134, 0.07409679180967277, 0.07611470785457491, 0.07817972611195331, 0.0803004457729765, 0.08244629045210508, 0.08463424595990292, 0.0868450634825874, 0.0891194117744805, 0.0914178482665041, 0.09377615819545979, 0.09617467046402527, 0.09863761061203613, 0.10111433112151656, 0.10362142091769462, 0.10618437261174409, 0.10878907218305314, 0.1114093258196426, 0.11410127009164027, 0.11684585396697687, 0.11961794437051944, 0.12243198322526151, 0.12535516298372656, 0.12824506110130707, 0.13111402714823986, 0.13410416734560282, 0.13713580286142243, 0.1402258721275553, 0.14333888387705343, 0.14645886114073411, 0.14966212639511217, 0.1529061527655555, 0.1562222863088901, 0.15954451446358517, 0.16289061986288567, 0.16630116995102676, 0.16975334386719967, 0.17325429992060096, 0.17678871205188773, 0.18035541834522315, 0.18397462171853035, 0.18763481777606042, 0.19131433949174534, 0.19505886317925714, 0.1988499199565251, 0.202672216122715, 0.20653418156558234, 0.21044762460346148, 0.21438689506806796, 0.21842817717621155, 0.22243875252719472, 0.22649187612210428, 0.23051724102850235, 0.23466166817160183, 0.23887099789577912, 0.24308394949401263, 0.2473342766154124, 0.25165501113389305, 0.25597438470895356, 0.2603267521886952, 0.2647215259983201, 0.2691523009543925, 0.27362557942308785, 0.27812542256710543, 0.28262375780482374, 0.28719625263889126, 0.2917997503101713, 0.2964218930265975, 0.3010877233063587, 0.30579701031210405, 0.3105188383110398, 0.31526979112040626, 0.32008762336752244, 0.32489030467029195, 0.3296986064530062, 0.33456252910532364, 0.3394959661014638, 0.3444065972028023, 0.34934470074455626, 0.35429726505563014, 0.35928874034832736, 0.36423216621377125, 0.36927942516041196, 0.374344732192171, 0.3794948665568857, 0.3845869479884599, 0.3896639536293832, 0.39480127024946077, 0.39995546116871866, 0.40514262108056437, 0.4103264211280963, 0.4154637161349368, 0.4206860068418742, 0.4259188025479152, 0.43122636786253704, 0.43647079232612224, 0.4417519563834547, 0.44701786416806416, 0.4522957594831837, 0.45753650740022805, 0.46284071709161645, 0.468164942498809, 0.47347786377550705, 0.47879567299413434, 0.4840408207508035, 0.4893752870210638, 0.49470273493179273, 0.5000330115183746, 0.5053600365114028, 0.5107096931213196, 0.5160254521319837, 0.5213689928950402, 0.5266732685685455, 0.5319741996091767, 0.5372107691966279, 0.5425091078530015, 0.5478140512342788, 0.5530893105315814, 0.5583540039805776, 0.5635761247652622, 0.5688209532756937, 0.5741082174577321, 0.579315033119015, 0.5845086111299328, 0.5895751767721458, 0.594752793286551, 0.5999311245534883, 0.6050589752755716, 0.6101642806358663, 0.6152487789523036, 0.6203066709303786, 0.6252801774179743, 0.630295765075101, 0.6352818030223619, 0.6402474733485994, 0.645171931850812, 0.6500874981359097, 0.6549476541933055, 0.6597771368786, 0.6645127352049667, 0.6692858459430505, 0.6739739821815905, 0.6786784729778825, 0.6833421273905624, 0.6880269567890969, 0.6926002500719961, 0.6971184350911712, 0.7016161453069891, 0.7060725506015852, 0.7104939551019349, 0.714864189777056, 0.7191046472996684, 0.7233976363470443, 0.7276402536079958, 0.7318681335856717, 0.7360045474202634, 0.7401154764387187, 0.7441492267105524, 0.748133312751614, 0.7520284220300898, 0.7559150242111187, 0.7597516318439966, 0.763527412419651, 0.7672473576569426, 0.7708676449354787, 0.7744791823365226, 0.7780398437445017, 0.7815288696378936, 0.7849571482704992, 0.7882499074975517, 0.7915644041388696, 0.7947835474679147, 0.7979684279012832, 0.8010849815909288, 0.8042218663434326, 0.8071906855380631, 0.8100960978839883, 0.8129372211007851, 0.8157132017842589, 0.8184351869583095, 0.8210769255945205, 0.8236135008506653, 0.8261255399037423, 0.8285669498005043, 0.8308965843159921, 0.8332005504043836, 0.835449427723575, 0.8376023767488281, 0.8396819046206873, 0.8416038865716889, 0.8435461854477931, 0.8454596519392669, 0.8472377134932157, 0.8489400916888189, 0.8505306622514404, 0.8520855728837861, 0.8536052227249933, 0.8549980279975442, 0.8563149754391813, 0.8574743068695667, 0.8586487891918512, 0.8598088805521386, 0.8608123862017937, 0.8617388836033594, 0.8625761111349323, 0.8633492578518898, 0.8640127984099696, 0.8646327957811886, 0.8651723319406365, 0.8656818397740806, 0.8660545413279749, 0.866330867106357, 0.8665512612763362, 0.8666928331125556, 0.8667339921409764, 0.8667205401349141, 0.8665815078804923, 0.8664138285696851, 0.8661639079295272, 0.8658706244720372, 0.8654530491489321, 0.8649378263358817, 0.8643658466735915, 0.8637146353221798, 0.8629989037045016, 0.8621884481066083, 0.8612838407593205, 0.8603209512528152, 0.8592802100306276, 0.8581955405536426, 0.8569960726145277, 0.8557122800354949, 0.8543646770443114, 0.8529421292428295, 0.8514569156341502, 0.8498839162707915, 0.8482328632590415, 0.846514233657664, 0.844722697507835, 0.8428395082065335, 0.8409058325987075, 0.8388994852918427, 0.8368211127829142, 0.8346713685424757, 0.8324365482845278, 0.8301478690559988, 0.8277818387397914, 0.8253545347471433, 0.8228582624466755, 0.8202675396019338, 0.8176392160633513, 0.8149956609400498, 0.812225915293063, 0.8093932884521516, 0.8064313134254885, 0.8034831485678208, 0.800570709075385, 0.7974813653022227, 0.7943351963836366, 0.7910750604273652, 0.7878235377012671, 0.7845083431828527, 0.7811406367183785, 0.777715730664138, 0.7743016765620827, 0.7707569278242601, 0.7671090931022422, 0.763470643069116, 0.7597798175968696, 0.7560543895582268, 0.7522597360984584, 0.7484119068912608, 0.7445219717793189, 0.7405851757525508, 0.7365569929465188, 0.7325351341738299, 0.72845003318194, 0.7243386940036058, 0.7202065697914357, 0.7160041813461181, 0.7117612302396802, 0.707442958052485, 0.7031268763653364, 0.6988650235236094, 0.694460254080129, 0.6900243597344045, 0.6854932757731185, 0.6810051040807673, 0.6764649362589051, 0.6719147618963379, 0.6673331691564494, 0.6627358976412421, 0.65809373804219, 0.6534632921382185, 0.6487642613949434, 0.6440430966969687, 0.6392982347877655, 0.6345356267526302, 0.629669528193858, 0.624879060285756, 0.6200660722825161, 0.6152250172697428, 0.6103727351751675, 0.6055237831945747, 0.6006338434733024, 0.595729841968521, 0.5907770816407457, 0.5858531201838179, 0.5809717195365575, 0.5760172117569446, 0.5710560917128633, 0.5660748741221993, 0.5611049951996074, 0.556044170026056, 0.5510767007223838, 0.5461016674558764, 0.541187801823021, 0.5361941475892485, 0.5311775523711575, 0.5261898243140664, 0.5212035420671586, 0.5161958438608133, 0.5112186949860157, 0.5062448094272635, 0.501275383441361, 0.49631156753640754, 0.4913568646016873, 0.48640725368174625, 0.48152406338763093, 0.47658608812123054, 0.4716622370497978, 0.4667098837071213, 0.46182117441033693, 0.45695286202958024, 0.45209057998680063, 0.44724370937312075, 0.4423819350533488, 0.4375722418765264, 0.4327618501039125, 0.427987424537138, 0.42323012930529713, 0.4184958313943052, 0.41377537297633715, 0.40907778579601445, 0.4043988687796455, 0.3997423053799692, 0.39511368149560916, 0.39050358131388085, 0.3859088282630307, 0.3813504592808874, 0.37681780003583104, 0.3723738091532496, 0.36788679416005127, 0.3633615891677384, 0.3589459662844196, 0.3545579806171273, 0.35021514683707844, 0.34588254020480347, 0.3416022038444804, 0.33732882139829623, 0.3330883625316022, 0.328873942040093, 0.3247011361089367, 0.32054020796053134, 0.3164373431586948, 0.3123674165346043, 0.3082758818949755, 0.30428032821402473, 0.30036876932704315, 0.29643007386316383, 0.29252732523580494, 0.28859856784027277, 0.28477645139597435, 0.28101635281822357, 0.2772579219156815, 0.2735358009262339, 0.2698168332394569, 0.266172621067868, 0.26258296917226376, 0.2590076735530727, 0.2554698463181122, 0.25198888961846033, 0.24852428637859061, 0.24508929022497264, 0.24170426138812137, 0.23835786035466733, 0.2350788716275701, 0.231806235085557, 0.2285140871640022, 0.22532947695866587, 0.22218140120977953, 0.21908928523054907, 0.2160126186625904, 0.213000560759686, 0.209997081761323, 0.20703327873607774, 0.20406098690597893, 0.20118175808802524, 0.1983099668811169, 0.19550682916676498, 0.19273844450989183, 0.1901104248327005, 0.18739895380407565, 0.1846545251550069, 0.18203420046564955, 0.17944949517464442, 0.17687160965766954, 0.17436153830627854, 0.17192827171650737, 0.16948024158738323, 0.16706843198135118, 0.16461106224034933, 0.16228085552909174, 0.160024261133251, 0.15774990647811651, 0.1555089406635573, 0.15325084579468864, 0.15108227188642906, 0.14897459524690088, 0.14686172045374735, 0.14478047450241954, 0.14275929344843155, 0.14073676048079475, 0.1387536879993811, 0.13679420288776065, 0.13486620859659915, 0.1329355452532034, 0.13107286402716772, 0.12927861527079934, 0.12746591606897192, 0.1256825443465193, 0.12396849966893063, 0.12223655046121089, 0.12050304354120193, 0.11883319491133185, 0.1171892838091042, 0.11553478431504693, 0.11394546740367324, 0.11242137497173528, 0.11087058056627698, 0.10934373837162517, 0.10784974557299364, 0.10636757911067554, 0.10486243477136643, 0.10343034733075304, 0.10201684747000085, 0.10061446641274417, 0.099238166139374, 0.09794855092616502, 0.09659767681955067, 0.09526732840647252, 0.09388237774605322, 0.09259979467372788, 0.09138366612049678, 0.09012180591412906, 0.08887628599420248, 0.08760093974354675, 0.08639184581437458, 0.08514189945571256, 0.0839628548539983, 0.08279213969113049, 0.08163465616833057, 0.08048025882204808, 0.07934654962496937, 0.0782079401373531, 0.07707840432588098, 0.07596958964884802, 0.07485568846293278, 0.07376245319972005, 0.07266393523018067, 0.07157379308570329, 0.0704483316412526, 0.06937860358412665, 0.06830588175082021, 0.06724521532908766, 0.0661878521915993, 0.06514074541162357, 0.06408835905895663, 0.063093964596095, 0.06204009159370184, 0.0609914756428828, 0.05995206681269559, 0.05891089107213784, 0.057868074732829775, 0.05683305464711278, 0.05582580215317309, 0.054789689394438734, 0.05375526924930518, 0.052647546483642144, 0.05162363012720993, 0.05064057017597047, 0.04960160669350611, 0.04856047692730498, 0.04749996926089821, 0.046455291391543155, 0.045365510353025086, 0.044316918918728535, 0.04326112673930742, 0.04225087842693766, 0.04117419956661037, 0.040059858962043914, 0.038978679509324675, 0.0378905947409487, 0.03684814518492056, 0.03573918122815101, 0.034587534223030236, 0.0334740843915404, 0.03235299901032966, 0.03123846489433876, 0.03009975903961823, 0.028953697605467132, 0.02779999753161691, 0.026638394932990837, 0.025437518836693627, 0.024263326797830897, 0.02309555914444993, 0.021898631227017098, 0.020692400445783177, 0.019493516331597103, 0.018266235511454735, 0.016970422091427004, 0.015733129107301923, 0.014483368212411616, 0.013252562687275826, 0.011974785291724781, 0.010675096400124748, 0.009378895846954713, 0.008071975276126592, 0.006797481176401641, 0.005463815423781365, 0.004074096829667338, 0.0027298403134710615, 0.0013741506640403544, 0.0