0.029103569907164954, 0.028678117232256484, 0.02827078941207883, 0.027950239393057418, 0.02766725260406389, 0.02731928296342904, 0.027107695268300817, 0.02689930970277777, 0.026721915165391852, 0.026556215759659815, 0.02650456828671786, 0.026344059909644293, 0.026193116147776876, 0.026057660668185788, 0.02593207357194392, 0.025790172181909075, 0.025684631084484065, 0.025491793903104853, 0.025410062671310598, 0.02532901233871974, 0.02529261089786484, 0.025210104248264652, 0.024996877932324902, 0.024943671106607355, 0.024889679833315505, 0.024858154792738174, 0.02480486054651097, 0.02471365597104277, 0.02467737565387955, 0.02464617228874149, 0.0247471301847819, 0.024714240229411558, 0.024639855315329615, 0.024646226678725024, 0.024665503250111853, 0.02474855622476093, 0.024789033862102235, 0.02481101332512623, 0.024890963409571108, 0.02498654108638655, 0.025069452335548564, 0.02520121016982862, 0.02535901640025866, 0.025520580435595918, 0.025699220400755785, 0.025823562378165507, 0.026046768820012355, 0.02624480312631942, 0.02650263349258166, 0.02677441898465967, 0.027190560079658446, 0.027477138141250655, 0.027658659532062407, 0.02800982184620887, 0.028377561617835865, 0.02871969500165559, 0.029128688334307345, 0.02965488453649887, 0.030085484078523003, 0.030540326996453756, 0.03087578695079528, 0.031397377482951884, 0.03191732838686287, 0.03247505985258532, 0.033050448141497615, 0.03374519326445206, 0.034346493286027256, 0.03490954025617153, 0.03557181535750835, 0.036256912513223986, 0.03703364357223712, 0.03775744206321197, 0.03844484716218539, 0.039233227446178943, 0.040046084081118864, 0.04089469253445488, 0.04175661335182446, 0.04262707461363363, 0.043544593818794726, 0.044488260897917214, 0.04542980664188664, 0.04643076184143002, 0.04747193221185255, 0.04852339931133953, 0.04960273442100448, 0.05066726969808674, 0.051809051911922775, 0.05303855733108399, 0.05422667874112821, 0.05544627304035745, 0.056618447376868164, 0.05791133910606887, 0.0593070756081589, 0.060646075112723956, 0.06201824399354889, 0.0633877216311297, 0.06483094667366607, 0.06620498132809408, 0.06772404491623873, 0.06926959133093896, 0.07097924540312042, 0.07256384718431254, 0.07420725435711709, 0.07586337744720241, 0.07755747588546763, 0.07913476972737983, 0.08092334238528288, 0.08285166348498894, 0.08468404016068731, 0.08655305961464912, 0.08837246444074844, 0.09032548650258687, 0.09236403419586539, 0.0943742269716305, 0.09642036284236213, 0.09848098504342886, 0.10060199456748212, 0.10269692772304766, 0.10489584129664306, 0.1071267377773243, 0.10943696512331982, 0.1117278177554699, 0.11399753466820847, 0.11636834271733265, 0.11877230829749552, 0.12123502900371205, 0.12370342926705276, 0.12627578371855092, 0.1288070399444143, 0.13137790144689457, 0.13397702680216206, 0.13662679837777922, 0.13922419979038242, 0.1419597731250018, 0.14472698510570903, 0.14759085443882705, 0.15041421684379203, 0.15318754983237978, 0.15609377234024488, 0.15903059907322944, 0.16208455763571522, 0.16507261821161287, 0.1680286457275503, 0.17109714688859695, 0.1741968598501208, 0.17734932882284063, 0.18050867711864396, 0.18377569909297536, 0.18698970150950187, 0.1902395284506636, 0.19339133516447407, 0.19672677118245122, 0.20013452928632483, 0.20351558786165086, 0.20692531969239739, 0.21032033107935438, 0.21379193293559295, 0.2173857684950227, 0.22089560683608686, 0.22433904134152205, 0.22792131211913644, 0.23152683969907484, 0.23515911684405746, 0.23881034148644847, 0.242545586344049, 0.24623471602487845, 0.24994956944228794, 0.25358510481027285, 0.25736191320228385, 0.2611308382197114, 0.2649453327125505, 0.26877557248663, 0.27273291133672295, 0.2765805336207329, 0.2803996466871064, 0.28429601699077145, 0.2882090755198378, 0.29217046825122756, 0.296110767362084, 0.30003156472127357, 0.30400823162587426, 0.3079973179837799, 0.31196223167277376, 0.3159786361130926, 0.32001051804303404, 0.3240421450066575, 0.3280814963268782, 0.3321171751196099, 0.3361714295175173, 0.3403241954415803, 0.3443762756856444, 0.3484374080576696, 0.3524163404349795, 0.35650258134956664, 0.3606604287338002, 0.3647365641275194, 0.36881529628345755, 0.37274813208702867, 0.37684696029473397, 0.3810370265308332, 0.38510452627268166, 0.38916827364889556, 0.3931697873128631, 0.39723023313506, 0.4013452813308602, 0.4053769098395749, 0.409400944209589, 0.41340182790493213, 0.4174089337959685, 0.4214005246843685, 0.4253832090528529, 0.42935171059067895, 0.43337326300410445, 0.4373017637422699, 0.4411091566723035, 0.44502298285131925, 0.4489143393504262, 0.4527359693405517, 0.4565865259810934, 0.4605142743055709, 0.46429740854406865, 0.4680586630286614, 0.4716314961851618, 0.47536588972949684, 0.47915499222375046, 0.4828079680670503, 0.4864309350794645, 0.48996193981418196, 0.49352988363472583, 0.4970508535086852, 0.5005472934488857, 0.504005922533351, 0.5075088219872919, 0.5108797602752082, 0.5143235092865612, 0.517609604875345, 0.5208641298109986, 0.5239520498328297, 0.5271539087190868, 0.5303537804581697, 0.5334593258925258, 0.5365207852227971, 0.5394580591185322, 0.5424380897720966, 0.5454597773827985, 0.54832418454254, 0.5511412921610258, 0.5538595821835047, 0.5565847785424798, 0.5592706458494009, 0.5618859413959553, 0.5644469476778605, 0.5669528370071457, 0.5694027913024087, 0.5717529069156991, 0.574094027157109, 0.5763744028690833, 0.578600789005243, 0.5807574538660537, 0.5828559984628693, 0.5848882226553224, 0.5868577996261887, 0.588807215323363, 0.5906442187772162, 0.5923617032379987, 0.5940809040610306, 0.5957329665686965, 0.5972815815547208, 0.5988027060510615, 0.6002319022022983, 0.6016148508928405, 0.6029258908052385, 0.6041757552738424, 0.605341443699037, 0.6064571118354578, 0.607476684275751, 0.6084253688502267, 0.6093206612171954, 0.6101239288515296, 0.6108128753492148, 0.611478576708199, 0.6120695397060609, 0.612556884257858, 0.6130015448988733, 0.6134807121429542, 0.61375771246977, 0.6139642381167953, 0.6139485743821763, 0.6140306774146976, 0.6140781651769905, 0.6139923573313696, 0.6138289873474663, 0.613584548120503, 0.6132667523068897, 0.612882198313658, 0.6124080751403295, 0.6118572210582631, 0.6113230227628499, 0.6106069539917036, 0.6097871585921172, 0.6089316802100959, 0.6080017226146541, 0.6069216590023094, 0.605851715891518, 0.6047780420942176, 0.6035408478527389, 0.6022298795330462, 0.6008558495607506, 0.5993958496155686, 0.5978339514194992, 0.5962312795950389, 0.5945539533303701, 0.5927628534495931, 0.5909423961807886, 0.5890894000324336, 0.5871130072509504, 0.5850649500405707, 0.5828989533498684, 0.580714741790429, 0.5784216733259796, 0.5760970039994772, 0.5736991379468214, 0.5713477388471103, 0.5687919014714066, 0.5660076423107363, 0.563346332496917, 0.5606127861219711, 0.5579594236224429, 0.5550670021411103, 0.5520111676237426, 0.5490135278947376, 0.5459511572406812, 0.5428000744105589, 0.5396148693563212, 0.5363058733585548, 0.5330042075281588, 0.5296389322114697, 0.52640928588694, 0.5228968779168618, 0.5192865624849073, 0.5156851492842248, 0.5120332154234206, 0.5083133700269875, 0.5045644291359546, 0.5007371221151551, 0.4968934390929599, 0.49300033655723946, 0.48903746289519956, 0.48505183722319917, 0.48107664140564027, 0.4769910683388473, 0.47286443300069503, 0.4687299458619681, 0.46451981160983163, 0.4602337262360755, 0.4559564513827041, 0.4516420974818426, 0.44730264568813305, 0.4429164111067854, 0.43842195874376705, 0.43398082970400254, 0.4296127727535997, 0.42509051083180777, 0.42054322194745014, 0.41581015172361774, 0.41123586954721614, 0.40660150690753755, 0.40197048152021253, 0.39731102629150006, 0.3927116674648802, 0.38799133572997546, 0.3832648322011882, 0.37851055469086464, 0.3737425480921545, 0.36901948801163514, 0.36422041045387343, 0.3593283063289608, 0.35452723352826676, 0.34971610649584267, 0.3449360212942456, 0.3401045319371001, 0.3352483337904126, 0.33041442827015477, 0.3255785284983491, 0.3206989184302709, 0.31586860676383083, 0.311181640287335, 0.3063342447427839, 0.30149793929783775, 0.29661211067372956, 0.29180712124637276, 0.28693957396616765, 0.2821633998747888, 0.2773948662451599, 0.27273991154996857, 0.267978795176086, 0.2632542974285114, 0.2585290035346018, 0.25382496845792496, 0.24904953902729157, 0.24440204744894536, 0.23976930941098556, 0.23516058237609094, 0.23057318365147011, 0.2259763313061572, 0.2214402417735037, 0.21704305029023063, 0.21254203049214998, 0.2080746560231132, 0.20353735550587002, 0.19915221847481443, 0.19478597652085672, 0.19046307919965638, 0.18617225116723551, 0.18196884527753635, 0.17773971910205794, 0.17343499288216163, 0.1692998809252306, 0.16519931334508706, 0.16126073333800436, 0.15721847922701138, 0.15319756366062418, 0.14925183744871043, 0.14535199493074194, 0.14152382490075577, 0.13771451546984148, 0.1339472516774182, 0.1302377366532073, 0.12657792271268675, 0.1228210823978872, 0.1192808385178375, 0.1158985054776635, 0.11243140591042193, 0.10901698699293609, 0.105576721347513, 0.10227908388157728, 0.09902391163514239, 0.09582754949080938, 0.09268247953923013, 0.08963992542388804, 0.0865938294210449, 0.08364033558483823, 0.08070337027936139, 0.07782567583350522, 0.0751436864765249, 0.07236718809482887, 0.06960368848973678, 0.06696664513355531, 0.0643914040046443, 0.06174828777684266, 0.059311885905295264, 0.05690388691448058, 0.05457854603552621, 0.0523068384327241, 0.05019732101365885, 0.0480216026233491, 0.0459436150053311, 0.04388664327388031, 0.041892830855927536, 0.039893345552395335, 0.0380327365550868, 0.036208257624898536, 0.034465805922448085, 0.032779937549227076, 0.031143642655260994, 0.029572308778922893, 0.02803595265163665, 0.02658045789806618, 0.025180348928810627, 0.023918351230223445, 0.022618873602991807, 0.021365216176224472, 0.020187184982354264, 0.01906707544996927, 0.01791452305519172, 0.0169198650800045, 0.016141547612462847, 0.015228420995872927, 0.014375890254700782, 0.01350717003195655, 0.012781348970976093, 0.012072121626054264, 0.011455321046627071, 0.010887926626950796, 0.010502537195950094, 0.01001626198921532, 0.00953198598537749, 0.009162763416261509, 0.008843483104432068, 0.008598389337771677, 0.008373146541301134, 0.00814633923749277, 0.00802382353804113, 0.007945116879111726, 0.007927582104557254, 0.00793241507724752, 0.007926334165011324, 0.008023073816054311, 0.008158107415833813, 0.008402864630909123, 0.008604153466807497, 0.00882125911732557, 0.009106494712065394, 0.009429011546234144, 0.009884877807608272, 0.010266998360609179, 0.010545476915134655, 0.011024083909612424, 0.011531333290221199, 0.01214945147867134, 0.012702348884727323, 0.013394934135460857, 0.013996872905811687, 0.014634369384180803, 0.015337701851346374, 0.01603622782462986, 0.016669410613465704, 0.017441494301552642, 0.018235992432204914, 0.019123806552512647, 0.0199512844206449, 0.02079167804687822, 0.02166641157535869, 0.022561333103510012, 0.023417724144581816, 0.024356563607207008, 0.025366196906827756, 0.026323773153424525, 0.027296557352381227, 0.02831570289666379, 0.02931134961288732, 0.030410407977186266, 0.03142063759559723, 0.03244695042724777, 0.03350178411721087, 0.03455280421291178, 0.03566561595909553, 0.036731643779648236, 0.037808801094531615, 0.03881264617375167, 0.039917127552594814, 0.0412348892376432, 0.042314584843477616, 0.043406028298897385, 0.04445291394599557, 0.04556758799756954, 0.046619707171856026, 0.04774535759643687, 0.048866835095155554, 0.05013793012065358, 0.0512296570772639, 0.05223067830365968, 0.053337747303201344, 0.05443881651593045, 0.05554393976633889, 0.05662953458169757, 0.057765173220086535, 0.05882799064343013, 0.059885305438832165, 0.06086423774016821, 0.0619165619430942, 0.06312525637737242, 0.0641311758985427, 0.06513370526421551, 0.0661312655578825, 0.06712244603067118, 0.06810957974472423, 0.06908390995963384, 0.07005946276179827, 0.07101241783273328, 0.07195471212990041, 0.07286400356441008, 0.07378541601151622, 0.07470004267808644, 0.07559225577141658, 0.07647024596383203, 0.07743066449350361, 0.07826705607165381, 0.07903999978999351, 0.07986309005966695, 0.08067180166383232, 0.08147305169883459, 0.08225135879986602, 0.08307970522490093, 0.08382046564424954, 0.08454997196786902, 0.0852353171620101, 0.08594475436483333, 0.08667918675309597, 0.08735458123550181, 0.08801767435417632, 0.08857843123955872, 0.0892275982976245, 0.08993791343173875, 0.0905420606440421, 0.09113413620184149, 0.09169618762831602, 0.09226646012399999, 0.09284897288664197, 0.09339057693154613, 0.09392133608074155, 0.09455633148505777, 0.09505139757123608, 0.09538826494777765, 0.09589468565250864, 0.09638756874415039, 0.0968426833198037, 0.09731436724178245, 0.0977737486550434, 0.09822186511245329, 0.09865971065369135, 0.09928935487529837, 0.09968406554756178, 0.09998560081124365, 0.1003994059492726, 0.10081024782003097, 0.10131187820942794, 0.10170617311627841, 0.10199988359107247, 0.10241424658867261, 0.10282600705718467, 0.10322884686623574, 0.10363890976454677, 0.10414554332026243, 0.10454349574580316, 0.10494837191022534, 0.10528491097433389, 0.10571373609063878, 0.10612445238305834, 0.1065639029297527, 0.10700762389187742, 0.10754658446760104, 0.10799102771392902, 0.10844108196446758, 0.10891241545956677, 0.10939699970922752, 0.10993492603742006, 0.11044282789589346, 0.1108567730914956, 0.11141390411122148, 0.111983045217422, 0.11264464644659543, 0.11323209014476773, 0.11377191666080753, 0.11440988741609574, 0.11506601318732962, 0.11582058817205668, 0.11650685233814223, 0.11723022490572445, 0.11796834111765697, 0.11873453615682178, 0.11948985675596621, 0.12031890680991793, 0.12111815208099787, 0.12201077792064027, 0.12292982430934117, 0.12384082301265813, 0.12482151985501448, 0.12606060749088502, 0.12707088770054445, 0.12812562852417142, 0.12907712281061542, 0.1302381680630109, 0.13143088050563373, 0.13266403676792426, 0.1339344934558224, 0.1352505307674701, 0.1365979358572545, 0.13802932366479254, 0.13945398764013303, 0.14092379992701487, 0.14235669815593505, 0.14392888302071258, 0.1456150725422947, 0.14726377938288696, 0.14896111505890713, 0.15067169280831508, 0.15247241320528937, 0.15442549305214395, 0.15631029693617188, 0.15825077941311264, 0.16013553139324965, 0.16220128261622183, 0.1644780403317081, 0.16662315426847743, 0.1688286730400514, 0.17094333727357675, 0.1732875671166566, 0.17573662941854717, 0.1781770330901707, 0.1806734591784154, 0.18328383516013932, 0.18588642110831424, 0.18850290817880636, 0.19123251771855634, 0.19402001892302576, 0.19676882960091574, 0.19968549998454163, 0.20279216701122268, 0.20579972433934912, 0.20887052162892472, 0.21193248796230083, 0.21513814323787778, 0.21848136814629673, 0.22179456274476855, 0.22517151059559773, 0.228626238782439, 0.2321278895577196, 0.23567879629564467, 0.23930911800606772, 0.24300150563480405, 0.24664799461266723, 0.2504774618603646, 0.25434072445017447, 0.258284235904651, 0.26228303174145845, 0.26644184241318924, 0.2705396639669678, 0.27471437067402404, 0.27893482205140296, 0.28321741946346235, 0.28749323018560274, 0.29190666929851183, 0.2964517917512886, 0.30096811242098054, 0.30554463945797966, 0.31015898155777427, 0.31485613439442406, 0.3195128406912941, 0.3243346647357057, 0.32920629739153323, 0.33416018186528756, 0.339127595234304, 0.3442256710101928, 0.3492859468561963, 0.35440134309011384, 0.3595598844933789, 0.36478330817406035, 0.3700972285304113, 0.3754165988497538, 0.38078709767787733, 0.38604576297310844, 0.3915349326703616, 0.3970227091109705, 0.4025931412675246, 0.40819941890121764, 0.4138847334544426, 0.4195573831928287, 0.42533995303864347, 0.4310790271089576, 0.4368587861964004, 0.4427316950311722, 0.4485818060967745, 0.45441038067318257, 0.46034542421615166, 0.4663129775013359, 0.4722148551023137, 0.47825601157237213, 0.48439235325667707, 0.49047065733306844, 0.4965752621450921, 0.5027084794334215, 0.5088613718926768, 0.5150835534718895, 0.521274380086664, 0.5274876819915116, 0.533595995566132, 0.539864872469284, 0.5461260107965881, 0.5524169288314862, 0.5586545724093755, 0.5649680498899705, 0.5712843453709504, 0.5777323264936873, 0.5840365081101275, 0.5902449382172053, 0.596577231302242, 0.6029083999398379, 0.6093272603027456, 0.6156418454276765, 0.6218171442300238, 0.6281490770479986, 0.6344701326890004, 0.6408154981793157, 0.6471079676029747, 0.6533603401624901, 0.659632391284178, 0.6658887832496847, 0.672250451504339, 0.6784565178873464, 0.6845962252524127, 0.6907818131817047, 0.6969473486274037, 0.7030875203669325, 0.7092082619964508, 0.7152354052776344, 0.7213124068138562, 0.7273569469967411, 0.7333607772296495, 0.7393380505225419, 0.7453581141509481, 0.7512518098257102, 0.7571113775364682, 0.7627589790827601, 0.7685669970687574, 0.7743399258452537, 0.7800469047289705, 0.7857044724183782, 0.7913191268680982, 0.796874818032471, 0.802400730475286, 0.8078500589655956, 0.8132472468528251, 0.8186592725970451, 0.8239397663938942, 0.829067579610238, 0.8342547006415211, 0.8393804404501503, 0.8443972068038185, 0.8494033296831696, 0.8544144430348567, 0.8592771775553447, 0.8640757679306363, 0.86873345607821, 0.8734092938090666, 0.8780271644134658, 0.8825558549396082, 0.8870116367498602, 0.8914941929706162, 0.8957888025526428, 0.8998805936454882, 0.9040503990817202, 0.9081394520597651, 0.9122262891391646, 0.9161423825250695, 0.919908778400864, 0.9236769829282757, 0.9273608821446367, 0.9310568950732524, 0.9345582627922981, 0.9379000600497063, 0.9412489204443022, 0.9445101278723635, 0.9477082584615512, 0.9507892939666958, 0.9537536760949601, 0.956661747889385, 0.9594788187522829, 0.9621613441301297, 0.9648005222104007, 0.9674311482898235, 0.9698698668260696, 0.9722185010747764, 0.9743684929293429, 0.9765481936243094, 0.9785756406398635, 0.980565627950061, 0.9824546464954085, 0.9843689799498144, 0.9860418447548344, 0.9876187190491378, 0.9891065922182709, 0.9905006417957015, 0.9917752505892177, 0.9929834596563215, 0.994073636298844, 0.9950915038638326, 0.9960115138587381, 0.9968050724635087, 0.997533419102578, 0.9982489271434185, 0.9987687178285501, 0.9991951071474009, 0.9993841307550765, 0.9996410263159479, 0.9999681455007329, 1.0, 0.9999414420786176, 0.9997022382812067, 0.9994729725186045, 0.9990897850138749, 0.998675460035701, 0.9981626473938088, 0.997591920263818, 0.9968802943477753, 0.9960180024116945, 0.995127856240495, 0.9941425393173069, 0.9930811163205014, 0.9919064678295373, 0.9905295246287038, 0.9891878757949623, 0.9877507096050081, 0.9862448990710222, 0.9846186087057847, 0.982982098840023, 0.9811685968030253, 0.9792727207323815, 0.9773488495065651, 0.9752829866627372, 0.973178938856647, 0.9709529104684436, 0.968651921646254, 0.9662078128884201, 0.9637658794572006, 0.9612421488660859, 0.9586452208656386, 0.95597183917156, 0.9532697370708361, 0.9504407058357154, 0.9474548540829051, 0.944496198081662, 0.9414636130805512, 0.9383837940794397, 0.9352048103872899, 0.9320297175878189, 0.9287070584615998, 0.9253230552998685, 0.9217347685692341, 0.9182484579714609, 0.9147777093508049, 0.9111489618859351, 0.9074618951405327, 0.9037536835622008, 0.8999492370501813, 0.8960168990841588, 0.8921180572367672, 0.8881645911960041, 0.8840217466312795, 0.879981398276576, 0.8760526021380602, 0.8718791494955336, 0.8676632015286713, 0.8632944802495944, 0.8590108133822166, 0.8547175828127963, 0.8503404713409959, 0.845923915603219, 0.8414551545368761, 0.8369663080613158, 0.832373698633176, 0.8278240591584903, 0.8232382963678782, 0.8186436632947713, 0.8139887189812338, 0.8094092681173796, 0.8046854933383853, 0.7999421573885013, 0.7950255571982255, 0.7902648614122648, 0.7855788593927859, 0.780755870539467, 0.775916851843701, 0.7710988564486517, 0.7662266723084185, 0.7612828848757195, 0.7563982096108558, 0.7515013859908558, 0.7466190224006403, 0.7416991066143608, 0.7366901886472367, 0.7317691104235462, 0.7268393942732855, 0.721960369920927, 0.7170116379897482, 0.7120305414987254, 0.7070869947207051, 0.702143953929441, 0.6971813039620351, 0.6922462590971251, 0.6872967389742174, 0.6823724241643276, 0.6775253499527868, 0.6726043210140147, 0.6676957514039973, 0.6627609760409033, 0.6578848555346032, 0.6530502755061389, 0.6481973431877477, 0.6433612049307483, 0.6385319980765414, 0.6337335452860272, 0.62886782612313, 0.6241191175333345, 0.619386474058874, 0.6147254239509001, 0.6100229735563212, 0.6052868291414691, 0.6006401216311004, 0.5960158173802915, 0.5914511833952046, 0.5868711246250844, 0.5822762110134876, 0.577758920590929, 0.5732690985117705, 0.5688186456187216, 0.5643857088969869, 0.5600055695479187, 0.5556332533986096, 0.5512950433609644, 0.5469592037029739, 0.5426950328585372, 0.5383966235091306, 0.5342098648813434, 0.5300548065918506, 0.5260224743197782, 0.5219230812042261, 0.5178746027758744, 0.5138543412961105, 0.5098752532581762, 0.5058297298020634, 0.501947013037829, 0.49820040044328806, 0.4943770848504889, 0.4905968973218989, 0.48693167747451227, 0.48322871763425423, 0.4793934274936035, 0.47580710884379696, 0.47225695752547325, 0.46881944434702644, 0.46533513138958194, 0.4618114262771457, 0.45842408708034416, 0.4550755292232903, 0.45177008424589093, 0.44850075466988093, 0.44532620361092773, 0.44213231296024913, 0.4389831446967542, 0.4358534159117332, 0.4327964303859119, 0.4297535661270744, 0.4267859458602004, 0.423859587713859, 0.4209495437356047, 0.41810940203994706, 0.4153992927694071, 0.4126285253801467, 0.40990342855924533, 0.4071695002555004, 0.4045406877760658, 0.402092770655154, 0.39952779539762573, 0.3970112366759794, 0.39446277222463644, 0.3920492063140989, 0.3896221316307263, 0.3872957162778228, 0.38500587234397454, 0.38281369869023235, 0.380589360392172, 0.37839421729161776, 0.3762505752279527, 0.3741451042309017, 0.37204858370946453, 0.3700216165228748, 0.3679614994215691, 0.3660130647785482, 0.3640953228777461, 0.36235214627866613, 0.3604781904140531, 0.35861822955940487, 0.35682452205840287, 0.3550662114421731, 0.35323110435984884, 0.35155510722076455, 0.34986266489269363, 0.34824553204271785, 0.34665276895269465, 0.34510980210461895, 0.3435633436403684, 0.3421221931500778, 0.34061810663592307, 0.33914421839414877, 0.3377067221037166, 0.3362893845226189, 0.3347632962720445, 0.3334176850496315, 0.332090228937567, 0.33079906940381304, 0.32950609552948285, 0.3282396960444958, 0.3269843336354455, 0.32574817461650435, 0.3245200029711008, 0.3233222434391501, 0.3222385973204901, 0.32106240380363393, 0.3199078212105295, 0.31878070960373023, 0.3176645402479581, 0.31650556129796065, 0.315432402585405, 0.31437173154721626, 0.31329781973009857, 0.3122635239673555, 0.3113067415932658, 0.3102819610869369, 0.30926942960952, 0.3082860839907691, 0.3072927660712491, 0.3062523165786393, 0.3052858839934806, 0.30432453194495, 0.3032923682445503, 0.30234927642909465, 0.30153486015068204, 0.3005742976735493, 0.2996204964576067, 0.29864004004141315, 0.29770062812805864, 0.2967199707020381, 0.2957890503125362, 0.29485626328375847, 0.2939644281533118, 0.2930216004258103, 0.29197785914878677, 0.29104633787471346, 0.2901074535927344, 0.2893086140224115, 0.28833680120727156, 0.28725123627799204, 0.2862950684180522, 0.2853312636852002, 0.2844027956011485, 0.2834178658487535, 0.28247034487819345, 0.2814680310243114, 0.28046134722825505, 0.2794386532399295, 0.27842205581177476, 0.2774196170281946, 0.27638491247268465, 0.2753428591802252, 0.27426043452024507, 0.2732057240996498, 0.27202139887718163, 0.27095918392388024, 0.26987865520336585, 0.26885591886134647, 0.2677311854375498, 0.26661208289410476, 0.2654602221118283, 0.264296632080741, 0.2630635031175393, 0.26188269442785345, 0.26076136471693795, 0.2595393171373616, 0.258305873738142, 0.25704975832247423, 0.25579342636251323, 0.2544949964856393, 0.25321528066714444, 0.25192005016145946, 0.25068831883038056, 0.24935208169809697, 0.24799759069175722, 0.24663948698005667, 0.24526872557693008, 0.2437268696775001, 0.24234957615550917, 0.24094249463932854, 0.23952191733803518, 0.23808025845231987, 0.23672971554074218, 0.23523432233480424, 0.23357917677718817, 0.23207710003863344, 0.23055372792617576, 0.2291141937863492, 0.2275379106230526, 0.2260206478276086, 0.22440953168803088, 0.22271756465153414, 0.22109682193450264, 0.2194618049846931, 0.21793831878891895, 0.21625920047414393, 0.21437570523559127, 0.21270698858805578, 0.21101874318217087, 0.20931554746580636, 0.20759066865156792, 0.20587073099851122, 0.20411064840483115, 0.20233658113582054, 0.20065313383773503, 0.19883927733693896, 0.19691085066022226, 0.19509651971764075, 0.1932685321366056, 0.1915100933333752, 0.18964613324506324, 0.18770664341814497, 0.18583658033610465, 0.1839551727807001, 0.1820988593673583, 0.18019178211805267, 0.17832000116849342, 0.17639207038178092, 0.17445917304884645, 0.1724529715391021, 0.17051852533136191, 0.16862544193844095, 0.16666743043946997, 0.1647045514401374, 0.1627118475368683, 0.16074299182021495, 0.15875413766089383, 0.15677630911854878, 0.1547929957473337, 0.15275810304532678, 0.15077148593637102, 0.14875335903410675, 0.1467581058108003, 0.14475686584609104, 0.14280452619856074, 0.14078748081809006, 0.1387703126011853, 0.13675340813081502, 0.13473715441227044, 0.1327470783041737, 0.13073011138287938, 0.12872355435219768, 0.12671232230790216, 0.12470512379714217, 0.12270573077179321, 0.12070671572736993, 0.11865150803948889, 0.11667016033215252, 0.11469072697902258, 0.11272833729502453, 0.11075316613260895, 0.10883675398451652, 0.1068650826598928, 0.10490237092348324, 0.10293791022499706, 0.10099471476476536, 0.09900631257470953, 0.09708750990787413, 0.09517487449992357, 0.09338404733725318, 0.09147133143530795, 0.0895517206782563, 0.08767071655092876, 0.08580260140322375, 0.08387915147695196, 0.0820455198182158, 0.08027857050393675, 0.0784567941703008, 0.07664878193834448, 0.0749408685711647, 0.07314994135287431, 0.07137093419531046, 0.06961863652860034, 0.06788417251722303, 0.0661888569878692, 0.06448671069848606, 0.06267383427402337, 0.061024939348221424, 0.0593869976192088, 0.057836390020868184, 0.05621363501215163, 0.05452613853691025, 0.052949695016907446, 0.05138679071544107, 0.049888546477659695, 0.04834881850900152, 0.04687804577444015, 0.045369552366048935, 0.04388302710899916, 0.04245779542369686, 0.04100971786072909, 0.03954950008003408, 0.038153127431781966, 0.03677781719941981, 0.035556484174739, 0.0342066246871696, 0.03278488834767661, 0.03150411683568439, 0.030244552060582193, 0.02911043387374896, 0.027880402937146817, 0.02668851015506717, 0.025511132134233807, 0.024360406142330877, 0.023307566043102464, 0.02219938288702968, 0.02116707430073519, 0.02011045416126032, 0.019083962801918312, 0.017968065192877178, 0.017013906571748207, 0.016252993394096502, 0.015319111677416336, 0.014416452835134376, 0.013547549890360862, 0.01270386745308535, 0.011820660465252198, 0.01104236562470607, 0.010287744214598077, 0.00953534980012833, 0.008831123177486673, 0.008185630755355694, 0.007522823750342262, 0.006885474814860179, 0.006435191881341731, 0.005828341636029717, 0.005234522624944539, 0.004698302502556488, 0.004193117370844971, 0.003768488557155168, 0.0033168589586119873, 0.0028037688312447617, 0.002426913920759287, 0.0020751425885103775, 0.0018455523522635678, 0.001532090642140658, 0.0012100622349881848, 0.0009628340833450538, 0.0007431481747356807, 0.0006083252686405377, 0.00043607219211309726, 0.0003840461584264075, 0.00026081572882037153, 0.00017211852727655135, 9.126118043285858e-06, 0.0, 0.00017095204263011841, 0.00019378213613703064, 0.00025128481889116354, 0.0003100693806080684, 0.00043794602202993754, 0.0005456261681477701, 0.0007396132790735884, 0.000960111563579929, 0.001358084692143666, 0.0016129246412633844, 0.001867226173447745, 0.0021962812684249836, 0.0025566950544039044, 0.0029515555635027165, 0.0033728059043006183, 0.003795615536152555, 0.004280766522199027, 0.004794031538195985, 0.005328259223417178, 0.005898770894045843, 0.006500725185469188, 0.007126614702388327, 0.007780816372137789, 0.008499343719573702, 0.009205931791869206, 0.009910830611867908, 0.010682583503976512, 0.011482815044291744, 0.012379896980382485, 0.013228862825269524, 0.01412848596440201, 0.015040153460159883, 0.01598473280283654, 0.01695458552346233, 0.017964596868015457, 0.019013127991347648, 0.02008468973501753, 0.02118760131141998, 0.022325258097022998, 0.023489866899375714, 0.0246999184405143, 0.025924746578066947, 0.027181250730100064, 0.028526715611266944, 0.02983881636258706, 0.031074069977372634, 0.03246867926293271, 0.03389053776505652, 0.03547304274185958, 0.036934111147787524, 0.03838821905332077, 0.03992633730935304, 0.0415220712705801, 0.043121828941154634, 0.044755240877567375, 0.046436405184832254, 0.048134562172768666, 0.04976597817140264, 0.0515442434409898, 0.05335025809125214, 0.05517750809178911, 0.057041875687247286, 0.05892464697294116, 0.06084929330724161, 0.0628035817617002, 0.0649245283268789, 0.0669224297953845, 0.06878313751633289, 0.07088014993895018, 0.0730047618836812, 0.07524765118851039, 0.07741869702338709, 0.07970019858275816, 0.08193169164000697, 0.08420228618480527, 0.08649335996913327, 0.0888425209237749, 0.09111670924662109, 0.09355238570165098, 0.09601766556224885, 0.09866409191784939, 0.10117155841160227, 0.10357176171761491, 0.10617710306380977, 0.10881284965479926, 0.11147607112071917, 0.11417499508055395, 0.11697772805051489, 0.11973203409839464, 0.12252329407456992, 0.12535132184057163, 0.12821595678819525, 0.13108114800470813, 0.1340231450591856, 0.13699937902287954, 0.1399777329069066, 0.14302711968687973, 0.14617771400870808, 0.1492848215488307, 0.15242948758894412, 0.1556150632186511, 0.1588336984073361, 0.16203558089863415, 0.16533506385625096, 0.1686682676365358, 0.1721503910373711, 0.17553729958999145, 0.17897587583916516, 0.18244246174600479, 0.18594913658972467, 0.18938749007494599, 0.1929860319560792, 0.19665633782918654, 0.2003148119871507, 0.20400852676150136, 0.20767282849704288, 0.2114451620428449, 0.21536398229916418, 0.21918540529348243, 0.22304575205592247, 0.22689058228108253, 0.23083392995141933, 0.23477570884274596, 0.23879229169628619, 0.24284119737686147, 0.24694064227683832, 0.25105265012586325, 0.2552919884889447, 0.2594600726461004, 0.263667269205981, 0.26783374269178545, 0.2721267459300319, 0.2764701119410846, 0.2808256577807135, 0.2852145895462246, 0.2896690284587151, 0.2941200352306399, 0.29867744103506305, 0.30318802560080027, 0.30773626474367866, 0.31217748512139, 0.3168162217602099, 0.3214099149407502, 0.3261116653956407, 0.3308368169547655, 0.33576212644631076, 0.34051403486308723, 0.3453119254822188, 0.3501318644349749, 0.35498563632371827, 0.3598435279795888, 0.36476571445413236, 0.36976045425053067, 0.37473552633171536, 0.37974132890526086, 0.3846584496011303, 0.38973805319069343, 0.3949289729629189, 0.4000404833608505, 0.4051788663807767, 0.4102033703205626, 0.4154111540826979, 0.4206969813497011, 0.4259315075992738, 0.4311872796703106, 0.43643171444674317, 0.44173323270049925, 0.4470604403182618, 0.45239792800814255, 0.4577539832161689, 0.4631139119186888, 0.46850788019459483, 0.4739507938098817, 0.4793735661148592, 0.4848140092106742, 0.4903540041196164, 0.4958171752671579, 0.5011496242962304, 0.5066706751860522, 0.5122006107903797, 0.5177860493945978, 0.5233275523587175, 0.5288262143256717, 0.5343958879303582, 0.5399721478605675, 0.545594189043095, 0.5511776250332627, 0.5568118190875491, 0.5624043046740654, 0.5680052045774994, 0.5735199446598039, 0.5791459102555603, 0.5848146356277154, 0.5904341149109777, 0.5960548754442352, 0.6016688884198264, 0.6072905663155183, 0.6128207579539745, 0.6184495517680735, 0.6240699264419179, 0.6297068780630716, 0.6353067017178905, 0.6408305482090417, 0.6464228843895536, 0.6520023357172796, 0.6576369562612451, 0.6631813581276231, 0.6687733054842315, 0.6742895861633229, 0.6797971161867702, 0.6851363724879814, 0.6906419151421501, 0.6961649744482008, 0.70162145028224, 0.7070578438577606, 0.7125309770292642, 0.7179179675034457, 0.723207012847902, 0.7285648702791903, 0.7338968754685262, 0.7391270318808856, 0.7444150692684636, 0.7497142013956322, 0.7549326488798727, 0.7601211178617271, 0.765268125297281, 0.7703958211750489, 0.7754296074750564, 0.7804985508627066, 0.785529651467858, 0.7905836118327872, 0.7955301641753943, 0.8003835184338546, 0.8052647707393938, 0.8101048753582005, 0.8149427027139444, 0.8196935586937403, 0.8244034204379008, 0.8290711892056665, 0.8336957698328783, 0.838369446895703, 0.842892583914317, 0.847273971182308, 0.8517256224551237, 0.8561269134018892, 0.8604842206433598, 0.8647814526913523, 0.8689795888829887, 0.8731770142152053, 0.8773176287146044, 0.8813578257719511, 0.8853886932112224, 0.889286852463871, 0.8932047635529109, 0.8970966482924736, 0.9008786751619907, 0.9045976076959424, 0.9083500303831605, 0.9119293132171984, 0.9153813997777848, 0.9188500767380724, 0.9222534024249728, 0.9255907330890724, 0.9288614114891602, 0.9321114578489649, 0.9352409220961881, 0.9383043386993222, 0.9413617091809421, 0.9442822082771517, 0.9471011669400706, 0.9498935529475679, 0.9526156019150007, 0.9552987259549939, 0.9578733387656194, 0.9601972914848703, 0.9626514009553775, 0.9650223780707992, 0.9673143858107043, 0.9695202452905335, 0.9717092038639575, 0.9737440395325305, 0.9757013611557559, 0.9774622343673243, 0.9792782570269637, 0.9810627457399362, 0.9827017093606952, 0.9842593056589132, 0.9858216541480832, 0.9872053749501388, 0.9884404480415186, 0.9896787781175915, 0.990834671195416, 0.9918828801714098, 0.9928767484433924, 0.9937505183553874, 0.9945806435873772, 0.9953247194771612, 0.9959830823954503, 0.996556020328789, 0.9970689196818091, 0.9974685369219988, 0.9977847865758562, 0.9980032655688705, 0.9981544914744249, 0.9982465974031209, 0.9982262365925179, 0.9981232483747211, 0.9978980405282172, 0.9976345602612381, 0.9973794401958083, 0.9969344498072142, 0.9964103254369521, 0.9957599411669508, 0.9950822274507173, 0.9943073480614196, 0.9934660445374774, 0.9925415521814231, 0.9914695936771036, 0.9903880089490739, 0.9892674332652567, 0.9880095169316345, 0.9866703487498005, 0.9851821550223439, 0.9836905050795534, 0.982204973854553, 0.9805356894021675, 0.9787898172340718, 0.9768957551997777, 0.9750065115086157, 0.9730015556497321, 0.9709581982032779, 0.9688348841309445, 0.9666399747278729, 0.9643593194949494, 0.9619953043206388, 0.9595641780711641, 0.9570583942620872, 0.954493300213762, 0.9518393054921066, 0.9491717945133529, 0.9463693839223374, 0.9435008307844964, 0.940519796403313, 0.9375259696326433, 0.9344179240686475, 0.9312958383469815, 0.9281054088760072, 0.9248694717886988, 0.9215434559996706, 0.9181217367549029, 0.9146740577898399, 0.911163207102128, 0.9077017848940583, 0.9040542917907229, 0.9001883944667706, 0.896455675877684, 0.8926611632962284, 0.8889108037798936, 0.88498484500976, 0.8809793527300079, 0.8769561501634325, 0.8728820349524847, 0.868829878379788, 0.8646480011526373, 0.8603074847801817, 0.8560532011556987, 0.85174982698099, 0.8474097130425039, 0.8430114792893156, 0.8386411813596741, 0.8341474504192652, 0.8296165689489557, 0.8250385106474936, 0.8204369886985314, 0.8157067416887303, 0.8110473099295482, 0.8063492897337965, 0.8016324327925892, 0.7968602827744273, 0.7921670711913671, 0.7873175271551812, 0.7824447415836564, 0.77754922764891, 0.7726315848196179, 0.7675739771456671, 0.7626291633831048, 0.7576578048834619, 0.7527838257538438, 0.7477493300098691, 0.7425064728883621, 0.7374682885255311, 0.7324061639557217, 0.7274086336023579, 0.7222946217138763, 0.7172471440178877, 0.7120994674127055, 0.7069462826257481, 0.7017235539654275, 0.6965694148938841, 0.6913399162429379, 0.6861814572201614, 0.6810146289358135, 0.6759597584243282, 0.6707665634169178, 0.6653972787032354, 0.6602343672711044, 0.6550661627874568, 0.6500133496337467, 0.6448259503037631, 0.6395741963770758, 0.6344116645471919, 0.6292542734210086, 0.6240460092868381, 0.6189104455644981, 0.61388510952091, 0.6087502776894476, 0.6036307482922578, 0.5985631399162721, 0.593471809174653, 0.5883389127067219, 0.5832947390700871, 0.5782676021988313, 0.5731831287937361, 0.5682027093982087, 0.5633997639686784, 0.5584322217420776, 0.5534926801216151, 0.5484770893786977, 0.5436070929620844, 0.5387382322704376, 0.5339174782903957, 0.5291204516423296, 0.524258599213676, 0.5195240036199398, 0.5149660228487721, 0.5102580497045385, 0.5055843327094202, 0.5008158445300996, 0.4962278025372319, 0.49174665306822496, 0.4872057819996241, 0.4826999093845121, 0.47823318167844286, 0.4737985069864327, 0.46944017095968427, 0.4650746644704986, 0.4607491910345554, 0.45646750353419624, 0.45222215751108524, 0.4479026960691036, 0.4437537046023027, 0.4396395128786289, 0.43563671113687585, 0.43158600020933247, 0.4276134575858085, 0.42364300299050983, 0.41971738887069543, 0.4158473786848547, 0.4120100816966388, 0.40813209173305276, 0.40439666840618727, 0.40056901242267834, 0.3969324026045186, 0.3933303544701737, 0.3899656381549234, 0.3864120629980895, 0.3828764258170502, 0.3794269711944702, 0.37602504641148904, 0.3725663816863084, 0.36927233005473986, 0.3660842703218584, 0.36286548095115967, 0.3596930457647131, 0.35660290530905003, 0.3535187001766581, 0.3504074706361611, 0.3474292685691693, 0.3444946068465537, 0.34151402166771366, 0.33867868568308973, 0.33590776022773877, 0.33314865056531107, 0.3304318068449491, 0.3277827596033108, 0.32514835162330435, 0.32252261445292596, 0.31998185289599895, 0.31748349080679567, 0.31496302552158484, 0.31255798519391886, 0.310385856689642, 0.30803471821753037, 0.30573424603816857, 0.3034112892729248, 0.30121735379152276, 0.29905917692379197, 0.29695154644877575, 0.2948854815166744, 0.292935968896533, 0.2909421980355461, 0.28896776721381623, 0.2870650707402437, 0.28520338471325873, 0.2832814190767257, 0.2815122964173886, 0.27977642162701455, 0.2780739430996488, 0.27640492680459733, 0.2748699202651894, 0.2732550179742476, 0.2716718114900397, 0.2701345691249559, 0.2686338406249253, 0.2670215268566252, 0.26560990863928186, 0.2642887084945869, 0.2629208768443871, 0.2615831441027056, 0.26026079687519493, 0.25898399490005786, 0.25777124114866257, 0.25654582967599593, 0.2553498478099886, 0.2541682206108611, 0.25303078593903827, 0.25193421316483916, 0.25084736375761607, 0.24978662050080463, 0.24871892929297815, 0.2477122919795759, 0.2468175442408856, 0.24584330743178737, 0.24489526574911222, 0.24381057367256692, 0.24293171305988914, 0.24209878380122998, 0.24124329937087305, 0.24040361416637993, 0.23959027336157745, 0.23878007951290992, 0.23801416430784567, 0.23723096133171365, 0.23646394284090633, 0.23571953062656809, 0.23498169597082982, 0.23435514910022234, 0.2336328989699386, 0.23292882750052457, 0.23213364452645344, 0.23147501066126902, 0.23094628243131093, 0.23028742974167243, 0.2296424427571611, 0.22887703471712872, 0.22827245880296393, 0.2276488190784506, 0.22705187733603033, 0.22645603776816406, 0.2259510923063261, 0.22534606643942717, 0.22470751337189473, 0.2241185468591215, 0.22353160352752785, 0.22291387169607654, 0.2223335890670162, 0.2218525958410441, 0.2212568297633625, 0.22066493939313964, 0.22001836255196758, 0.21943826217412046, 0.2188593246635771, 0.21827348595844467, 0.21768456768319433, 0.21712803162974162, 0.21652706659812035, 0.21584469632061418, 0.21524821039783446, 0.21464350173458244, 0.2140054318941819, 0.21338741684450926, 0.21289612044306144, 0.2122414408794652, 0.2115848026657201, 0.21078863383179489, 0.21014212286369469, 0.209468602139063, 0.20879887694636143, 0.20811615534063707, 0.20740991903148961, 0.20670327031263963, 0.2060662048488166, 0.20532325240350155, 0.20457221335581505, 0.20371553256377004, 0.2029588532832375, 0.2023234700236774, 0.20151949719137302, 0.2007085670490025, 0.19972457749867673, 0.19891800463779966, 0.19816817679764692, 0.19731539688044025, 0.19644942958342096, 0.19562403336155226, 0.19472454742822884, 0.193742741950878, 0.1928308142329279, 0.19190334741541712, 0.19108619156403636, 0.1901121957760964, 0.18902238040390573, 0.18804493925527616, 0.18705167096718509, 0.18608943998275615, 0.18505913480038458, 0.18395506944688916, 0.18290684120431017, 0.18184206613437984, 0.18074313021269656, 0.1796485336765732, 0.17863071048959456, 0.17749152634361454, 0.1763417880368946, 0.17510927583841893, 0.1739463980937046, 0.17278590906508376, 0.17158999625542382, 0.17038024634848398, 0.16908861553657403, 0.16786039603811917, 0.16661150352169113, 0.16535032631123314, 0.16407330566140269, 0.16277751077611838, 0.16147118506550467, 0.16025119762603796, 0.1589042672748804, 0.1575498150744657, 0.15611926978559637, 0.1547574625132672, 0.15349483040406087, 0.1520950419518314, 0.15069014557461186, 0.14911083681570933, 0.1477156295259118, 0.14646620780479502, 0.14502004206392172, 0.14356927513892534, 0.14211355641932746, 0.14065262284754568, 0.1391360125588115, 0.13767052813108022, 0.1361966664806765, 0.1347184362159818, 0.13322862112809425, 0.13169597822340434, 0.1301972711177741, 0.12869043236512573, 0.12725875763739417, 0.1257272667831189, 0.12407217020915123, 0.1225530612755474, 0.12100759131614368, 0.11947498166442792, 0.11793496074054932, 0.11637420289986639, 0.11482421513253085, 0.11338741158343572, 0.11181272066022317, 0.11024115900373974, 0.10864384647690668, 0.1070817872782423, 0.10553174518715551, 0.10397105617935022, 0.10241272368971167, 0.10078511231850162, 0.09924117102060526, 0.09773570184348034, 0.09618553405645411, 0.09463816264473802, 0.09313709527510752, 0.09159109830980926, 0.09000125874197801, 0.08847454170355222, 0.08695158004242026, 0.08549754642036855, 0.08397549039871162, 0.08250903717127277, 0.08099886770423957, 0.0795002007072513, 0.07792652299424159, 0.07646088055638382, 0.07496168503542215, 0.07351354475501085, 0.0720703234153877, 0.07074422632932732, 0.06929932939865166, 0.06777108021143716, 0.06636548155983445, 0.06496774168536117, 0.06374018194790432, 0.06233981747373572, 0.06089374210727538, 0.059538704476101184, 0.05819767352750883, 0.056946113502664986, 0.055623737347641686, 0.054287525295029886, 0.05300574619801024, 0.051739815833044205, 0.050482538456780024, 0.04924922101442375, 0.04810686157649221, 0.04689525699791151, 0.04570378424785451, 0.044600283345172825, 0.043439353963488934, 0.04222604900698279, 0.0411200413989622, 0.04003157871039567, 0.03902905209324334, 0.03796754865062737, 0.037028525309133614, 0.03599783393778624, 0.03499415260548363, 0.03402728497176235, 0.03307351604440613, 0.03217725101133951, 0.03126914646629921, 0.030386938511708997, 0.02962336730412255, 0.028779375684676884, 0.027760291876687607, 0.027000371275152323, 0.026256682625899395, 0.025659463403355048, 0.02493468016199696, 0.02425759925721811, 0.023582133522963924, 0.022933572972264893, 0.022308026917746568, 0.02171291069647377, 0.021294659368825464, 0.02073246644332283, 0.020204686376851556, 0.019713722097442644, 0.019250933713991152, 0.018744312178761675, 0.01835350713017608, 0.01798874435093903, 0.01769684562063321, 0.017378696075071576, 0.017043003095681443, 0.01678886971796803, 0.016560970583966335, 0.01646017336920397, 0.01627295815418421, 0.016075446105572037, 0.01595876500722357, 0.01587153059508107, 0.015881984049211293, 0.015845062242680365, 0.015816375400455697, 0.0158489086131974, 0.015912544773180912, 0.016039492666052996, 0.016160948346255723, 0.016289955217339197, 0.01647969918019178, 0.016700236898917545