0.03132712981722436, 0.030773054888998296, 0.0302663391544708, 0.0298470237244078, 0.02940967750221491, 0.02897293983511395, 0.02859910408599437, 0.028246690519655285, 0.027918933083151572, 0.027599158588931052, 0.02727316762981393, 0.026980643194222206, 0.02669680861744409, 0.02642271553461828, 0.026152878495429594, 0.025843537877018125, 0.025591467422330223, 0.025342357906122763, 0.025130223440562156, 0.024883679740073154, 0.024640887338673385, 0.024406701579635794, 0.024178856909840674, 0.023906592550836357, 0.023699134385977625, 0.023500832646590916, 0.023303364516044336, 0.023112787237909275, 0.022944095662973063, 0.02276802228092116, 0.02257379381636786, 0.022422236334404527, 0.02228052126525717, 0.022169087064809304, 0.02204707536544768, 0.021934057875095475, 0.021839850493550538, 0.02175984288629036, 0.021683704250424384, 0.021635108436147084, 0.021560331855155504, 0.021547895475394097, 0.02154943076175952, 0.021575578252087287, 0.02160628509153149, 0.021610314268358296, 0.0216808235107824, 0.021766868575466745, 0.02191501590255035, 0.02202883709357121, 0.02212935955720659, 0.022288612093390173, 0.022466967705320032, 0.022673671540001456, 0.022890707578372506, 0.023073329540401383, 0.02333993927813191, 0.023625243600167743, 0.023956145399741537, 0.024277812680851035, 0.024563016992690583, 0.024937130035980554, 0.02533102078202985, 0.025759666725292597, 0.02619373608738478, 0.026645210869118453, 0.02712618464528393, 0.027630707823940292, 0.028152748988113905, 0.02870666200960323, 0.02925468887240811, 0.029862102575673195, 0.03049330679146015, 0.03115985044624886, 0.031839204457009274, 0.03249692137541199, 0.03323528131624935, 0.03399807400984169, 0.03479588255045774, 0.03560859984181266, 0.03644847504778861, 0.0373160436151261, 0.03821180554976795, 0.03914602538811755, 0.04009831490041114, 0.04106652648518654, 0.042081065807439734, 0.04312551012183833, 0.044198098792836926, 0.04530385670437485, 0.04642970374259166, 0.04759916392910728, 0.04879972961245097, 0.050019864502366326, 0.05128543934755027, 0.052535884639629354, 0.053871186996190965, 0.0552364368204796, 0.056634595239303254, 0.05806174565010026, 0.059551584515401594, 0.06103987800205315, 0.06256318359055958, 0.06408689903508631, 0.06568530047456568, 0.06733372971511511, 0.06899794265614988, 0.0706976733528957, 0.07243861915795687, 0.0742094420754482, 0.07596346011649552, 0.07781423229929511, 0.07969883051878118, 0.0816439335445775, 0.08359448772036156, 0.0855611374355465, 0.0875880263789819, 0.08965084558387158, 0.09176403454879895, 0.09389775469767284, 0.09602214778648256, 0.0982367959803427, 0.10048639687982658, 0.10280726940538386, 0.10512337547910097, 0.10746876211032368, 0.10986188245491202, 0.11229236421159582, 0.11476671962172225, 0.11727102294313213, 0.11977375511145122, 0.12235810497432195, 0.12500153959435667, 0.12765330296334326, 0.13034182238209366, 0.13304737854016863, 0.1358114839214222, 0.13862277756883032, 0.14145577513751287, 0.14432457271161903, 0.1472039446909254, 0.15014691080717055, 0.1531388742936484, 0.15614738515973714, 0.15919037243863182, 0.16227084909778744, 0.16538159824422077, 0.1685022422982813, 0.17168335899200982, 0.17489627695995486, 0.1781342881385664, 0.18141106291587256, 0.18473821792495065, 0.18807386050200225, 0.19144088786710806, 0.19478332806307788, 0.19821874031701592, 0.20171255648126182, 0.2051976019403152, 0.20871107860420085, 0.2122133636739913, 0.21578731046619234, 0.21940024213912782, 0.22302187285716968, 0.22666867610572736, 0.23035110780143808, 0.2340455587147233, 0.23773827917084608, 0.24148419748239852, 0.24525178688501653, 0.24902754290273177, 0.25283875263519395, 0.25670862845746456, 0.26055339521345283, 0.26441888700636024, 0.2682792119067149, 0.272186743711989, 0.2761317007123525, 0.28006945145758055, 0.284023767624731, 0.2879948640903898, 0.2919795512888826, 0.29592817240344393, 0.2999463024765673, 0.30397384411108636, 0.3080494893073097, 0.3120893753609837, 0.3160989754106437, 0.32016297251507764, 0.3242327916382364, 0.3283437199488798, 0.33241870899283993, 0.3364919035527204, 0.3405784700132334, 0.34466836782988286, 0.3487649841855364, 0.35285808986977696, 0.3569529453328593, 0.36104622008662474, 0.36513818498329054, 0.3692223725217459, 0.37330932972688524, 0.3773458828463142, 0.38142825590246965, 0.38550140234049357, 0.3895646953924383, 0.3936174569550389, 0.3976774652428552, 0.4017046081311263, 0.40571996142612854, 0.40973233277205423, 0.41371989193020065, 0.4176714433139253, 0.42163217557208515, 0.42557524790338475, 0.4294975610571815, 0.43340280120202196, 0.43729722913765134, 0.4411590560387978, 0.4449988908336849, 0.4488396107717358, 0.45262922855245125, 0.45637539784590075, 0.4601185138861409, 0.46383416822241613, 0.4675071506422653, 0.471166488844115, 0.47479765741907054, 0.47839277061808, 0.48195473573983716, 0.4855043309932333, 0.4889942733102182, 0.4924079474621502, 0.4958321266102055, 0.49921674627933943, 0.5025697111230181, 0.5058716804403287, 0.5091429903644292, 0.5123595653895096, 0.5155333402902527, 0.5186817909497141, 0.5217645543257509, 0.524765497245521, 0.5277621633676431, 0.5307096730782466, 0.5336551230702316, 0.536495874780627, 0.5392638039978317, 0.5420086255231618, 0.5447008645275379, 0.5473025904335308, 0.5498915838838225, 0.5524471333627566, 0.5549177391252837, 0.5573311135029659, 0.5597038567684639, 0.5619981334802968, 0.5642565998431246, 0.5664297304961536, 0.568543662057987, 0.5705929935633576, 0.5725859863104005, 0.5744925984779544, 0.5763628791750276, 0.5781676821729121, 0.5798498092782702, 0.581529020336871, 0.5831650172016523, 0.5846998275050993, 0.5861654737909613, 0.5875800481052087, 0.5889037901902417, 0.5901374846485195, 0.5913245414221905, 0.5924399630833422, 0.5934594504568533, 0.5944335683067672, 0.5953935140251776, 0.5962118441735917, 0.59695918397783, 0.5975619520713501, 0.5981746087521411, 0.5987375713212091, 0.5991930556689946, 0.5995732886016248, 0.5999009350990843, 0.6001272106451437, 0.6002887704186751, 0.6003644447983841, 0.6003655158926686, 0.6002361314475491, 0.6000940295668594, 0.5999212042887894, 0.5996160561230099, 0.5992354388731017, 0.5987726483840022, 0.5982414389513027, 0.5976024320371874, 0.5969227452543892, 0.5961650830057555, 0.5953526167561531, 0.5944370574762493, 0.5934577225298653, 0.5923892895121566, 0.5912460822504023, 0.5899813978868815, 0.5886948961983589, 0.5873564438773475, 0.5859134022806803, 0.5843959583283314, 0.5827870735919322, 0.5811241767872902, 0.5794088625041468, 0.5775954249668184, 0.5757101946658568, 0.5737546810616693, 0.5717270218784037, 0.569575654943727, 0.567414490870327, 0.5651809955054905, 0.5629099017076448, 0.5605304304279943, 0.55805077839822, 0.5555410405386222, 0.5529632878493952, 0.5503076049901746, 0.5475980946139071, 0.5448478703153311, 0.5420047349415575, 0.539099314285147, 0.5361041221048731, 0.5330801649597176, 0.5299926522304669, 0.526847310814462, 0.5236426561842715, 0.5203667291036205, 0.5170483991486424, 0.513663519134941, 0.5102341170700868, 0.5068074812236362, 0.503262204072895, 0.4996677440207753, 0.49601398343313263, 0.4923248817894931, 0.48857101463024544, 0.4847904044538769, 0.48096347889101365, 0.4770446258721238, 0.4731345644180181, 0.46919766017312275, 0.46519616209706244, 0.46115350852367987, 0.4570569269783959, 0.45293787240070604, 0.44877988397175506, 0.4445867440936761, 0.44035861537950355, 0.43610020598831123, 0.43180600141476205, 0.42749869439652927, 0.42314263500306004, 0.41875979310025896, 0.41435684351961305, 0.4099234619606334, 0.4054238097096253, 0.4009516953780391, 0.39645688410106555, 0.3919965002965372, 0.3874540957447733, 0.3828500736563488, 0.3782850479533048, 0.3737048017009979, 0.3690945451357847, 0.3644905127462378, 0.3599412922734596, 0.35530732143592164, 0.350668701460187, 0.3460090448754991, 0.3413664509235829, 0.3367214313917465, 0.3320752647018474, 0.32742924111856186, 0.3227324172950432, 0.3180971938507386, 0.3135120824578801, 0.3088746729606303, 0.3042445753129518, 0.299607803264705, 0.29499801718580076, 0.29038866549462217, 0.28580196746467096, 0.28122771519378825, 0.2766793225004306, 0.27213274880082283, 0.2676122552461008, 0.26310060435491106, 0.25860936190267525, 0.2541157722605693, 0.24967194048971234, 0.24523658551257815, 0.24084116721862336, 0.23647029573772202, 0.23215805073278112, 0.22783638506311707, 0.22348321872598617, 0.21923151985671413, 0.21500896577751477, 0.21083450678493362, 0.2066725794118634, 0.2025462693217799, 0.19845446617307652, 0.19439962284981144, 0.19036544536354338, 0.18639005120157312, 0.18247458056522556, 0.17857622219476152, 0.17472054638117168, 0.17090192686696803, 0.1671351324619998, 0.16339588644282113, 0.1597221107040641, 0.15609407428249442, 0.15252907821058065, 0.14899333647739937, 0.14553860750063324, 0.14209848946330475, 0.13871100276875387, 0.13534500209783676, 0.13206803343048484, 0.12888129856628713, 0.12570448302251136, 0.1225832949405057, 0.11946907885711928, 0.11646631465502601, 0.11355768889093865, 0.11065829822489198, 0.10781644595422915, 0.1049943467210676, 0.10227330848238037, 0.09960095872894915, 0.09699408959417631, 0.09444423265753843, 0.09195738470683977, 0.08952247487352584, 0.08713006281909735, 0.08481522265186131, 0.08255896422096881, 0.08036060685411704, 0.07822281781419277, 0.0761925006750928, 0.07416808086601352, 0.0722064032346941, 0.07026697839707294, 0.06843522587683275, 0.066653514156892, 0.06494278245994142, 0.06329151242415454, 0.061713955636505634, 0.06018007676737015, 0.05870770122903584, 0.057294360265777756, 0.05594115764773159, 0.05463263517090556, 0.05340094746404381, 0.0522332433142587, 0.051117773235309756, 0.05006075454028833, 0.04910651100919725, 0.04815981860377192, 0.047253494226310526, 0.04642844630018013, 0.04566077158879023, 0.044943374197607876, 0.044289564956548025, 0.04370082991808103, 0.04315579265430185, 0.04266547115723518, 0.0422313781707254, 0.0418482111605176, 0.041503710825179486, 0.04122725159863625, 0.041001378056011964, 0.04081458598361535, 0.0406893738304021, 0.04059152003791166, 0.04056439109499108, 0.040582889909405354, 0.04067045282299311, 0.04077560225476217, 0.0409336652185484, 0.04112759560994272, 0.04136554055428891, 0.04161173027320021, 0.04193927681459524, 0.042333244373610746, 0.042735084520583125, 0.043176243287787776, 0.043638315440515205, 0.044157330862022205, 0.04468882840895077, 0.04528053030287946, 0.045904499732756565, 0.046576314027707004, 0.0472604623014936, 0.04798303381189473, 0.048726822293755266, 0.049499814070108894, 0.05028567030517071, 0.0511156844288512, 0.051959837634067696, 0.05284027528063858, 0.053743106749671664, 0.05469241477270526, 0.05563398959033839, 0.05657031049617797, 0.057555698422099746, 0.05855804324197476, 0.05959049018374411, 0.060621927190465934, 0.061654983303346386, 0.06271625987120512, 0.06378914053509646, 0.0649052127375521, 0.06599396801465818, 0.06707660875930996, 0.06818649705784562, 0.06930299899270623, 0.07038249583667404, 0.07151408672362221, 0.072677982434674, 0.07380625771478612, 0.07493539757512838, 0.07610128347167033, 0.07722410655926555, 0.07833454440004393, 0.07945665425949355, 0.08057492164811017, 0.08164568066016722, 0.08275800317745093, 0.08387794180175516, 0.0849676668209909, 0.08604260080027719, 0.08711102858757228, 0.08816683382437769, 0.08920038228258306, 0.09022926501731533, 0.09124879526577714, 0.09224424138794178, 0.09322247878103324, 0.09423593958675937, 0.0951703256043296, 0.09608564655645666, 0.09698523187064355, 0.09786527291622332, 0.09874855851961044, 0.09958307000767427, 0.10039280871202369, 0.10118352421531913, 0.10195023111693914, 0.10272999062576726, 0.10344082204398508, 0.10409637644637905, 0.10476027952302538, 0.10539539907342951, 0.1060368827064647, 0.10660762683840032, 0.10715812560652242, 0.10766892515260723, 0.10814945555061801, 0.10865109010852637, 0.10906193676349017, 0.10945066137269484, 0.10979997000152394, 0.11011788827085284, 0.11039802871685256, 0.11065111738711424, 0.11090152766860517, 0.1110815138856517, 0.11122784645197577, 0.11137025756769244, 0.1114432927024991, 0.11154228764756316, 0.11153921682958494, 0.11150424142654534, 0.11145375918052157, 0.1113498683244572, 0.11120154038733497, 0.1110311625792779, 0.1108252343171975, 0.11060836289495284, 0.11032698514062265, 0.11004528839955954, 0.10968884345244598, 0.10929856684801642, 0.10891644385664584, 0.10845186436405735, 0.10793301446915012, 0.10740569371144809, 0.10684379963008005, 0.10631147950324656, 0.10567219770934308, 0.10500416236084835, 0.10430239019984211, 0.10356922832263257, 0.1028665867323502, 0.10206252086018618, 0.10124679649582279, 0.10038436127734573, 0.0994943273773954, 0.09858411610310903, 0.09763746099412682, 0.0966525415082448, 0.09565260205399374, 0.0946249762942146, 0.09360487967675052, 0.09251871108460219, 0.09142342282449244, 0.09028692034626559, 0.08912761934330611, 0.08794913879952254, 0.08674497641822872, 0.08558917113997791, 0.08433416396952496, 0.08306296111718514, 0.08175392658251507, 0.08045360482102545, 0.07914641681689272, 0.07781217541304765, 0.07646317564541143, 0.07516323881261561, 0.0737788867257883, 0.07239320703201872, 0.07099036022151747, 0.06957982706138326, 0.06821109416347992, 0.06678061676665001, 0.06531435300569079, 0.06388210969501885, 0.06244576527412215, 0.06102468195029609, 0.05958043531958166, 0.058140235171999996, 0.0566956986412553, 0.05525290982621894, 0.05386397841772505, 0.05242113295945181, 0.05100768804604969, 0.04957803699831563, 0.048158690215244465, 0.046720930944111366, 0.0453280087048226, 0.04394818813507807, 0.042577986644235226, 0.0412211574130141, 0.03993222182872709, 0.03859898843614622, 0.03723896121799732, 0.03595248728541658, 0.03468511571823514, 0.03346974064491064, 0.03224057953566619, 0.031074391815987257, 0.029891259438635385, 0.028737349094943528, 0.027600438237432585, 0.026509198495967945, 0.02547525750628345, 0.024444170897524563, 0.02344795749666828, 0.022501706933642094, 0.021576315971344896, 0.020641649027336676, 0.0198004808562512, 0.01899715935730602, 0.01827226692961663, 0.01754386502796993, 0.016819379736290736, 0.016185471305901804, 0.015595561998909158, 0.015064096032990111, 0.014564654266388076, 0.014145570905538314, 0.013740919518800352, 0.013389203379303513, 0.013100037807211235, 0.012855830740447908, 0.012687405281819497, 0.012553974952647875, 0.012479594650378692, 0.012463915620843308, 0.012510018154893797, 0.01258474992243942, 0.012758355800750406, 0.012993045662486755, 0.013267055453432545, 0.01363005149318934, 0.014110459130723983, 0.014593745920695907, 0.015145404236702142, 0.01573560892668667, 0.01642982089804288, 0.017213341226405124, 0.01804310125853718, 0.01894442843773828, 0.019906023859393947, 0.02095400799488321, 0.022061810027783284, 0.02325793230263585, 0.024527630131864223, 0.02589127154142017, 0.027307931579847344, 0.028809090884343122, 0.030379045164795632, 0.0320272816059249, 0.033707394603421696, 0.03551928655592434, 0.0373905639504324, 0.039358983098286525, 0.041404610536430735, 0.04357498596574935, 0.04577125108206159, 0.04804716499174208, 0.05040750335059992, 0.05284982176600968, 0.055370984282307474, 0.05797804222877456, 0.06064218701997351, 0.0634167400761421, 0.06627216095154868, 0.06919997959966254, 0.072218896430052, 0.07527956686110895, 0.07846546689636827, 0.08173036225519725, 0.08511271096460488, 0.08853178263193602, 0.09200560700744442, 0.09559185196898508, 0.0992581122178184, 0.10302611292808492, 0.10684946239178368, 0.1107123832235242, 0.11470243479717213, 0.1188062063953271, 0.12294720743822948, 0.12716772836903162, 0.13141607624004817, 0.13580046582779057, 0.14025546098682587, 0.1447901167571464, 0.1493990059471801, 0.154104670323475, 0.1588581215717308, 0.16365437387946727, 0.16855984909724075, 0.17353648979090258, 0.1785816079538661, 0.18369925757294475, 0.18886119674789154, 0.19411998478859982, 0.1994452914763387, 0.20485177806407662, 0.21030639358261596, 0.2157937890818392, 0.2213824962870719, 0.22703295824899125, 0.23274227666504338, 0.2385142886348907, 0.24432597196371256, 0.2502180871270972, 0.25616650932981755, 0.26219977278712747, 0.26825446646289774, 0.2743142907636574, 0.2804844302011997, 0.286704374549523, 0.29295360853811747, 0.2992727962496194, 0.30564097377600896, 0.3120502339337107, 0.31850339955746115, 0.3250036915488201, 0.33154066077277966, 0.33811059188136905, 0.34472835721965567, 0.3513835783931982, 0.3580683810856917, 0.3647952671920332, 0.3715659764417829, 0.3783559617564055, 0.38517665442410787, 0.3920025487969568, 0.3988829820857978, 0.4057782445025439, 0.4127077445209771, 0.4196584385002297, 0.4266006122618892, 0.43359298423508263, 0.4406158337500025, 0.4476354594530472, 0.4546685235183091, 0.46171131741269505, 0.46876690697001316, 0.47579738654844583, 0.48287290538019695, 0.48995194131400527, 0.49698958628893214, 0.5040769934029582, 0.5112003906906555, 0.5182752972008551, 0.5253468075289827, 0.5324002338399855, 0.5394616984860027, 0.5464542227051471, 0.5535035164640191, 0.5605371779973273, 0.567554053821823, 0.5745529107686957, 0.5815542132868206, 0.5885103071181191, 0.5954455143547408, 0.6023766958236894, 0.6092628453459725, 0.6160490676550766, 0.622893221721995, 0.6297046706046815, 0.6365246498847998, 0.6432616217024575, 0.6499078559956916, 0.6565819843765792, 0.6632153605372336, 0.6698110799626344, 0.6763585761700548, 0.6828464077321614, 0.6893055527253712, 0.6957165414586418, 0.7020519031972376, 0.7083658034194169, 0.7146433593323761, 0.7208463225590054, 0.72699402731741, 0.7330991885528291, 0.739130273237145, 0.7450818815072325, 0.7509964179423575, 0.7568478722119508, 0.7626392247079168, 0.7683598413214551, 0.7739743116001836, 0.7795645468089578, 0.7850828132774968, 0.7905487200420224, 0.7959171974829189, 0.8012224698978164, 0.806440097927952, 0.8115816686817857, 0.8166382052772898, 0.8216245768939243, 0.8265021703527224, 0.8313299446052562, 0.8360732392076714, 0.840706074109765, 0.8452807288001273, 0.8497590267424717, 0.8541564172342304, 0.8584631183658967, 0.8626947300837435, 0.8668157918945569, 0.8708209085307175, 0.8747601011215685, 0.8786041695015719, 0.8823546137827692, 0.8860061213539507, 0.8895812596027396, 0.8930353515207387, 0.8963921560681576, 0.8995996657064209, 0.9027658390470201, 0.90587946284611, 0.9088337324773607, 0.9116874969993886, 0.9143648845810852, 0.9170248617204603, 0.91960840684733, 0.9220506745630599, 0.9243876286266781, 0.9266385133397804, 0.9287613317470761, 0.9307419210568942, 0.9326585042358817, 0.9344668886320948, 0.9361560929756115, 0.93774916385938, 0.9392276935860248, 0.9406032534037485, 0.9418694052155745, 0.9429978935750626, 0.9440489364954333, 0.9450076184194677, 0.945834874373385, 0.9465528467213685, 0.9471844916123024, 0.9476813158647668, 0.9480236697690068, 0.9483110276018817, 0.9484880376899323, 0.9485888501911337, 0.9485421200535439, 0.9483522290446313, 0.9480956814426288, 0.9477301684109806, 0.9472605350368735, 0.9466780161496703, 0.9459697540093325, 0.9451755626429932, 0.9442740439200014, 0.9433017623943536, 0.942182988204659, 0.9409379878507204, 0.9396157294624596, 0.938189592692019, 0.9366732735156881, 0.9350396525785989, 0.9333102907580717, 0.931474205360406, 0.9295384560431563, 0.9274503253259822, 0.9253238732711067, 0.9231163137205269, 0.9207871426642347, 0.9183606657684654, 0.915845468450961, 0.913226325841419, 0.910499085515099, 0.907694773184152, 0.9047976156287668, 0.9018185025835525, 0.898737705568325, 0.8955276475321368, 0.8922750034289345, 0.8889332121989638, 0.8855091219641599, 0.8819925470616304, 0.8783847632040298, 0.8747009714017894, 0.8709347595359486, 0.8670972845713856, 0.8631690717963776, 0.859195708776712, 0.8551090339691741, 0.850930439136485, 0.846700299629936, 0.8423978089133779, 0.8380144357125795, 0.833572294648253, 0.8290447801894729, 0.8244680110008455, 0.8198240913385304, 0.8151036879812237, 0.8103314887088723, 0.8055179284960118, 0.8006183401092969, 0.7956600733798022, 0.7906652295231595, 0.7855912683939109, 0.7804031402370365, 0.7752317442660416, 0.7700063255242627, 0.7647755273945686, 0.7594416375508654, 0.7540574257905759, 0.7486335248868698, 0.7431661845053263, 0.7376046153330151, 0.7320613789426922, 0.7265088292029895, 0.7208794483458602, 0.7152137237631813, 0.7095164956923975, 0.7037823952329157, 0.6979907357200791, 0.6921986102569064, 0.6863766776717964, 0.6805125499606391, 0.6746380513823079, 0.6687392521501587, 0.6628156450000422, 0.656870290988095, 0.6509027481053252, 0.6449193532220657, 0.6389094198469181, 0.6328954559527118, 0.6268675325163682, 0.6208665443908947, 0.6148108548836457, 0.608729952317964, 0.6026644973405096, 0.5965939403010823, 0.5904816802894547, 0.5844102083831368, 0.5783609880200908, 0.5722825647201032, 0.5662062734085891, 0.5601161874745322, 0.5540508112026952, 0.5479866566165791, 0.5419345668008655, 0.5358909475993279, 0.5298867459662754, 0.5238610004350575, 0.5178543145024376, 0.5118586640099976, 0.5058804334203973, 0.4998936145373234, 0.4939572736928768, 0.4880284682535997, 0.4821340830421091, 0.4762613571929744, 0.47038998826436296, 0.4645676915885322, 0.4587722917431058, 0.453000689520382, 0.44725693350440293, 0.44158596519410914, 0.43589656666571697, 0.4302328307142009, 0.4246141979303379, 0.41903130155157386, 0.4134350775501215, 0.4079329839341969, 0.40248856694138185, 0.39705691484958056, 0.39166508513916204, 0.386293480975656, 0.3809871270235461, 0.3757171455707215, 0.3704962639868406, 0.3653191519560652, 0.36023806637844535, 0.35514528112010807, 0.3500359021915511, 0.34505165878263483, 0.34011459534799604, 0.33528349475605335, 0.33043672688661796, 0.32563586519008736, 0.3208975677195207, 0.3162132876373588, 0.3115922596239031, 0.30701648905498274, 0.3024380114230418, 0.29798223866993295, 0.2935800976047838, 0.28924337059474886, 0.28494974662957134, 0.2807226645993006, 0.27654192196548755, 0.2724196867790451, 0.2683542464310456, 0.26435066441318417, 0.26039915346431164, 0.25651630965927325, 0.25269348857162865, 0.24889952386907024, 0.2452018952886453, 0.24159190198179448, 0.2380099157110816, 0.2344898843203111, 0.23099282120100614, 0.22760221398095798, 0.2242773100963219, 0.22100696704237274, 0.21779798502716796, 0.21467674620278937, 0.2115879136842307, 0.2085647163220445, 0.20560243195076772, 0.20270352530897137, 0.1998286704899742, 0.19706102923662938, 0.19434320934789395, 0.19169848251719787, 0.18911405060402953, 0.18661614479321478, 0.18414926979654223, 0.18171274886917446, 0.17937343621934887, 0.17709372032884454, 0.17493232272328108, 0.17276416057153682, 0.17062811064488106, 0.16858830858852908, 0.1666080643697244, 0.16470548903589655, 0.16284082675192335, 0.16104314838741268, 0.1592956578237843, 0.15760677091074074, 0.1559127047239043, 0.15434704657447432, 0.15286388586402186, 0.15140059714813686, 0.14999173402852423, 0.14864442336294928, 0.14734194828452904, 0.14611890174302147, 0.14491911625899437, 0.14377284833505916, 0.14261829065195467, 0.14158420806609734, 0.14062490098787284, 0.13968217579768322, 0.1387878235608146, 0.13791615625175468, 0.13711973252984735, 0.13636934667741774, 0.135662178071905, 0.13499896683312781, 0.134350821067624, 0.13377728896311422, 0.1332801654173552, 0.13278261568132765, 0.1323266013876466, 0.13192868636632837, 0.13155098036981752, 0.13116531969432263, 0.1308725241329299, 0.1306149564810619, 0.1304050671660637, 0.13021443312053152, 0.13004148778914, 0.12992012453910742, 0.12983019761668818, 0.12976554253449032, 0.12973697974577209, 0.1297547103804918, 0.1297809461850097, 0.12983549729690494, 0.12991306342303635, 0.1300219525073658, 0.13015606407825778, 0.13031447953294817, 0.13049627508444958, 0.13072229100221372, 0.13094530788360476, 0.13114877540088737, 0.13141953249572408, 0.13170758101009045, 0.13201000803649818, 0.13233068347822735, 0.13271196732774876, 0.13305587515846354, 0.1333862830871622, 0.1337645035827297, 0.1341546412803137, 0.13454711274271253, 0.13495955690119138, 0.13538950829559973, 0.13581764709187688, 0.1362534593038031, 0.1367221811232003, 0.1371673862350815, 0.137594057763327, 0.13805435003317504, 0.13851761513398328, 0.1389808638185861, 0.13944791648617305, 0.13994260533928649, 0.14040628888715284, 0.1408703678534705, 0.14128596144362987, 0.14175394595072166, 0.14225050134116557, 0.1427033659852998, 0.143151905122762, 0.1436225053861998, 0.14405650192927125, 0.14443086664490046, 0.14486033494192097, 0.1452796104357799, 0.14566863969774, 0.14606860481229225, 0.1464776156673966, 0.14684904064047233, 0.14720825138835306, 0.14755903290440975, 0.14789156110542745, 0.14823218983327283, 0.14853403786327643, 0.1488222651629136, 0.149048235933323, 0.14931307237917188, 0.14957905236271973, 0.14980425053596436, 0.15001155032210034, 0.15017981468457167, 0.15035256765241625, 0.15051688483824685, 0.150647041014374, 0.15075691714807044, 0.15087551898110968, 0.1509399825095545, 0.15098360465010494, 0.15100810622003877, 0.15101164588119143, 0.1510078648690072, 0.15096620216037998, 0.15088771194048908, 0.15080427346924183, 0.1506973887807363, 0.1505221186567286, 0.15037306373529913, 0.15024725147143686, 0.15003833121700488, 0.14980559994425274, 0.14954328431256034, 0.14926265942619205, 0.14893743393588052, 0.14860907761246783, 0.14825425657304495, 0.1478762505421588, 0.14746813346061036, 0.14701201957810767, 0.14655419709067752, 0.14606893258252776, 0.14557056853950842, 0.14502919900655875, 0.14443887233253544, 0.14384824349623024, 0.14323034473388038, 0.14263005588272193, 0.14195272848780455, 0.14123612977909772, 0.1405125297257066, 0.13976381658486917, 0.13900638406595078, 0.1382056034832867, 0.13735150168537671, 0.13650656316743107, 0.13563606572569256, 0.13473377724486135, 0.13381388382570095, 0.13288529072946, 0.1319136390441999, 0.13091859037708178, 0.12987751090647648, 0.1288392426503718, 0.12781184035326834, 0.12672169648526801, 0.12561044481273806, 0.1244706270658387, 0.12331863522107928, 0.12217071239758698, 0.12097393429217035, 0.11975822935524226, 0.11853571064179247, 0.11728110099429695, 0.11602075038498029, 0.11472935815433237, 0.11342128462728493, 0.11209885302219176, 0.11075762987644888, 0.10939607582043355, 0.10802371176208496, 0.10663569160819507, 0.10521606205532331, 0.10379994004867815, 0.10239021279789379, 0.10094117134829918, 0.09947914159818978, 0.09801324343854363, 0.09652539919755193, 0.09503616174943437, 0.09352511202952025, 0.09200427173145281, 0.09056436197913072, 0.08901370061122155, 0.08741493660537808, 0.08586270502319898, 0.08430409110848001, 0.08276117986299238, 0.08118804647357764, 0.07966199363143571, 0.07807451101433502, 0.07648641494798587, 0.07495535100653906, 0.07335870904983494, 0.07173872285235833, 0.0701506893334024, 0.06856359309335171, 0.06702769711235904, 0.0654368072016872, 0.06387985130834228, 0.06229432871241102, 0.06071507997418292, 0.05913442743070474, 0.05756862084961579, 0.05603600479639656, 0.05447900819609215, 0.052930164717064264, 0.051423410308041796, 0.049887270564550404, 0.048389196638824204, 0.04687145669217568, 0.045366442189970484, 0.04391884760611402, 0.04243394367223954, 0.04102787282885604, 0.0395663545955277, 0.03812410402871498, 0.03669097513195305, 0.03528759282474931, 0.03390120859292577, 0.03253425298419397, 0.03118564496358357, 0.02987418060523633, 0.028560874587302894, 0.027287616338179336, 0.026013063768223748, 0.02476076215577205, 0.023619143656874078, 0.022401074231318943, 0.02121990569211851, 0.020056849791413468, 0.018922057927915997, 0.0177980125176834, 0.01672174859314601, 0.01570759971460273, 0.014681824458140197, 0.013685984196628248, 0.012725660690033455, 0.011789494546499283, 0.010942971107864382, 0.010061397741671429, 0.009214616195735846, 0.008403624504492906, 0.007626113369552884, 0.006858425111121002, 0.00615394380781292, 0.005483281909265028, 0.00489806617330016, 0.004290011804908655, 0.0037364488876378416, 0.0032027724910589942, 0.0027084604140778764, 0.0022819027110576704, 0.0018630760795343418, 0.0015030635513847285, 0.001164855200671312, 0.0008691315892354115, 0.0006409301632199499, 0.0004270898004426367, 0.00024101618081857223, 0.00011740244214462255, 3.698594773702186e-05, 0.0, 6.711589048303828e-06, 8.571419780514044e-05, 0.00017715044303828571, 0.00034529638012725263, 0.0005254707821528827, 0.000753874109611536, 0.0009836542236416194, 0.00131433839755363, 0.0017036986106119343, 0.0021244370502891486, 0.0025924637280025876, 0.00313424841004598, 0.003694593143641884, 0.004343917627784838, 0.0049990356705443256, 0.005706437308746729, 0.006460537088201413, 0.007272816517734582, 0.008134618478239658, 0.009050610297519081, 0.010018284596269723, 0.011023600078831153, 0.012096769514266395, 0.013277796614215487, 0.014446594494937856, 0.015670349668788185, 0.01691729311475055, 0.01825438590174761, 0.019627860070449976, 0.021072605476622545, 0.02256948780460892, 0.024144929372388158, 0.02574366385878066, 0.027393576126503037, 0.029101639045708987, 0.030864027247026565, 0.03266230415844594, 0.03453588026634507, 0.03652279992759261, 0.03849597762478214, 0.0405263890896372, 0.04258759430172335, 0.04473485958785702, 0.04693704781353205, 0.049194150984402614, 0.05150615954507507, 0.05385564656428571, 0.056279626376340576, 0.05877707505163179, 0.061306445368410636, 0.06389099361523147, 0.06654260019947875, 0.06923571189767412, 0.07196697437532756, 0.07477321988590822, 0.07763366294484887, 0.08052213479455507, 0.08349412037582991, 0.08656110160642229, 0.08963293651147691, 0.09275990318747991, 0.09594170460926044, 0.09917805175964214, 0.10248172277019509, 0.10582466647913101, 0.10922205336900694, 0.11266697519551482, 0.11617295445577976, 0.1197003519807388, 0.1233159949178595, 0.1269822664824548, 0.13071980862890115, 0.1344845762791935, 0.1382845962596814, 0.14215428752808112, 0.1460740393126485, 0.15006326287803487, 0.1540800949110472, 0.1581072063447288, 0.1622298264545382, 0.16639992732340178, 0.1706239566028697, 0.1748879026036523, 0.17916231780670328, 0.1835256395503032, 0.1879338259033693, 0.19241299033223022, 0.1969075178352777, 0.20143946763647697, 0.20602697064478165, 0.2106593254056733, 0.2153231177364226, 0.22004574139485683, 0.22477434185068448, 0.2295872887810369, 0.23444046603705523, 0.23938602905177717, 0.24431273215275193, 0.24927452523400595, 0.25428692349245, 0.2593402348901321, 0.2644229572514952, 0.26955761156484237, 0.27468607382130816, 0.27990268972348686, 0.28515412640798427, 0.2904532271800935, 0.29577194323752687, 0.301125391319847, 0.30651308992996346, 0.3119345269994353, 0.31735542199090705, 0.32284695673202046, 0.3283599350504904, 0.33391253357437733, 0.33949406356072676, 0.34510524330123526, 0.3507433358922916, 0.35637759472293645, 0.36207461647686773, 0.3677965155632815, 0.3735364214089284, 0.37930781797806046, 0.38508837432642173, 0.39090772050570344, 0.39674861421497726, 0.40264326425498287, 0.4085217380072948, 0.4144035952069296, 0.420327322694752, 0.4262701730756619, 0.432203122748854, 0.43818559709196886, 0.4441561493607878, 0.4501720759174509, 0.4562005887925013, 0.4622771723681364, 0.4683249533491474, 0.47433578456422815, 0.4804152341353498, 0.48650318896837236, 0.49261437349345116, 0.49871581444719953, 0.5047922557074676, 0.510912337456794, 0.5170366272596497, 0.5231830474968079, 0.5293116189188531, 0.5354032693876187, 0.5415427592363349, 0.54768157230747, 0.5538441549326503, 0.5599766329635174, 0.5660404367498727, 0.5721781233387392, 0.5783089401791575, 0.5844302880089551, 0.5905462949190551, 0.5966374896050035, 0.602737972094419, 0.6088277611438828, 0.6149400020270653, 0.6210022899622897, 0.6270102760406877, 0.6330555041104402, 0.639085446921161, 0.6450721931494756, 0.6510728524828419, 0.6570555405829551, 0.6630173276202007, 0.6689588239157807, 0.6748803779022793, 0.6807788881526713, 0.6866493713652404, 0.69250252631222, 0.6983310136229565, 0.7041132670766957, 0.7098923461479945, 0.7156287076426358, 0.7213516455762765, 0.7270435957738907, 0.7327179560369755, 0.7383438443166387, 0.7439088622728097, 0.7494722063722099, 0.7549994190298653, 0.760477750756774, 0.7659318457852285, 0.7713630250771617, 0.7767357934647169, 0.7820686429046817, 0.787362773422668, 0.792612569149054, 0.7977488629615858, 0.8029210742856083, 0.8080445211048037, 0.8131742602016205, 0.8181917344964806, 0.8231304400037285, 0.8280564126016067, 0.8329312520507977, 0.8377258483079587, 0.842499543179359, 0.8472365234024273, 0.851896804916858, 0.8564972361104204, 0.8610462127687453, 0.8655377135976174, 0.8699142953274317, 0.8742954517924652, 0.8786231852540938, 0.882876251624543, 0.8870657612008007, 0.8912074358475642, 0.8952659197756473, 0.8992620272133479, 0.9031903040913056, 0.9070524953221462, 0.9108183655063338, 0.9145495584460116, 0.9181995969826517, 0.9217910263240616, 0.925310354507869, 0.9287330854026945, 0.9321095603199717, 0.9354533143858341, 0.9386736648641072, 0.9418203525846284, 0.9448675163946978, 0.9478675774637048, 0.9507574873026533, 0.9536061052559429, 0.9563742384300642, 0.9590757153356346, 0.9616800942641641, 0.9642059023997712, 0.966647992436715, 0.9690084161433384, 0.9712790136002398, 0.9734754483305693, 0.9755772947955069, 0.9776072343745564, 0.9795519348792219, 0.9814349716764167, 0.9832050532062567, 0.9848705286601868, 0.9864724905170836, 0.9879872310379259, 0.9894035109729965, 0.9907441269140684, 0.9919599519060894, 0.9931271216562454, 0.9942029224753504, 0.9952004681386218, 0.996092008210042, 0.996899516306053, 0.9976089790497468, 0.9982279900753934, 0.9987367772725231, 0.9991768292964532, 0.999545498475312, 0.9997988217803008, 0.9999612603212966, 1.0, 0.9999843333151072, 0.9998733521598442, 0.9996718522968847, 0.9993774169218981, 0.9990098063196163, 0.9985275249636505, 0.9979528148647634, 0.9972879967957909, 0.9965318134271064, 0.9956614706040607, 0.994725656764256, 0.9936887443951851, 0.9925695653094427, 0.9913581402907464, 0.9900570374110355, 0.9886620162645304, 0.9872108686167961, 0.985629906668376, 0.9839606990225187, 0.982202267962403, 0.9803570844527532, 0.9783924981190152, 0.9763758787720489, 0.974270191216167, 0.9720575149753864, 0.9697777827502716, 0.9674216804567044, 0.9649645007395229, 0.9624211445086372, 0.9598042253254242, 0.9570889349526056, 0.9542868275761301, 0.9514054235731807, 0.9484414638641017, 0.9453912482701383, 0.9422647094609646, 0.9390661028645362, 0.9357776663711405, 0.9324104675379932, 0.9289467219957486, 0.9254265203125983, 0.9218265763737767, 0.9181524647934369, 0.9144025636726887, 0.9105669665246691, 0.9066698018709306, 0.9027057212198337, 0.8986619265370127, 0.8945472280037358, 0.8903539543378594, 0.8861016660086861, 0.8817419384864896, 0.8773592265767658, 0.8729083323654099, 0.8684364255358141, 0.863847722902715, 0.8591715549109347, 0.8544644697081567, 0.8496966038151738, 0.8448256822249158, 0.8399455405811673, 0.8350070406866512, 0.8300094761323534, 0.8249557005088702, 0.8198940370092633, 0.8147264571458778, 0.8094934467812928, 0.8042307912016767, 0.7989202815562191, 0.793542494533902, 0.7881426704983928, 0.7826823931262528, 0.7771955172036189, 0.7716654657897049, 0.7660818231249944, 0.7604715829043224, 0.7548340758041685, 0.749145439844546, 0.7434214045642089, 0.7376318593239934, 0.7318453684921388, 0.726035842013355, 0.7201841396988572, 0.7143035004526999, 0.7083987350798862, 0.7024644286515931, 0.6965353429438528, 0.6905504629585787, 0.6845460074489147, 0.6784916370182288, 0.6724557183939018, 0.6663869581398734, 0.6603193021870823, 0.6542362616794267, 0.6481764835272569, 0.6420628923752525, 0.6359266922219251, 0.6297992436843002, 0.6236651050874129, 0.6175050168187013, 0.6113643728311653, 0.6051918387076609, 0.5990491736784557, 0.5929044748227758, 0.5868128425592298, 0.5806625910237424, 0.574492344174053, 0.5683588572872642, 0.562232465361322, 0.5560939382720201, 0.5499886855861105, 0.5439306799545885, 0.5378428057252533, 0.5317703658786258, 0.5256601528266789, 0.5196291081220148, 0.5136053950368006, 0.5076091958385406, 0.5016318282748169, 0.4956977848933905, 0.489760044918382, 0.48384281619555064, 0.4779566586260757, 0.47209770559437986, 0.4662509280393998, 0.46045231580007134, 0.4547219072795347, 0.4489800576602642, 0.443273138304296, 0.43755968256097977, 0.4319309387274724, 0.42635620069158797, 0.42079745293596954, 0.4152778623807721, 0.4097996137027779, 0.40436146823372926, 0.39895814964471066, 0.39360688533669635, 0.3882996728785703, 0.3830201470658358, 0.37780636101444576, 0.37266048504923777, 0.3675373406044273, 0.3624180238278118, 0.35740059190878787, 0.3524318202956154, 0.3475586054724352, 0.3426848611854111, 0.337871147888134, 0.33310653015843633, 0.328398073292165, 0.323693023007681, 0.3191053594153928, 0.31461394080096566, 0.31013180673155255, 0.3057087924653296, 0.30128883490563496, 0.29699280395890487, 0.2927760427407074, 0.28859320589159676, 0.28447090531619795, 0.28039888317853545, 0.2764008673751076, 0.2724427615734453, 0.26857144546608164, 0.26476171959635575, 0.2610131670537937, 0.25732870818226194, 0.2537173960389732, 0.2501588964540162, 0.2466652338763257, 0.24326392843316508, 0.23989739047976968, 0.2365588488725813, 0.23333160255340865, 0.23016928828772273, 0.2270961301207577, 0.224061441178871, 0.22112310942135135, 0.21821859428439808, 0.21538257946687864, 0.21255161565205238, 0.20985962928901628, 0.20724581552401067, 0.2046802974360512, 0.20217995772323086, 0.199774163425726, 0.19740036613388348, 0.19503988964184213, 0.19280577282532468, 0.19063457450216337, 0.1885687916297218, 0.1865181497573541, 0.1844914177453426, 0.1825760804648571, 0.18072275681462516, 0.1789704819412736, 0.17723573814505292, 0.17550257597029179, 0.17390231183331745, 0.17236097160064662, 0.17089911984655898, 0.1694725996816101, 0.16809364815126984, 0.16678725411971929, 0.16553875626991996, 0.1643259480236093, 0.1631946376828033, 0.16216754223634383, 0.1611401319326181, 0.16016989038589022, 0.15923308009453085, 0.1583774246076363, 0.15757828097331464, 0.15682801007452257, 0.15612975312148, 0.15551756996686458, 0.15491661166206228, 0.15435528860684292, 0.1538579587642892, 0.1534093824614588, 0.15298029236810978, 0.15262989693097007, 0.15232811945182104, 0.15206496417253623, 0.15184481253132634, 0.15165486316520418, 0.15151972516201415, 0.15142654820295076, 0.15136991258204446, 0.15135157283358103, 0.15138263777198446, 0.1514367629338094, 0.15152066997894925, 0.15164722460734717, 0.15180767828291014, 0.15203805875934126, 0.1522586867668653, 0.152480761631865, 0.1527700970742021, 0.15308809138024287, 0.15343266036431968, 0.1538051149140953, 0.15417050518125577, 0.15459725583369038, 0.15504573886617723, 0.15554893656552227, 0.15603430583664804, 0.15649955799703688, 0.15703151056959636, 0.15758012984598369, 0.158179460388358, 0.15875462174367166, 0.1593372448906861, 0.15994468958823693, 0.16056551490248974, 0.16118342036207892, 0.16182974760551325, 0.16248324315035234, 0.1631476049043762, 0.16381931694527863, 0.1645050652405092, 0.1651877070697423, 0.16586659635700318, 0.1665592337749296, 0.1672543121385688, 0.1679389238714298, 0.16863758993914005, 0.16938636864002013, 0.17007564022617666, 0.17076504724047836, 0.1714043416521486, 0.17209644890023645, 0.17279315264806414, 0.1734705620330029, 0.17414079072321398, 0.1748291074565488, 0.17547911813425043, 0.17607842385580175, 0.17671624303672764, 0.17734136863025737, 0.17799017033050288, 0.178583310479199, 0.17917042576672917, 0.17973667139108138, 0.18028884555639116, 0.18080314723392102, 0.18132727250020456, 0.1818333210521234, 0.18232063960301192, 0.18278858467879994, 0.18325938003918887, 0.1836838015089992, 0.184068678076254, 0.1844548898141852, 0.18481852563968446, 0.18512202870905442, 0.18544355208693994, 0.185766021026941, 0.18603136357285116, 0.18627152429644336, 0.18648059172301307, 0.18666968169136514, 0.18685368447911913, 0.18698592771639957, 0.1870917796982269, 0.18716199560924396, 0.18721458722836665, 0.18723987525110133, 0.18723517604229437, 0.18720142950110497, 0.18710673775517672, 0.18701790786829028, 0.18692780044393326, 0.18677159891105694, 0.18658532039912631, 0.1863621614624469, 0.18611576242167627, 0.18586430244010774, 0.1855520936499076, 0.1852099038539174, 0.18483197749153885, 0.1844296185001785, 0.1839929008567217, 0.18352862697078098, 0.18303282782418484, 0.18244450285699274, 0.18189323708499172, 0.1813319890500109, 0.18070804495246623, 0.18005148973939716, 0.17937127973041345, 0.17864914704862853, 0.17786516104363542, 0.17708430559409777, 0.1762707339225585, 0.17544231041488786, 0.17456243706264857, 0.17367062965282007, 0.1727278117140714, 0.1717561425732537, 0.1707220220564719, 0.1696973675181399, 0.1686838368416031, 0.16759397921354993, 0.1664771949159733, 0.16528901230715295, 0.16412451420811222, 0.1629736046165868, 0.1617466411212657, 0.16045415769233706, 0.15918204501258407, 0.15788297176905555, 0.15660547570273295, 0.15524836054033836, 0.1538656249741957, 0.1524644534129274, 0.15104126985502878, 0.14955289057341362, 0.14809227982277332, 0.14660728432967285, 0.14510101754329252, 0.1435729755877762, 0.14208271089973779, 0.14050601052934325, 0.13888918888194018, 0.1372834380006333, 0.1356607677325417, 0.1340500424659399, 0.13239167234366503, 0.13072843266760895, 0.12904220074636785, 0.12734370998473465, 0.12562465964248157, 0.12390401659591667, 0.12221007047662097, 0.12046241555140381, 0.11870672443621727, 0.11695530970254878, 0.11518311080989872, 0.11341235517142824, 0.11162724291663918, 0.10983723882541845, 0.10804278492635247, 0.10624437379502959, 0.10448281407752702, 0.10267304961404781, 0.10086331630031235, 0.09906699552094966, 0.09725670208248963, 0.09547336249200174, 0.09366414103702955, 0.09185909716349958, 0.09002915160430898, 0.08823717288570687, 0.08652068604191147, 0.0847276727126856, 0.08294383503891015, 0.08118024898569459, 0.07941404673545281, 0.07766498098227083, 0.07591949469814979, 0.0741857084986025, 0.07246838142391364, 0.07075871981244079, 0.0691385756003823, 0.06744646319214359, 0.0657730464776613, 0.06412702309338322, 0.06248997456879276, 0.060900687385032216, 0.05929919035317552, 0.05771923323820786, 0.05616420970269566, 0.054627394580401965, 0.0531673660912961, 0.051668741582421636, 0.050196277321518275, 0.04873475284567162, 0.04731668719914665, 0.04595365231894681, 0.04458356161544083, 0.04324162037620268, 0.04196400598494812, 0.040674667297269554, 0.039430608753203054, 0.038201882260940984, 0.03700543531727859, 0.035878440571059524, 0.03474244459881114, 0.033658921038293176, 0.032590890861725404, 0.03155908006394208, 0.03058967246268397, 0.029627261168671357, 0.028718180478368337, 0.02783008175862671, 0.026981112395714116, 0.02620181748278129, 0.02542753292632517, 0.024707558629754035, 0.0240141279124039, 0.023362766024896533, 0.022780721462093853, 0.02221023898363411, 0.021728283828984847, 0.021239957702194064, 0.02079809336491013, 0.02040136379941292, 0.020051939104201267, 0.019762619157604227, 0.01950333378013531, 0.01929089246104505, 0.01913401662023439, 0.019014261764781423, 0.018967077104331716, 0.018939320200535063, 0.018960725842551027, 0.019070441766061284, 0.01918516727712683, 0.019388308139332257, 0.019600961382560046, 0.0198667469156205, 0.020158076565529464, 0.020532522066931905, 0.02095878274271985, 0.02143461833370772, 0.02196142039298675, 0.022600259802985082, 0.02322166914625687, 0.023864141730588442, 0.024599102184080315, 0.025386395813135332, 0.026255485204761075, 0.02714397334857773, 0.028094336066074265, 0.029090250186458656, 0.030140638052436663, 0.03122470024462377, 0.03238632239078969