0.032166640123773516, 0.03205370994139154, 0.03197280041883829, 0.031916106545103066, 0.03188176325371613, 0.03181265509597649, 0.03182032165379531, 0.03186394417828869, 0.03188811440960886, 0.031921314711743594, 0.031958920608969626, 0.03200674182537801, 0.03201028513514238, 0.03207459372584871, 0.032140330130740434, 0.03225723004984242, 0.03231963925783539, 0.032366132000218414, 0.032439848344704994, 0.0325165870272664, 0.03254758117512875, 0.03263703040432866, 0.03276156669881446, 0.03284904671902798, 0.032940597485235756, 0.03304715707952688, 0.03314654191283083, 0.033205176163851234, 0.0333221411972943, 0.03344277534702197, 0.03359220151316283, 0.033719042383304774, 0.033842206774986595, 0.033984581402279876, 0.034133975247900655, 0.03431688906131812, 0.03447824592603946, 0.03459709433805814, 0.0347845167803642, 0.03497896700885822, 0.03522014890809645, 0.035425385509482925, 0.035591707549874875, 0.03582498555381501, 0.036055952245652445, 0.03630767893461082, 0.036568123085698574, 0.03688672785746035, 0.037159970686409374, 0.03742819763605361, 0.03772955223236078, 0.0380428485543765, 0.03833484367722892, 0.03867678263558575, 0.03906680967486187, 0.03942562208184847, 0.03979796364137393, 0.04016841266481572, 0.040569980790392014, 0.04098443769333518, 0.041412002666936405, 0.04185288841023688, 0.04232523634385041, 0.042791114166028175, 0.04326785418544455, 0.043764177439009164, 0.044275334281999375, 0.04481041032671984, 0.045350466824964526, 0.045860596395359665, 0.0464379473121397, 0.047028628824024865, 0.04767550676552221, 0.04828888812036824, 0.04888915729371104, 0.04954050407659502, 0.05020733326367548, 0.05090709741807548, 0.05160371487418304, 0.052290837211962024, 0.05302582806315502, 0.053777043052739545, 0.05454405759184721, 0.05532897488844063, 0.0560969440889512, 0.05692110957510556, 0.05776130680045264, 0.058671921540271905, 0.05953908309542214, 0.060395116351326245, 0.06130764673526951, 0.06223911801100741, 0.06316620174121929, 0.0641394624353516, 0.06512796264189323, 0.06613909116137086, 0.06716941034043766, 0.06826498169593796, 0.06932911074787505, 0.07036232708004889, 0.07147899042034493, 0.07261544999416925, 0.07377620563086762, 0.07495297651340783, 0.07615011958483718, 0.07736965640949502, 0.07861088668895388, 0.07990748090792064, 0.08118859510558743, 0.0824466802716974, 0.08378219669398458, 0.08513917016326289, 0.08652934600491326, 0.08792875475174204, 0.08937153939492298, 0.09081451115024683, 0.09228190237344268, 0.09376551600798906, 0.0952826486773957, 0.09682933525720865, 0.09839348108727822, 0.09998186965993916, 0.10160019279408379, 0.10323630341808744, 0.10487411204354855, 0.10656209648615735, 0.10827321117206455, 0.10997824300951263, 0.11173970874028484, 0.11353033472395463, 0.11533483143734365, 0.11716213972495715, 0.11900508594529009, 0.1208794018758938, 0.12276917595996514, 0.12469014161218497, 0.12663372242035034, 0.12861635029350665, 0.13060344951131922, 0.13259316589402687, 0.13463046836624132, 0.13669018119292178, 0.13876827636305977, 0.14087343753622064, 0.1430448522164395, 0.14518890884256078, 0.14735762908511107, 0.1495025027946721, 0.1517254080387488, 0.15398539507853226, 0.15624781957338624, 0.15853195098101072, 0.16080500811371326, 0.16313614093507842, 0.16548740418619742, 0.16785711380653362, 0.17024623886076723, 0.17270527864900337, 0.17512668190780314, 0.17756684458242894, 0.18003215240603324, 0.18251822395725917, 0.18495528933174277, 0.18749022514477223, 0.19007242997667673, 0.1926344135440849, 0.19521382501475149, 0.19778758139245192, 0.20040394194539154, 0.2030274680524728, 0.2056753660639049, 0.20833782950451207, 0.21100657028905415, 0.2136987459367518, 0.21639390504900857, 0.21911439974439387, 0.2218474761351394, 0.22460437420397064, 0.2273606099826561, 0.2301579556983763, 0.23293535852784664, 0.2357261549852724, 0.23850279206901503, 0.24132183217780803, 0.24412230056042436, 0.24696446077737, 0.2498141465070761, 0.2526898920068714, 0.25555156832095643, 0.25838925444930155, 0.2612700654620693, 0.26415590115134585, 0.2670848126146908, 0.26997502157641573, 0.2728315451554859, 0.2757386302909997, 0.27864835471112176, 0.2815693249359895, 0.2844820769872733, 0.28736825492674084, 0.29028799901548596, 0.29320702159709305, 0.2961152062357256, 0.29903297700099213, 0.3019907395591184, 0.30489798334240953, 0.30780442359570215, 0.3106717715793417, 0.3135789842186443, 0.3165094763406644, 0.319402114650762, 0.32229014625134583, 0.32513776915127457, 0.32801877629357545, 0.3309040178987538, 0.33376530406421623, 0.3366175726980914, 0.33941863048412774, 0.34225625144295796, 0.34510100909930247, 0.34790925030413367, 0.3507047081196068, 0.3535047412568438, 0.3562706193964183, 0.3589935921474281, 0.3617352921863534, 0.36446024927144155, 0.3671410368482395, 0.3698343082306942, 0.37254517809060717, 0.3751935340101871, 0.37782330238594247, 0.3803905209412266, 0.38298630738584205, 0.38556370996021, 0.3881119284846396, 0.390636308574365, 0.3931200344919967, 0.3955972374446423, 0.3980562296047829, 0.4004792289502186, 0.4028753952639712, 0.4052425239905514, 0.4075834912887613, 0.4098851671970536, 0.41216948344427995, 0.4144232942138092, 0.4166362799916261, 0.41882868738012263, 0.4209981614851324, 0.4231233988166207, 0.4251934359618113, 0.42725445939770795, 0.4292798212260029, 0.43131309652831107, 0.4332602128341148, 0.4351808925366945, 0.4370569466820607, 0.4388971923208595, 0.44064044739343433, 0.4424141640496407, 0.4441592612561247, 0.4458477332541495, 0.4474947034313551, 0.4491356087299907, 0.4506937381773281, 0.452185790891129, 0.4536647643463096, 0.45510006866379876, 0.45650998179441776, 0.45785416814894286, 0.4591396655336191, 0.4603970706425181, 0.46160845229324066, 0.46273343012434476, 0.4638565151289725, 0.46496429113405546, 0.465983867214013, 0.4669556155041286, 0.46788156545307685, 0.4687561137888777, 0.4695638289419922, 0.4703424509335745, 0.4710703924899205, 0.47175721702976997, 0.47238190299579186, 0.4729028112663235, 0.4734323177860196, 0.4739074777489035, 0.47434556419511376, 0.474710289715463, 0.4750105665024349, 0.47527057676043255, 0.47547673123301126, 0.4756665221241918, 0.4757601915709486, 0.475745805770212, 0.47574263254389854, 0.4756838490443545, 0.4756120214922525, 0.4754371622129142, 0.4751997467858888, 0.47492034821563406, 0.47458719905860036, 0.4742197710167266, 0.473776386673807, 0.4732295836963003, 0.4726866388352395, 0.47208762541394367, 0.47143853323000934, 0.47072749554945736, 0.4699672211475252, 0.46914577485664277, 0.4682701023358752, 0.46733301948445355, 0.46635028801754663, 0.46531584760086403, 0.4642247373354046, 0.4630800924872867, 0.4618813268098214, 0.4606304117722737, 0.45933885922708045, 0.45798093326668476, 0.45657137045564367, 0.45511851256874203, 0.4536052397615758, 0.45204632162767117, 0.4504315539094359, 0.44876694792862565, 0.44704049352470554, 0.4452784429624174, 0.4434478691583698, 0.44158905132356363, 0.4396802436746979, 0.4377244845499219, 0.435717163357201, 0.43365849960692004, 0.43155599559123053, 0.4294063675753154, 0.4272118490765935, 0.42496957864862306, 0.4226698652978044, 0.42033931044441786, 0.4179640606618087, 0.41555705589001657, 0.4130930024673259, 0.4105878807984513, 0.4080405631851344, 0.4054526317191773, 0.4028132977142977, 0.40014746622530745, 0.39743576963556687, 0.3946928297352, 0.3919116899356389, 0.38912658264993716, 0.38626724339866536, 0.3833756308307932, 0.38044881274021103, 0.37748928530241316, 0.374482146298884, 0.37146094788048556, 0.36836807527338605, 0.3652892626822137, 0.362178078621146, 0.35909190484878095, 0.3559122369578805, 0.35270829621704136, 0.3494772139427487, 0.3462215509308762, 0.34295255614352244, 0.3396483775066109, 0.3362554129661159, 0.33291645573859985, 0.3295531432141596, 0.3261659138189347, 0.32275771580143814, 0.3193458838275344, 0.31589517065381995, 0.31242694611007465, 0.3089764100304995, 0.305471714120296, 0.3019551123192294, 0.2984255421372601, 0.29488466874882485, 0.29127778166377677, 0.2877235017981483, 0.2842035126202302, 0.28062024456463147, 0.2770298450827742, 0.273394792860361, 0.2697973673123667, 0.26618819106602676, 0.2625788066237724, 0.258964544210055, 0.25537506341749494, 0.25175079409070417, 0.24815263654328984, 0.24452594247437354, 0.2409023885555356, 0.2372597745657041, 0.23364729252686617, 0.23001254774519875, 0.22641190085157037, 0.22281539269375236, 0.21921270682685673, 0.21562917836547996, 0.21204990560267753, 0.20848119504743776, 0.20492122572996324, 0.20140610867429587, 0.1978623317882445, 0.1942940289844627, 0.19078335730488932, 0.18728570298850658, 0.18385750789542318, 0.18038187538058845, 0.1769138918100453, 0.1734782984853041, 0.17006210167650684, 0.16663983487887546, 0.1632675977905918, 0.15991518040222974, 0.1565834367059334, 0.1532731991090136, 0.14998038813856635, 0.14671619596152724, 0.14352452177055322, 0.14030215238061802, 0.13710769794458297, 0.13393254647640407, 0.13079614852002647, 0.12767770915406626, 0.12460026158172686, 0.12155177994723637, 0.11859399976447312, 0.11559750313229777, 0.1126343568857766, 0.10970637632874657, 0.10681273095554485, 0.10391366177463865, 0.10109432997862688, 0.0983566657083703, 0.09559726654027269, 0.09287455922494824, 0.09015203659244912, 0.08750791018606804, 0.08493164007049081, 0.0823544378153221, 0.0798153930225942, 0.07730660159809806, 0.07484565819712065, 0.07248677672355057, 0.0700950908958425, 0.06774042395229704, 0.06543473034588772, 0.06317113847629337, 0.0609757050165765, 0.05879296691068483, 0.05667908018149809, 0.05458016128172469, 0.05252599385870798, 0.0505228357197639, 0.048556614602473055, 0.04669276662466331, 0.0448080552645783, 0.04297080559572481, 0.041141341417725553, 0.039402408552055575, 0.0377709373719563, 0.03611171983222615, 0.034499966988467023, 0.032949874480017176, 0.03142983664193413, 0.029954420102912337, 0.02852842240290301, 0.02714861029815344, 0.025866886753120356, 0.024572085751426026, 0.023385221427649944, 0.022179173140955313, 0.02102380947720322, 0.019905987130863542, 0.018850908533176648, 0.017890697651012567, 0.016924306703529, 0.016007205300232984, 0.015155746538867997, 0.014332858066069447, 0.013613629612894657, 0.012879535826461216, 0.012195556815237745, 0.01159416671285308, 0.011003461230497358, 0.010472014105220707, 0.0099781111458644, 0.009532517381349784, 0.00914586005380492, 0.008793179408396265, 0.00853138125586871, 0.008266228957181222, 0.008049219677601067, 0.007878687703738192, 0.007755613026343072, 0.007743577667550382, 0.00770331857902032, 0.007711430712739466, 0.007744093674640613, 0.007848959395924632, 0.008070800439078903, 0.008254823366905355, 0.008486358428075234, 0.008745651456796816, 0.00907167599291192, 0.009488741487327375, 0.009895744792825867, 0.010348089212151294, 0.010823738386409789, 0.011367007293411387, 0.012002695341274306, 0.012622888767406837, 0.013286951771822441, 0.014034864512065273, 0.014779252739252628, 0.01557338744756869, 0.016404230268125975, 0.017277716569613192, 0.018188992800817608, 0.019146025289877227, 0.02015966429467765, 0.02119469954590907, 0.022269916965928473, 0.023365168044871883, 0.02452152264301578, 0.025738997322183946, 0.026967030972945158, 0.028233302321389833, 0.029567517217641982, 0.030905115284871155, 0.03230500998484748, 0.03371631895195232, 0.03516643679781136, 0.03668318894859858, 0.03820526303123129, 0.03971934829388737, 0.041323486139120395, 0.042962037024590394, 0.04462904167564963, 0.04633639257830031, 0.04813417252630642, 0.04990086294489974, 0.05170376684955302, 0.05350312005269094, 0.055381548719600215, 0.05733301200347104, 0.059270670298173386, 0.06124255763883413, 0.06321720465883264, 0.06526003089716657, 0.06733317522474722, 0.06943823942686334, 0.0715741267415444, 0.0737985878517654, 0.07598841979090615, 0.0782070449938008, 0.08046426701314097, 0.08275376149728066, 0.08507670917440444, 0.08742923519696458, 0.08980800619907409, 0.09222307352255077, 0.09466833635696507, 0.0970987114174315, 0.09960931085184542, 0.10215179815087283, 0.104715942913143, 0.10730767029537905, 0.1099311318182389, 0.11257771721326049, 0.11523190707839258, 0.11793702975197698, 0.1206689684594139, 0.12343356855783288, 0.12621880788703962, 0.12907146622613275, 0.13190662601257427, 0.13477153125748692, 0.13761857715476153, 0.14054800906255238, 0.1435403321716438, 0.14651768178239313, 0.14952355452590047, 0.1525406326473153, 0.1556051377795703, 0.15865345768104672, 0.1617774541398336, 0.16492602211651186, 0.16811253673330573, 0.17130955054179625, 0.1745759398455547, 0.1778199397820026, 0.18109273109437493, 0.18435654048225492, 0.1876908598900826, 0.1910242245067575, 0.19441394348511212, 0.19782829514101322, 0.20128958231260846, 0.20475125622090204, 0.2082322273323933, 0.21174810747056008, 0.21529022554225277, 0.21886271625442277, 0.2224569595867621, 0.22606313912853526, 0.22971245172949004, 0.2333875363963337, 0.23706567349225866, 0.2407954869513088, 0.24454924130389516, 0.24832891079493427, 0.252133736476191, 0.2559647128615912, 0.25982025592066266, 0.2636688446909465, 0.26757990789141733, 0.2715149554126188, 0.27547022404691196, 0.2794546436349883, 0.28346931787166285, 0.287502322026207, 0.29156057246281697, 0.2956629039402792, 0.29976950541935293, 0.30388383282801723, 0.3080456150978388, 0.3122325384797652, 0.31643482821135216, 0.32067327269595614, 0.3249599129644751, 0.3292445099761511, 0.3335550252575119, 0.3378447858598759, 0.34221239248663937, 0.34663774664775704, 0.3510464821588149, 0.35548017706263507, 0.3599076569685209, 0.36439459175076727, 0.3688642011792343, 0.3734014644499158, 0.377959151196981, 0.38254489235980316, 0.3871433114454153, 0.39176242992648175, 0.39640402468023506, 0.4010679444823004, 0.40575241809620266, 0.4104583324985406, 0.4151823074304518, 0.4199311249236678, 0.4246469454837757, 0.4294439930918224, 0.43425843207699255, 0.43913040065411385, 0.4439750764890257, 0.44880142674156764, 0.45369058145194135, 0.4585968716587799, 0.4635446818543112, 0.46848188298755944, 0.4733752649126295, 0.47835614974089036, 0.4833508364885044, 0.48840094390271865, 0.49341803385150973, 0.49840877750852086, 0.5034628117073777, 0.5085294894672864, 0.5135727485372309, 0.5186686084796179, 0.5238110324783698, 0.5289219524865351, 0.5340446057429615, 0.5391295713757009, 0.5442803164410968, 0.5494694119940525, 0.5546307903156759, 0.5598008149909256, 0.5649658608281523, 0.5701530525114925, 0.5752949734583058, 0.5805002751145232, 0.5857076354173255, 0.5909551587832839, 0.5961610841029426, 0.6013426405098156, 0.6065580277728785, 0.6117737108007879, 0.6169361462123338, 0.6221574044723127, 0.6273741804041462, 0.632586216330826, 0.6377931666573207, 0.643027213514555, 0.6482185223742042, 0.6533732990350785, 0.6585582645062379, 0.6637349192564884, 0.6688993361752597, 0.6740577343199202, 0.679211205731981, 0.6843468451315199, 0.6894705907814201, 0.6945179680544068, 0.6996232688395351, 0.7047372628674762, 0.7098022979455878, 0.7148496553417348, 0.7198907419977576, 0.7248986961008114, 0.7298495836465514, 0.7348221171643554, 0.7397709111044812, 0.7446927657944759, 0.749592077726272, 0.7544618458844906, 0.7593081357013318, 0.7641261851080325, 0.7688841037169969, 0.7736468155732091, 0.7784019835689694, 0.7830951188030213, 0.7877552995843567, 0.7923765785654315, 0.7969682833499275, 0.8015170212049404, 0.8060355996893811, 0.810515232088983, 0.8149418407560822, 0.8193421091163532, 0.8236473755523847, 0.827967606733456, 0.8322401102796048, 0.836496896725144, 0.8406679630319288, 0.8447821755962497, 0.848857559595461, 0.8528824536279666, 0.8568729793577172, 0.8607917193355714, 0.8646415837742576, 0.8684560617407836, 0.8722147014848387, 0.8758977218462694, 0.8795439530543983, 0.8831456682094405, 0.8866690369584088, 0.8901314610401846, 0.8935229190240902, 0.8968614273616583, 0.9001027279032928, 0.9033151891290389, 0.9064592801196457, 0.9095848336291984, 0.912583637752022, 0.915511435586699, 0.9183739695784142, 0.9211662262205023, 0.9238439021668128, 0.9264977991087746, 0.9290635544063587, 0.9315665009714503, 0.9339914934444167, 0.9363876580187936, 0.9386486336482374, 0.940843183265427, 0.9429477210577865, 0.944973768331583, 0.9468664660857542, 0.9487392122325127, 0.9505127463397568, 0.9522177833075054, 0.9538364722499622, 0.9554303778449691, 0.9568673502680477, 0.958200665498093, 0.9594709933647799, 0.9606543198862216, 0.9617418246723629, 0.9627502037918637, 0.9636406775182751, 0.964473402979744, 0.9652141483225612, 0.9659164751643607, 0.9664657306162256, 0.9668910525896568, 0.9672645650930443, 0.9675451569294323, 0.967709709505525, 0.9678064833817034, 0.9678220879377831, 0.9677270015381602, 0.9675375571660038, 0.9672813059674913, 0.9668991641943523, 0.9664009552536313, 0.9658348856101285, 0.9651736827782565, 0.9644295251194679, 0.963576385019747, 0.9625944827551719, 0.9615565468953321, 0.9604220510728133, 0.9591945296865558, 0.9578673247158269, 0.9564331601460336, 0.9549165657475455, 0.9533043200935812, 0.951637563472977, 0.9498300104803703, 0.9479432984282635, 0.9459497694845376, 0.9438649781372114, 0.9416409055214187, 0.9393799635969081, 0.9370605277707715, 0.9346087021805558, 0.9320665868908269, 0.9293889062647317, 0.9266731525529961, 0.9238853696384636, 0.9209848278687173, 0.9179955315117555, 0.9149434608876592, 0.9117756103150135, 0.908476966275293, 0.9051451731141444, 0.9017268668210349, 0.8982059616150332, 0.8946198913023412, 0.8910056925007307, 0.8872449327456777, 0.8834052918949903, 0.879484213754637, 0.8754893889427819, 0.8714088012085197, 0.8672623988920143, 0.8630405006776632, 0.8587156103024329, 0.8543494628400043, 0.8499346827575355, 0.8454188851210012, 0.8408333048311702, 0.8361774606774709, 0.8314559972159556, 0.8266363997092339, 0.8217875175143781, 0.8168730244016574, 0.8119124036394572, 0.8068690605166273, 0.8017306851404852, 0.7965732022482628, 0.7913932461646415, 0.7861145134723029, 0.7807820667600268, 0.7753516280732987, 0.7699216661711656, 0.764446953161286, 0.7589136968771002, 0.7533323579588356, 0.7477339881475799, 0.74205787904827, 0.7363200427351722, 0.7305652610268724, 0.7247709050007652, 0.7189500459767917, 0.7130800768368303, 0.7071288767937117, 0.7011985604117092, 0.6952348058897865, 0.6892567165504034, 0.6832298409562713, 0.6771893868088683, 0.6711093757716213, 0.6650069821333938, 0.6588838460417401, 0.6527416162819042, 0.6465216261026016, 0.640353813759935, 0.6341685137193732, 0.6279597354036249, 0.6217469193213504, 0.6155428612443725, 0.6093063017835312, 0.6030633683314216, 0.5968191406304396, 0.5905684838848002, 0.5843251865700696, 0.5780736519938985, 0.5718252456266433, 0.5655596060042812, 0.5593251815946455, 0.5531008477015292, 0.546881486618414, 0.5406727445037126, 0.5344739155096329, 0.5282919200743768, 0.5220937754662378, 0.5159487886567792, 0.509821046616563, 0.5037556734078152, 0.4976626661014913, 0.49156966858414264, 0.48553184903483065, 0.4795207574760693, 0.4735380318091524, 0.4675852838284585, 0.4616388293908258, 0.4557539669205108, 0.4499023502622947, 0.44412808644832363, 0.43834270615726034, 0.4325425288347183, 0.4268466679849153, 0.4211908125968954, 0.4156231138015287, 0.4100463933053383, 0.4044788583444308, 0.3990031278843542, 0.39357503866188515, 0.3881960386925088, 0.38286753109232274, 0.37761614668372323, 0.3723894679173212, 0.367218658126549, 0.3620468770690019, 0.35699822419061916, 0.35202157087079394, 0.3470837103510843, 0.3422053104829816, 0.33736880903893546, 0.33261521239583264, 0.3279324052956245, 0.32330251465050525, 0.31873727635805954, 0.3142181262654047, 0.3097876193580834, 0.30545939435528613, 0.30115819996517595, 0.29692741003908135, 0.29272850637765974, 0.28864528415074564, 0.284648344047289, 0.2807038790072323, 0.27683196895066525, 0.2730055077471704, 0.26928400248772955, 0.26566537033060744, 0.2620861904367383, 0.2585827823233123, 0.25511799509673083, 0.2517718858389532, 0.24854197528561306, 0.24534042147360666, 0.24221688558269472, 0.23915271868633106, 0.23618787203824493, 0.2333312136790042, 0.23051706681511516, 0.22778221756307598, 0.22508740340238373, 0.2225156883159964, 0.22000108541613073, 0.2175853495647954, 0.21524544449023023, 0.2130101080468428, 0.21081880834189196, 0.2086800886496314, 0.20664746890999122, 0.2046908189493252, 0.2028043599928924, 0.20100009899080773, 0.19931349838717288, 0.1976542368950549, 0.19607220708170944, 0.19456270658611488, 0.19313377062858836, 0.1917864613449657, 0.19050629564773994, 0.1893003552986531, 0.1881622356943357, 0.187103362497269, 0.18610974633341276, 0.18519456782537622, 0.1843494084197915, 0.18354098645316796, 0.18283793776989887, 0.1822401026263276, 0.18166378327081897, 0.1811547003236746, 0.1806964442923504, 0.18032101667718944, 0.17998714421078732, 0.1797407926246157, 0.17955506662832174, 0.17940479116590766, 0.17934119949424024, 0.17937449865720856, 0.17941908597206377, 0.17952146753818707, 0.1796837924294654, 0.17989799910427984, 0.18011625860999997, 0.18044485857009396, 0.18082283356778342, 0.1812934005913632, 0.18176208927920873, 0.1822906314512491, 0.18285516500289692, 0.18346689086992357, 0.18407955383907276, 0.18478707912903605, 0.1855603088918432, 0.1863444629058964, 0.18716834026925636, 0.18803958233785953, 0.18893778667967526, 0.18987547512664685, 0.19084429137215836, 0.19184667090729174, 0.1928232907482244, 0.19389578446336836, 0.19498530470481745, 0.19610995192099917, 0.1972581003822481, 0.1984654347675847, 0.19965289920056925, 0.20084973238295986, 0.20208223398100864, 0.20333354402253287, 0.2046121138298988, 0.2058957994008559, 0.20720948947936393, 0.2085205432396131, 0.20984487752995437, 0.2111605642009019, 0.21250941041067548, 0.2138446116862415, 0.21520990979302737, 0.21657891051805675, 0.2179439314100362, 0.21931765801870864, 0.2207172647199648, 0.22208612021347823, 0.22345389332080265, 0.22481999585294288, 0.2261813056817893, 0.22751132726115542, 0.22886416555796113, 0.23020762395926564, 0.23155199279347558, 0.23287187266181678, 0.23416087277845254, 0.23545762908033915, 0.23674771350735596, 0.23801099711445928, 0.23925701630947266, 0.24047973666815484, 0.24168842337116658, 0.24287861196342436, 0.2440440263318177, 0.2451864900050826, 0.24632693388127463, 0.24741748935325644, 0.24851247972241639, 0.24954828887562158, 0.25055844731577637, 0.2515089760185416, 0.2524679065691597, 0.25337505549483635, 0.2542728353381471, 0.25513624534925217, 0.2559564196027379, 0.25674998102142066, 0.2575122892911841, 0.25823057619971035, 0.258910956246276, 0.2595869910047528, 0.2601852114981063, 0.26070958607750727, 0.2612354734962394, 0.26171959522344307, 0.26218588048633723, 0.262581810263689, 0.2629382462750243, 0.26324930149542164, 0.2635172208208568, 0.26372833313741484, 0.2639097852682609, 0.2640879935634227, 0.2641724131835779, 0.26421279023118244, 0.2641880470679175, 0.2641408887457579, 0.2640376807888086, 0.2638971472399511, 0.26370837664244723, 0.2634825815207621, 0.2631953192467842, 0.26287542536933894, 0.26248974961098887, 0.2620564301132011, 0.26153444132048964, 0.2610102388919566, 0.2604436062832576, 0.2598174139962903, 0.2591415097025019, 0.25842908332235176, 0.2576525617786011, 0.25684303532769115, 0.25596765838418456, 0.2550448672315109, 0.2540869154077816, 0.25306787215383275, 0.25196562793329974, 0.2508582436440525, 0.24970244681860065, 0.24853863238023344, 0.24728232235523695, 0.2459241608442526, 0.24458564944712277, 0.24319952120085622, 0.24178361567903628, 0.2403022406637968, 0.23876492962648402, 0.2371965097507686, 0.23558405824186132, 0.2339877631701406, 0.2322817674618175, 0.23052327437329023, 0.22874197014608857, 0.22692175203830642, 0.2250223202084318, 0.22313085001828414, 0.22124044568182477, 0.219265347243557, 0.21725466264227858, 0.21519918770501267, 0.2131203416239355, 0.21101862428719406, 0.2088705365622117, 0.20669036642185978, 0.2044397070554266, 0.2022025172301438, 0.19994390579583293, 0.1976424637633585, 0.1953118354898242, 0.19294325457644707, 0.19055853901536912, 0.18815447575283406, 0.18571656287098232, 0.1832545681018776, 0.18082087483153073, 0.17830730622548727, 0.17579193078788882, 0.17324070326679566, 0.17067358209572683, 0.16805774217130384, 0.16546491341893083, 0.16286362333496215, 0.16023930499277778, 0.15760168049613432, 0.15498027912975607, 0.15231544539097774, 0.14966640456069183, 0.14698196728199275, 0.14429190741594283, 0.14158224467893726, 0.13888493000803603, 0.13617607377838192, 0.13347223816499446, 0.13076573280846493, 0.1280690359122638, 0.12535895562100285, 0.12267371298496942, 0.11996403792957519, 0.11725890218638474, 0.11456648143976639, 0.11187204819727635, 0.10920474605402822, 0.10652384230979156, 0.10385337167181179, 0.1012364897475331, 0.09858386432699703, 0.09599456065785218, 0.09336683675100879, 0.09075816714280942, 0.08813947646860276, 0.08557353918228726, 0.083053010883929, 0.08052145982291042, 0.07801150766673, 0.07555149590616414, 0.07308316615615373, 0.07066284349189252, 0.06824253135033388, 0.06584982114567003, 0.06350718997960558, 0.06116836854483579, 0.05893252675306707, 0.056645851415650185, 0.05439466445309486, 0.0522180914968341, 0.05003304288517835, 0.04789742235223528, 0.04578695697900716, 0.04371525541956771, 0.04173461295532095, 0.03973431391526169, 0.037788593570304736, 0.03587141751653489, 0.03399732885377386, 0.032176195361473245, 0.0303874005808771, 0.0286541953109245, 0.026952576045656724, 0.025296374829120557, 0.023707090977450215, 0.022140021296830136, 0.02064347244634842, 0.01916919755722897, 0.017744533001766087, 0.016426748030800468, 0.01509476851690507, 0.013860410918379647, 0.012629968875443442, 0.011455487886439316, 0.010346463291675037, 0.009281916929556279, 0.008267628774315037, 0.007315654251855385, 0.006419246101058249, 0.005597267605085972, 0.004810014847709963, 0.0041499726949880385, 0.0034681560774973935, 0.002847604904301339, 0.0023009714707175814, 0.0018002297008132358, 0.0013728262691636603, 0.000992523493904886, 0.0006736209388615108, 0.00041755462698700105, 0.0002207297330687071, 8.907822314393068e-05, 1.3894503645934905e-05, 0.0, 0.00011587098138565209, 0.0002159293827988996, 0.000339630578617499, 0.0005749001230337191, 0.0008721745043341957, 0.001299117700629249, 0.001711875980986105, 0.002193756182868044, 0.0027373228032442974, 0.0033460016843142107, 0.003986790590816389, 0.004728687508330786, 0.0055646320261778116, 0.006427029067057892, 0.007368156795244287, 0.008356563579212557, 0.009409377683010048, 0.010523017354699587, 0.01170412585038358, 0.012954287825427308, 0.014261149622193523, 0.015631251662591907, 0.017050490661919496, 0.018548100488928406, 0.020127845369054764, 0.02174627769512971, 0.02342737352097684, 0.025168386262053654, 0.026974221469649208, 0.028897128614894362, 0.030818964462852236, 0.032805008830435946, 0.03484068165547818, 0.03695477927699748, 0.039125393942102904, 0.04136244659826635, 0.043659692035750375, 0.04602569043257515, 0.048440974305337434, 0.05093368694183429, 0.05346522896099554, 0.056056354864926224, 0.05869669267225463, 0.06140647747633283, 0.06417522553946607, 0.06699901933864043, 0.06987934037082211, 0.07281410115619734, 0.07580631412821116, 0.07884789181583195, 0.08195052818412434, 0.08510703243876423, 0.08829662458255946, 0.09156223017807394, 0.09487932895854008, 0.09824765465300482, 0.10166691093452271, 0.10511639394912688, 0.10863908930697981, 0.11222927181859009, 0.11584683966382252, 0.11951369120507814, 0.12325218995762653, 0.12701332298961204, 0.13081788548490045, 0.13467732481302566, 0.1385842175328287, 0.14251104306455434, 0.14651438841595793, 0.15053166606874702, 0.15462661781993317, 0.1587631552311994, 0.16298346715201342, 0.16719716373276267, 0.17141739296218186, 0.17572148066451737, 0.18006537321322172, 0.18445358790526462, 0.18887531838294086, 0.19331064355546201, 0.1978128004568333, 0.20235138747809603, 0.20692607412614142, 0.2115364905355582, 0.21619853533711317, 0.22087710351455986, 0.22559101104808368, 0.23033311685516336, 0.23511666345996146, 0.23994798296070063, 0.24479529355348373, 0.24967535849196598, 0.25453121594780714, 0.25948176700375797, 0.2644361571081775, 0.26944441723233126, 0.27447830357894926, 0.2795466414453387, 0.28463015848668055, 0.28974001311254793, 0.2948740888395446, 0.30003293091423905, 0.3051948877061601, 0.310404544648594, 0.3156893171443311, 0.3209361744491574, 0.32620738058613225, 0.3314906669974905, 0.336809468761292, 0.34210708885434543, 0.3474729662460655, 0.35285628056292534, 0.35824282932030904, 0.3636617012676514, 0.36908794551346824, 0.37453856892068993, 0.38000356555400083, 0.38546629718288916, 0.3909610594966629, 0.39649914233227523, 0.4020143690741877, 0.4075430230593159, 0.41307142585767875, 0.4186266744199284, 0.42418129259875753, 0.429759013041765, 0.43534579127259926, 0.44091751909378757, 0.4465239773052394, 0.45213507230764277, 0.45775393775961276, 0.46337827493420813, 0.46897345513610844, 0.4746118603220649, 0.48029901785598134, 0.48593592282604936, 0.49157726881569713, 0.49720199887137645, 0.5028527738779911, 0.5084526498161069, 0.5141120610080452, 0.5197687886017239, 0.525438202600881, 0.5310871841378887, 0.5366914177475764, 0.5423406233038066, 0.5479842227118307, 0.5536155575499209, 0.5592482916612764, 0.564877710517887, 0.5704966164018367, 0.5761085475774566, 0.5816935478848051, 0.587292788817511, 0.5928859295222189, 0.598465697537745, 0.604035563982495, 0.6095975224452883, 0.6151458878626166, 0.6206324972779037, 0.6261642650295511, 0.6316808446090065, 0.6372007959630983, 0.6426839957568046, 0.6481498581549943, 0.6536030688630274, 0.6590401942338561, 0.6644623190866081, 0.6698654081361454, 0.6752271607958957, 0.6805972280882605, 0.685947022172977, 0.691258971185675, 0.6965689911421946, 0.7018416492857026, 0.7071077437355217, 0.7123494789002326, 0.7175330712123728, 0.7227291843330933, 0.7278815422376338, 0.7330245973988357, 0.738138787793319, 0.7432369466835052, 0.7482910609077598, 0.7532673041319555, 0.7582691837024194, 0.7632383252801156, 0.7681631439715656, 0.7730676593864384, 0.7779747424119843, 0.782806103665179, 0.7876047737719367, 0.7923252160366577, 0.797062053599502, 0.8018031132738725, 0.8064596135026092, 0.8110802900484751, 0.815638248721113, 0.8201881522249092, 0.8246681855389834, 0.8291418930065008, 0.8335729912102569, 0.837939077732113, 0.8422865159431977, 0.8465790147084095, 0.8508370346539066, 0.855048613080588, 0.8592044190354129, 0.8633231043663337, 0.8673952335845401, 0.8714169097286333, 0.8753895865130809, 0.8793217048622142, 0.8831936388505509, 0.8869844296924895, 0.8907592661815381, 0.8944971268697479, 0.8981628900922269, 0.9017753452882308, 0.9053273166500904, 0.9088320053406531, 0.9122687957713416, 0.9156630587521778, 0.9189996917281781, 0.9223083029045799, 0.9255241823998581, 0.9286726273121828, 0.9317735945827382, 0.9348146915392342, 0.9377576927531555, 0.9406816178500648, 0.9435862484877062, 0.9463758473253372, 0.9491030085674647, 0.951759585778111, 0.9543603948585921, 0.9568373051984316, 0.9593144441039424, 0.9617217374859676, 0.9641119919596648, 0.9663723093318943, 0.968557749162831, 0.9706831887309809, 0.9727392521021793, 0.9747334730865984, 0.9766479142057393, 0.9784883665456202, 0.9802611250775746, 0.9819617181275804, 0.9835928393096589, 0.9851470061637829, 0.9866202074017344, 0.9880275048525182, 0.9893597041712635, 0.9905747917986029, 0.9917607459094785, 0.9928492385568951, 0.9938800707866327, 0.9948309738627912, 0.9957133898923147, 0.9965030411520055, 0.9972370207086046, 0.9978648954556982, 0.9984144455656327, 0.9988404608346437, 0.9992379222087874, 0.9996089016401398, 0.9998355635902118, 0.9999834720326364, 1.0, 0.9999956699688802, 0.9999687284750988, 0.9997909750338424, 0.9995338016094991, 0.9991291049819336, 0.998720366833154, 0.9982899977414348, 0.9977047654975203, 0.9970391158341952, 0.9962373092346207, 0.9954169587353836, 0.9945106655014065, 0.9935221676817249, 0.992449793430622, 0.991305213088928, 0.9900644065990861, 0.9887223622756309, 0.9873190952806786, 0.9858325901786866, 0.9842550142367704, 0.9826040152208467, 0.9809224355974752, 0.9790997120200277, 0.9771979117606241, 0.9752088325778302, 0.9731498110045627, 0.970990879668289, 0.9687755398255379, 0.9664798940990532, 0.9641320612599545, 0.961673521731057, 0.9591317781102455, 0.956519190915913, 0.9538292834032465, 0.9510404054764425, 0.9481997547909246, 0.9452605372136227, 0.9422684601776565, 0.9391991072291023, 0.9360345576463581, 0.9328154992873613, 0.9295450278018921, 0.926172099158368, 0.9227265723860996, 0.9192108043386158, 0.9156220668532369, 0.9119345084508024, 0.9082095522397625, 0.9044142274845844, 0.9005691142315895, 0.896633614758349, 0.892643274677696, 0.8885746608773352, 0.884442121737002, 0.8801967094796478, 0.8759449714168159, 0.8716248637653922, 0.8672463172207114, 0.862805752487977, 0.8583101305671039, 0.8537485530051356, 0.8491624105968747, 0.8444817951008473, 0.8397473902053164, 0.8349560102498187, 0.8301172472664724, 0.8251701763114059, 0.8202371599077636, 0.815251765871625, 0.8102334597186256, 0.8051456044603287, 0.8000116936499073, 0.7948312960058977, 0.789606675355364, 0.7843187447367189, 0.7790121342394863, 0.7736404004713869, 0.7682552775308018, 0.7628302580909665, 0.7573677830228613, 0.7518677103940842, 0.74633175081102, 0.7407631672715647, 0.7351625041233235, 0.7295337038081104, 0.7238730469648893, 0.718184078050522, 0.7124699675116836, 0.7067311819013453, 0.7009463282837265, 0.6951653706008518, 0.6894100220439472, 0.6835813495062527, 0.6777368474839982, 0.671860578750658, 0.6659901560708557, 0.660083747610961, 0.6541912889422199, 0.6482871926790623, 0.6423420748504605, 0.636423380586771, 0.6304927750075462, 0.6245589835875981, 0.6186198973357606, 0.6126715426376834, 0.6067277461491971, 0.6007793401882398, 0.5948366609949407, 0.5888965218703016, 0.5829996852113576, 0.5770645462264659, 0.571103893692335, 0.5651934924488349, 0.5592931309520577, 0.5534426568072685, 0.5475621077829589, 0.5416485520017811, 0.5358088857141792, 0.5299854794682222, 0.5241595433339707, 0.5183759660508537, 0.5126586316421474, 0.5069103848737003, 0.5011877743003648, 0.49545611247660915, 0.4897928544169886, 0.48413639003345116, 0.4785315292327904, 0.472955608959435, 0.467428944313671, 0.4619131788971849, 0.45646047923533745, 0.45101144136887894, 0.4456010472732631, 0.44016914725012424, 0.434846743424763, 0.42955356631601543, 0.4243101737999668, 0.4191073899866007, 0.4139458419792046, 0.40882864231705157, 0.4037952759861783, 0.398763809892556, 0.3937817356811993, 0.3888058894785715, 0.38393072555623986, 0.37913437474216094, 0.37435561796684547, 0.3696033882665565, 0.36493573169303745, 0.3603216595463415, 0.3557842017811611, 0.3512775290504086, 0.3468180011419112, 0.3424288627202336, 0.3380982733788648, 0.3337870470107414, 0.32958084970818496, 0.32547308758609333, 0.32137981261173876, 0.3173491827824678, 0.3133311933839549, 0.3094338333420681, 0.3055929382313241, 0.30181978804642906, 0.29810940570057337, 0.2945237083072162, 0.29093339819259745, 0.28739837843613913, 0.2839464783055795, 0.2805623724458383, 0.2772397445593513, 0.27399265341795387, 0.27082416073893556, 0.2677119447111814, 0.2646687268466469, 0.26167257787425, 0.25877036783170226, 0.25594834903960884, 0.2531807336695612, 0.2504821565926607, 0.2478118974342452, 0.24525664206074727, 0.2427763313689737, 0.24035392257925645, 0.23799928125270586, 0.2357451125590419, 0.23352212649655596, 0.23134605743277054, 0.2292651331390177, 0.22725204198313992, 0.22525772433884095, 0.22338600109629866, 0.2215698444050148, 0.21982845992976485, 0.2181512992001297, 0.21660036720084044, 0.21504389387365405, 0.21352406312362807, 0.2121060752282963, 0.21075262546467202, 0.20943556993144927, 0.2082133813533994, 0.2070389267292604, 0.20594136514159575, 0.20490393976752408, 0.2039320440308018, 0.2030131654926489, 0.20218295967516822, 0.2013784817935552, 0.20063384844132592, 0.19995226909171093, 0.1993241992867727, 0.1987649833969783, 0.19824942139545335, 0.1977900704077028, 0.19736714315221915, 0.19701947404293482, 0.19672548878695714, 0.19648083921427423, 0.1962865527331456, 0.19611398079793482, 0.19602111149290075, 0.19598806225120802, 0.19598460742305646, 0.1960263352393968, 0.19607968776756782, 0.19621302905175395, 0.1964145205278005, 0.19662447277990097, 0.19687485802818577, 0.19713281062177612, 0.19746484570913175, 0.19783797038165846, 0.19823918968451054, 0.1986743466402338, 0.19913674400988018, 0.19963749415257256, 0.20016064766440247, 0.200722509972982, 0.2013123836919852, 0.20193821842009713, 0.20257989795097803, 0.20326406904375163, 0.20395315680024143, 0.2046662197160495, 0.20536279478876643, 0.20612476020191053, 0.20694120777629302, 0.20773313542756233, 0.20854289401091625, 0.2093740226343258, 0.21021478087002596, 0.21105087552636087, 0.21192081980425226, 0.21280110196616223, 0.21368647251382572, 0.21458442114936724, 0.2154701985493007, 0.2163825249125674, 0.2172980749809914, 0.2182696454774428, 0.2191818043489492, 0.22005555923466005, 0.2209778268057361, 0.22189799683880615, 0.22282640960049066, 0.2237377204909942, 0.22467613883597629, 0.22557288957130722, 0.2264644101850286, 0.22730283398823373, 0.2281856103530344, 0.22907930195602674, 0.229934471369179, 0.2307772004753695, 0.23158193368799918, 0.2323995925056048, 0.2332442137296674, 0.234021344009208, 0.23478218589955788, 0.23548966071117028, 0.23621887174187794, 0.23691893896571203, 0.23760466280273967, 0.23826656766073614, 0.23893407752237567, 0.2395423148213066, 0.2401474016747862, 0.24070328767900553, 0.2412340900072696, 0.24168410728818615, 0.2421684487432919, 0.24262725179251993, 0.2430478881242324, 0.24343660205934045, 0.24378957695618672, 0.2441131928278977, 0.244434836408018, 0.24468638690400984, 0.24490492854399837, 0.24506279987770835, 0.24521648430003168, 0.24532859769690382, 0.2454091136289326, 0.24545183070200619, 0.2455061082939388, 0.24546584804273344, 0.2453642343612036, 0.24525426646718, 0.24510538554200156, 0.24490332084692112, 0.24467715874863644, 0.24444928813763575, 0.24413629347176172, 0.24378425184305913, 0.24334212898945337, 0.24291696132627222, 0.242509736294179, 0.24199052005980132, 0.24143168444896626, 0.2408034636179785, 0.2401679056966142, 0.23948185913633782, 0.23876265484370154, 0.23800067317120166, 0.23719113257130056, 0.2363445585846703, 0.2354447107605584, 0.2345143205767163, 0.23354106503815394, 0.23252199076069305, 0.23146434225551737, 0.2304273487207556, 0.22927788514586087, 0.22809053470599885, 0.22680646194196533, 0.22555040306849422, 0.22429288923371776, 0.2229495112714521, 0.22156803397911312, 0.22010872249753705, 0.21865676719166907, 0.21719375605073862, 0.21565967109405107, 0.21408890136246164, 0.21249572341854364, 0.2108511164439424, 0.2091825414916308, 0.2074678552242822, 0.20572002089452193, 0.20396224735493662, 0.20214642832747817, 0.20029024674884122, 0.19841483382770872, 0.19646580724411838, 0.19453556370532588, 0.1925735772191223, 0.1906321561219372, 0.18860303845847012, 0.18655604695065242, 0.18447436907705697, 0.18236821506853973, 0.18019982053271766, 0.17805125513564085, 0.17590475496188201, 0.17370410890131796, 0.17148212076157038, 0.16928358604693483, 0.167015702370395, 0.16469467097867807, 0.16239899417914397, 0.1600858546953829, 0.15776187543936307, 0.1554158557914118, 0.15309951233916913, 0.1507201563127477, 0.1483307788204098, 0.14592545608211935, 0.1435187119427537, 0.1411345205875012, 0.1387078207120947, 0.1362760897605485, 0.1338904978052138, 0.13144426034231468, 0.12901256078205062, 0.1265645808713577, 0.12411814911784971, 0.12167615270595782, 0.11923392167644813, 0.11684305326450968, 0.11440193487789514, 0.11196816735293141, 0.10953317879202941, 0.10711652993407957, 0.10473428230340624, 0.10233169432924073, 0.09994040077125567, 0.09761075562878256, 0.09523771716696323, 0.09288655476122697, 0.09054554680655919, 0.08822194910935033, 0.08597663106217313, 0.08368194354669999, 0.08140584101174901, 0.079157259934793, 0.07693176125450592, 0.07481463598384654, 0.07262620094553644, 0.07042906411021312, 0.06830474230279118, 0.06620810973272015, 0.06422048040657127, 0.06217092282869483, 0.06012707820825754, 0.0581497534171926, 0.056205466204514026, 0.05432415629210981, 0.05244407691316012, 0.05066993369094395, 0.04885490520176857, 0.047081518960760176, 0.04535312293775827, 0.04366298743805248, 0.04201608954259159, 0.040411063714046534, 0.038849320921132635, 0.03738598644191198, 0.03590548622489262, 0.034463240899839036, 0.03308026740972152, 0.031745300150279085, 0.03052890043235014, 0.029282502244828326, 0.028122986559770077, 0.026979310235123403, 0.025891124517758858, 0.02485918921970544, 0.023881822777211452, 0.022978883253163645, 0.022110719979600853, 0.02129979243520532, 0.020534883137930747, 0.019840522545623376, 0.01924673845251953, 0.018662116937873105, 0.01813823559120841, 0.017659764884645695, 0.01725985685575812, 0.01691393906053933, 0.016636308192068325, 0.016419697918642794, 0.016313528423904693, 0.016214302692308922, 0.016148574036712403, 0.016184051644018843, 0.016283283588685478, 0.016501318621090333, 0.01672244186031336, 0.016974159359730203, 0.017336175155574927, 0.01776415220820113, 0.018269845455761262, 0.018829319356083014, 0.01948247645857607, 0.02017406215165211, 0.02093513604310539, 0.02177058495532817, 0.022670021744361637, 0.02362621429177018, 0.02466689439465032, 0.02577664551779883, 0.026961293274768035, 0.028208813691856023, 0.02952849949892327, 0.030915191364059253, 0.0323718143907962, 0.03388614476213051, 0.03548417940813985, 0.03718649663739769, 0.03891863137282269, 0.04072208398534304, 0.04259659698186324, 0.044541924091348876, 0.04655945757380543, 0.04864549786114435, 0.050801743183633605, 0.05301327803346663, 0.05531106227311666, 0.05767097868939915, 0.060106765454691534, 0.06261056150817464, 0.06517980495873484, 0.06781955362916596, 0.07056017021368077, 0.07333041124730759, 0.0761696020626256, 0.0790911083085095, 0.08206497835630601, 0.08505169136803006, 0.08816853765838019, 0.09134939815867696, 0.09465122755474728, 0.09795253259684898, 0.10128717631918292, 0.10472553714949488, 0.10822741876629441, 0.11178591298546567, 0.11541448115639066, 0.11907645480748784, 0.12283211306500469, 0.12664730026287666, 0.13056338114499497, 0.13449169036285266, 0.13844195629663258, 0.14249669943835827, 0.14660896466712636, 0.1508101759540889, 0.1550323216758676, 0.1593109234237006, 0.16364871475676493, 0.1680430349671465, 0.17244017734981848, 0.17695209273648624, 0.18155126350191744, 0.18616111536218383, 0.19082370464782666, 0.19547719273407543, 0.20025087555923288, 0.20512553219611487, 0.20998651395601106, 0.2148971321328098, 0.21984516452975397, 0.2248540648162425, 0.2298500095201423, 0.23495880742143296, 0.240109338477135, 0.2453053942756068, 0.25053795040601795, 0.2558162946849599, 0.2611295107098228, 0.26648281682526176, 0.2718674112653637, 0.2772999428649923, 0.28278228193211385, 0.2882877465220602, 0.2938300826840004, 0.29940600265303, 0.30501985003834414, 0.3106385168208303, 0.3163235457152513, 0.322039359507359, 0.32776900655951685, 0.33354646897665696, 0.3393737555700557, 0.3452034428486665, 0.3510030165351672, 0.3568946702654624, 0.3628090667889966, 0.36877918960648565, 0.3747334617665089, 0.38069127681874443, 0.3866933488771663, 0.3927156392435605, 0.39872233740426805, 0.4047871935215715, 0.4108695720186794, 0.4169654508579887, 0.4230761478716001, 0.42922952236268647, 0.435364190480281, 0.4414878714318908