0.034237354385088084, 0.03402598427614194, 0.03381299886705472, 0.033649995696687474, 0.03348001657455905, 0.03335018947058773, 0.03323085442218814, 0.03317477410069272, 0.033064941863005584, 0.0329515614966863, 0.03286076724249555, 0.032776078235303936, 0.03267332644515362, 0.032601373870072024, 0.03251139774454845, 0.032447219677024235, 0.032384204014536816, 0.03234317417129921, 0.03228023436329034, 0.03220195060283546, 0.032146928129907416, 0.03209383917840489, 0.03199118691904263, 0.031949405596649064, 0.03193605250548704, 0.03189129767834925, 0.03184951709769982, 0.031837022396236016, 0.031799151803993904, 0.03171253467043227, 0.03169296677714299, 0.031676313814019454, 0.03165024483831961, 0.031642859015513926, 0.03167820930104444, 0.03167428415193784, 0.031643885535250195, 0.031658768424725474, 0.03167929166501845, 0.03171883604631779, 0.031750265062286, 0.03181255573265271, 0.03185637620138364, 0.03190949646969675, 0.031933083522802524, 0.03200975284796841, 0.032122085813865185, 0.03220986435667189, 0.03230709471764342, 0.032398306306139095, 0.032516608122583925, 0.0326152179917133, 0.03275491037880434, 0.032902194264514954, 0.033049713599536505, 0.033214362912098123, 0.03340283497246847, 0.03358246739198214, 0.0337719756086507, 0.03398190513968242, 0.03419040750274427, 0.034381415241710025, 0.03461557545996733, 0.03485928514454823, 0.03515170103710124, 0.0354105185903532, 0.03565863559868641, 0.03594554877796806, 0.03624366054817981, 0.03653501529205477, 0.036858324487786746, 0.03723892731958866, 0.03757801698513916, 0.037931001363008136, 0.038326261059103486, 0.03870315400767399, 0.03909014231719905, 0.03949799296433649, 0.03992038830923061, 0.04027695039892458, 0.04073830958567699, 0.04125352536913505, 0.041729631858594005, 0.04221927569315938, 0.042720054412061226, 0.043237661441240784, 0.043727789758383435, 0.04427874810734512, 0.044841744662975386, 0.04543802824562435, 0.046024036207853676, 0.046645429526577235, 0.047258401364370026, 0.04788768051785968, 0.048494477590896166, 0.049161450349547026, 0.04986086285438246, 0.05055456101433629, 0.05126433833380987, 0.051992967104461205, 0.052735114898279124, 0.0535017780047588, 0.05427657445522388, 0.055068823304509074, 0.0558578741773267, 0.05668784663083049, 0.05756279853983029, 0.0584223998008341, 0.059300555364253216, 0.06022572355021339, 0.06113732068442378, 0.062037954235678865, 0.06299347759136567, 0.06396695749735903, 0.06494554165505229, 0.0659568542789902, 0.06698826314019057, 0.06803445180642312, 0.06909865567577442, 0.07017583236274048, 0.07127711877130284, 0.07238096593519733, 0.07352055450523867, 0.07467763755784726, 0.07586280894412609, 0.07705424928884996, 0.07829287019183069, 0.07951817165152847, 0.08076389488612057, 0.08202985568385687, 0.08331588676784231, 0.0846088882785668, 0.08593625234036024, 0.08728253922657446, 0.08863219672436104, 0.09001824239311358, 0.09141709799899658, 0.09283986947458375, 0.09428050433641363, 0.09576240156354698, 0.09723607392600424, 0.09875243464988506, 0.10026176697516363, 0.10179147568459478, 0.10331014812836455, 0.10488354744397578, 0.10647463662274763, 0.10808339469680682, 0.10970978687843654, 0.11134081776715997, 0.11300395844020819, 0.11467605650889454, 0.1163736504434412, 0.11808754878668266, 0.1198048391751376, 0.12155305958820274, 0.12334018382820564, 0.12511671371392247, 0.12691023255761247, 0.12873608075033122, 0.13056101710374285, 0.13240320553104842, 0.13426230575978504, 0.13613798715523168, 0.13799885360798966, 0.13991066593944115, 0.14183895736054067, 0.14377816611221952, 0.14573127162489963, 0.14767483969591225, 0.14965827775580243, 0.15163831984499815, 0.15364800408707274, 0.15566891708299946, 0.15774253854489872, 0.15978076595702095, 0.16180924413817105, 0.16387711167111196, 0.16595639463836, 0.16803133338039533, 0.17013472328863347, 0.17226864591954724, 0.17438889761899476, 0.17651979255226471, 0.17862987903989797, 0.18078485059216662, 0.18294239439692334, 0.18511338121312723, 0.18729150953237422, 0.1895180436574726, 0.19170468057360335, 0.19388205727040356, 0.19608812544867277, 0.1983008730361165, 0.2005535469743054, 0.20277414357712784, 0.20500981465041157, 0.2072433413407359, 0.2094832405350455, 0.2116770174994255, 0.21393412601088452, 0.21621598226830627, 0.21847282579672117, 0.22073198419700665, 0.22291532687400215, 0.22518759683640996, 0.22750826795925486, 0.22976738626681628, 0.23202628975529596, 0.2342327944674375, 0.23649661947982897, 0.2387768158969111, 0.24102931726181062, 0.24327854376522684, 0.24552419555717256, 0.24776594309775796, 0.2500267355557782, 0.2522566358887287, 0.25448280307817317, 0.2566502511233298, 0.2588740130229998, 0.26112285122296186, 0.26332503165522925, 0.26552016303957476, 0.26767924699257295, 0.2698623338289712, 0.27203003609216775, 0.2741930674532358, 0.2763449730236467, 0.2785139202809242, 0.28063899269427767, 0.2827612700512177, 0.2848636082539657, 0.2869545770648069, 0.2889558207774471, 0.29103187399844443, 0.2931368392254415, 0.2951715980521105, 0.2971937910094907, 0.29919741052086496, 0.3011850124331959, 0.3031327603204843, 0.3050896799289707, 0.3070380382002167, 0.30895546699007004, 0.3108538508563918, 0.31273531300735735, 0.31459387498947855, 0.31644506985643445, 0.318260865302892, 0.3200560724277552, 0.32179901481142414, 0.32355518088744467, 0.3253001978586523, 0.3270062236076326, 0.3286882409234126, 0.33034321260005356, 0.33197619706605286, 0.3335396636521298, 0.3351267951206071, 0.3366851078678341, 0.33825855093875595, 0.339753401401712, 0.341190490488511, 0.3426353549247881, 0.34405072358725297, 0.3454389256332265, 0.346794177588024, 0.34812183990594064, 0.3494160825351415, 0.3506796371770109, 0.3518992001020204, 0.35310194592413763, 0.35429810164201647, 0.3554323526671467, 0.3565350599015203, 0.3576212829870548, 0.3586575265518952, 0.359589220503179, 0.36056999839792253, 0.36151360710628816, 0.3624486333958632, 0.36331456673240653, 0.36414511298971636, 0.3649400318513963, 0.365699082906147, 0.36638059526380334, 0.36707243361192426, 0.3677357267282727, 0.36834855259183735, 0.3689232272108129, 0.36944675568468, 0.3699466055533427, 0.37042033521443674, 0.37084042810284834, 0.3712221892298412, 0.37156808030545896, 0.37187246571461746, 0.3721305101948944, 0.37235858471321664, 0.37254736024865504, 0.37268640562210564, 0.3727976727878988, 0.372902504012246, 0.3729293306549681, 0.37291796928431964, 0.37285779528846774, 0.3727705988910173, 0.37260767327913236, 0.372446013770084, 0.3722426723642195, 0.3720341324031788, 0.37174351558425045, 0.37138281311135996, 0.371017990129114, 0.37061221403016525, 0.37019674620610116, 0.36970569016113786, 0.3691526611304183, 0.36858713669648047, 0.3679815061145166, 0.36733852260262223, 0.36665284623153754, 0.3659069934549802, 0.36514516883151704, 0.36434303616460634, 0.36347244732525574, 0.36259429613729716, 0.3617347703212642, 0.36076775906656583, 0.35976419465931414, 0.358705944200858, 0.35763157979345084, 0.3565067783141647, 0.3553593071671721, 0.3541741012768349, 0.3529722369823649, 0.35171002167077725, 0.3504407946339248, 0.3491041772427592, 0.34773406732833784, 0.3462553757515336, 0.3448278408775132, 0.3433808834740238, 0.3418767020934017, 0.34033743818483536, 0.3388387142889932, 0.3372213634390304, 0.33545558267823905, 0.3337945628081768, 0.33209740980908026, 0.3304065435500887, 0.32863478966625786, 0.32681906915025805, 0.32498740550104654, 0.32312497785935285, 0.32127899061480475, 0.3193509108242598, 0.31737571373149476, 0.31539763855207936, 0.31339241580555843, 0.3113268137393199, 0.3092728596430914, 0.30722486522662, 0.30511198768068226, 0.30297475352465414, 0.3008006433148472, 0.2986176334991945, 0.29640051544988144, 0.29417189363508184, 0.291920099050426, 0.2896406169690695, 0.2873451154474775, 0.28507731793180435, 0.2827332868016865, 0.28037187690741366, 0.2779286198572517, 0.2755414843862591, 0.2731731048129571, 0.2707417877251905, 0.26829433482052945, 0.26582350406234684, 0.2633463527452159, 0.2608231695512254, 0.2583206520446439, 0.2558026761238927, 0.2532752939266531, 0.25072833587425847, 0.24816615290395586, 0.24559500125368647, 0.2430125516803617, 0.24045320599944559, 0.23784610406603252, 0.23519550994657737, 0.23257893704957283, 0.22995396062813875, 0.2273316958092126, 0.2246908559608405, 0.22207289629640076, 0.21941787072137783, 0.2167600840971848, 0.2140973355715345, 0.21143554572646808, 0.2087410157802403, 0.2060803003751383, 0.20341714682085218, 0.20073159637552918, 0.19806843766047866, 0.1954349665586347, 0.1927659764865436, 0.19009904755426327, 0.18742955161683628, 0.18476905290848594, 0.18207831548772824, 0.17942951488022313, 0.17678342912534012, 0.17420046749426613, 0.1715547956646238, 0.16889172550689005, 0.16626658467185007, 0.16364904417346313, 0.16103445199042626, 0.15843434457500097, 0.1558664230482823, 0.1532816883158622, 0.1507082492009265, 0.14814386890300157, 0.14559442091301894, 0.1430442750806062, 0.14052137374723145, 0.13801082228139425, 0.13548207177251154, 0.13300171330280391, 0.13056716833588672, 0.12810759877351388, 0.12566351696430447, 0.12324308654806759, 0.12083018216464253, 0.11849135054139673, 0.11610577838742848, 0.11374116552065898, 0.11142328350632341, 0.10909700470992272, 0.10679811868486434, 0.10451543961174904, 0.10225239605681932, 0.10001440543487787, 0.0977983737626062, 0.09560951923375742, 0.09343690961451848, 0.09130232234381501, 0.08917282442573427, 0.0870669254089093, 0.08498466313089488, 0.08292611302420543, 0.08095353024312331, 0.07893489743463143, 0.07694386599908398, 0.0749878824517091, 0.07305018335873824, 0.07119415834164781, 0.0693039954297527, 0.06744388263777294, 0.06559260102629783, 0.06379379772034514, 0.06203819582203476, 0.060292684550856845, 0.05857561107406137, 0.05696972752985712, 0.05529876872052232, 0.05363999014442014, 0.052036793304157704, 0.05046414401872808, 0.04896320356199007, 0.04744566689058496, 0.046009584307437394, 0.04454990721255949, 0.04312447415276313, 0.041786999206276536, 0.04042129745941561, 0.03913265575115299, 0.037832172280360794, 0.036568173673336084, 0.03530611102362623, 0.03411682454279464, 0.03299355282873108, 0.031864479295289086, 0.030769242764369768, 0.029746299820655374, 0.028712749781470905, 0.02771946901325332, 0.026754956871721906, 0.0258249398644164, 0.02500156237230227, 0.02413035888146991, 0.023312384299006506, 0.02251384882377364, 0.02175249328544638, 0.021092402463586967, 0.020395373236900865, 0.01973751156824982, 0.019117930983760457, 0.018535881933535368, 0.01800368323079167, 0.017493281034799628, 0.017063578929259946, 0.016620517959229395, 0.016215788840949596, 0.015859102056046345, 0.015527892103542868, 0.01526244633885984, 0.015001748466480539, 0.01477911875132063, 0.01459144649692346, 0.014443807445952205, 0.014467441074773286, 0.014375756165990449, 0.01432778513170238, 0.014221303867346914, 0.014270002908276168, 0.014358735143604912, 0.014476539303084738, 0.014629614083747031, 0.014880157704359515, 0.015096087597111963, 0.015361339898723418, 0.015653486574716862, 0.01598444441116649, 0.016330554616404414, 0.01674108511426396, 0.017219316602996644, 0.0176991759150425, 0.01821743193690528, 0.01882566266363842, 0.01941357327149707, 0.020044868010015246, 0.0207135281118885, 0.02142218375052629, 0.022165274436525557, 0.022953497026897134, 0.02383225887709266, 0.02469126801503835, 0.025591643818364467, 0.026475911632883223, 0.027464786982202366, 0.028490549534978017, 0.02955336969253531, 0.030653417785624595, 0.031783094361010795, 0.03295908504397147, 0.0342163876549484, 0.03546161612487673, 0.03674703807022923, 0.038090624618476024, 0.03945370901559981, 0.04082138096343146, 0.04227051638894974, 0.04375807193877638, 0.045299739545497174, 0.046862632054548915, 0.04844196414073987, 0.0500873104277008, 0.0517711394197104, 0.05349367626662172, 0.05525513099004201, 0.05708936281951399, 0.05892497227969652, 0.06080193946199527, 0.06275122815830893, 0.06470667598780044, 0.06667130161178676, 0.0687163924811069, 0.07080189281570545, 0.07292786936248592, 0.07509439408847848, 0.07732225921622496, 0.07956749406187565, 0.08185467962762161, 0.08415784052395248, 0.08653198231583525, 0.08893349756879552, 0.09139010592481225, 0.09388667392328157, 0.09642606298269268, 0.09900301661280772, 0.10161305813214472, 0.10427289661466695, 0.10697352076715305, 0.10970997583616247, 0.11249347842178674, 0.11533362623766967, 0.11819759099659126, 0.12110393504180579, 0.12400868243422355, 0.12700548436187947, 0.13004232419716077, 0.1331195943638491, 0.13623764096615323, 0.13938123105402722, 0.14258366824591942, 0.14579314650117178, 0.14908157173096023, 0.15240941375730221, 0.15579271789951213, 0.1591988840235672, 0.16265960704164245, 0.16614754697368664, 0.16967817016216852, 0.17323854749991097, 0.17685621218806163, 0.18053655520304238, 0.18423560223971627, 0.18797790220989893, 0.19172188522882996, 0.1955555144280306, 0.19946072911412227, 0.20337164629499643, 0.2073251636504099, 0.21128748100927155, 0.21533003995313488, 0.2194077076349489, 0.22353161797486804, 0.22769572991857603, 0.23188977582164488, 0.23613583429512253, 0.24038024393862967, 0.2447111772981674, 0.24907967043336682, 0.25348605149545683, 0.25793057396488756, 0.26244967603329106, 0.26696639241446557, 0.27152366155680835, 0.276082366271638, 0.2807248163251033, 0.28540737245637976, 0.29012453534268173, 0.2948793263277549, 0.2996664609347678, 0.3044968087571846, 0.30931227808931383, 0.3142228279321847, 0.31916701113979046, 0.32413724037402425, 0.3291501343517199, 0.3342379635247752, 0.33931264654235704, 0.3444024140704771, 0.349550872079256, 0.354733061921965, 0.35992018983207263, 0.3651724813803827, 0.3704196230786905, 0.3757385265755204, 0.38108608756456014, 0.3864545442773588, 0.39186033924183483, 0.39731743881835135, 0.4027761269913629, 0.4082637343819804, 0.41374870658130475, 0.4192966040349176, 0.4249167428473245, 0.43050968102566467, 0.43613015294724106, 0.4416996615642272, 0.4473825830926536, 0.4530577502662063, 0.458785537878916, 0.46453198579930277, 0.4703487631431162, 0.47612552704729844, 0.48191804052215, 0.4877365193292232, 0.49357402253700666, 0.4994219888636349, 0.5052961228019296, 0.5111579188522848, 0.5170671561634338, 0.5229893346164762, 0.5288979493882474, 0.5348474040777479, 0.5408478026639439, 0.5468105044183222, 0.5527839019298156, 0.5586815486250383, 0.5646841487266575, 0.5707284748586451, 0.5767315914403301, 0.5827389963881175, 0.5886954770021077, 0.5947157934532749, 0.6007476772637067, 0.6067630913265706, 0.6127767572012458, 0.6188215684120291, 0.6248251168230634, 0.6307460614192582, 0.636753907081404, 0.6427525253780012, 0.6487232281544999, 0.6547039116371889, 0.6606801824352893, 0.6666348704193255, 0.6725764297570557, 0.6785195292592184, 0.6844302048916727, 0.6902688837452695, 0.6961555568036909, 0.7020216807361643, 0.7078924107016421, 0.7137118668400152, 0.7194968390055089, 0.7252737048427289, 0.7310259705751257, 0.7366877955645496, 0.7423957002090383, 0.7481289286522579, 0.753765665589761, 0.7593725166102926, 0.7648938037082557, 0.7704438486578453, 0.775913001736703, 0.78139397734394, 0.786833763352726, 0.7922342945426326, 0.797589318433945, 0.8029502699781924, 0.808211608501109, 0.8134305355450064, 0.8185978538782512, 0.8237286568093563, 0.8287786732564268, 0.8338181328153798, 0.838805872871778, 0.84373822152661, 0.8486195716606239, 0.8534301843539405, 0.8582019565988533, 0.8629153531889132, 0.8675356567985537, 0.8721333667964862, 0.8766882825074533, 0.8811554956636708, 0.8855585967063546, 0.8899275427296809, 0.8941951249511981, 0.8983140819206639, 0.9024592136418421, 0.9065311509455283, 0.9105240270382421, 0.9144481085471063, 0.9183534431084732, 0.9221180930300233, 0.9258085876049669, 0.9293743946599847, 0.9329188306393528, 0.9363902053182818, 0.9397711459408669, 0.9430699638665958, 0.9462701675940673, 0.9494038356746458, 0.9524645808492117, 0.9554240359286634, 0.9582966648391108, 0.9610840981028445, 0.9637798791524301, 0.9663809518108208, 0.9688973811709422, 0.9713221120795693, 0.9736231998154512, 0.9758658636912231, 0.9780332315925001, 0.9800806779809014, 0.9820321131807872, 0.9839333855682408, 0.9856846348041903, 0.9872703366842108, 0.9888380792294805, 0.9903041658928847, 0.9917044577268674, 0.9929614647022111, 0.9941564935293544, 0.9952062495350353, 0.9961560045527542, 0.9969866963474635, 0.9977360094046875, 0.9983868989085435, 0.9989277774043527, 0.9993642408598229, 0.9996180795702864, 0.9998540071203851, 0.9999849054164579, 1.0, 0.9999056192411798, 0.9997303816467146, 0.9994138344397246, 0.9989457456101227, 0.9984195910475782, 0.9977832053390823, 0.9970860598122676, 0.9962237873590641, 0.9952237374343404, 0.9941518242540461, 0.992971184687797, 0.9917700387951266, 0.9903613614420221, 0.9887614319893785, 0.9871569828122213, 0.9854435219305198, 0.9836163010766104, 0.9816867694061077, 0.9797010369868765, 0.9775494743415248, 0.9752938316000298, 0.9729005461041322, 0.9704413657794538, 0.9678663510308134, 0.9651980838475331, 0.9624248947936358, 0.9596044388497565, 0.9566162771324774, 0.9535129586772731, 0.9503277989884485, 0.9470427783422128, 0.9436325522493559, 0.9401527869333842, 0.9365761026042936, 0.9328979019906832, 0.9291221768213686, 0.9252394990689462, 0.9212728484391778, 0.9172316709388281, 0.913073003068563, 0.9088224448864465, 0.9044550537074901, 0.9000268830418379, 0.8955264638413312, 0.8909165221978068, 0.8862197731609306, 0.8814011084775852, 0.8765387914850344, 0.8716170497396942, 0.8665823436520823, 0.8614668115668906, 0.8562588095075713, 0.8509871964578957, 0.8456276543482919, 0.8402036870838054, 0.8347045347397718, 0.8292042864382829, 0.8235503503482285, 0.8178015745603555, 0.8120195426768115, 0.8061457688889256, 0.80023671266619, 0.794263187653181, 0.7882191067976856, 0.7821226800638145, 0.7759741901302014, 0.7697588916125918, 0.7634877477635307, 0.7571495292808709, 0.7507734984756048, 0.7443901083857875, 0.7379076104379542, 0.7313799211785771, 0.7247722936600614, 0.7181633678903468, 0.7115015077361563, 0.7048106610361594, 0.6980805004192091, 0.6913518724675836, 0.6845441762419063, 0.6776768464816922, 0.6708121194194906, 0.6639180094652039, 0.6570171896518296, 0.6500675648761453, 0.643046387227004, 0.636060064229411, 0.6290522200392041, 0.6220354314617884, 0.614989858327764, 0.6079713357583716, 0.6008938056182298, 0.5938082918130946, 0.5866802233283942, 0.5795883991300784, 0.5724761464009412, 0.5653785515281077, 0.5582792723494148, 0.5512063432930148, 0.5441068094036808, 0.5370004250763469, 0.5299165665866263, 0.5228417677528151, 0.5157857452408705, 0.5087339135828002, 0.5016844312099734, 0.4946666723581952, 0.4876671619142217, 0.4807163168736066, 0.47375547921184225, 0.4668046879503245, 0.4598986239416642, 0.4530205653851295, 0.4461153261904191, 0.4393058166150153, 0.43254973088053555, 0.42579971350989476, 0.4190854548955104, 0.41246580038216446, 0.40582144835696554, 0.39920603197311005, 0.39265389761211605, 0.3861480030747489, 0.37964062257624165, 0.37323784980506064, 0.36688815085515747, 0.36058237153127953, 0.3543284376022871, 0.34811769652154917, 0.341973832402648, 0.3359405893137297, 0.3299039878595271, 0.32392993674334924, 0.31797812009490406, 0.3121377621080947, 0.30634545625319254, 0.30063569926091355, 0.2949915320257883, 0.28942739774315795, 0.2839172028544027, 0.27840772555102355, 0.2730488632947205, 0.2677591239015203, 0.26261272436834715, 0.25745709152487717, 0.25234063036612714, 0.2473467658386332, 0.2424303797190867, 0.23758481442441207, 0.2328276434083954, 0.22813514344132524, 0.2235413633415005, 0.21902888266840753, 0.21461167113749963, 0.21026315073720417, 0.20598916338482423, 0.2018124574536202, 0.19772146111218686, 0.1937479638544457, 0.18982655170106152, 0.18598422427914557, 0.1822433189578655, 0.17859188222922912, 0.17503027461168075, 0.17155882687748028, 0.16817525029981908, 0.1648853216832189, 0.16168621868550764, 0.15857817113441575, 0.15556137516214621, 0.1526334037235949, 0.14979989189175397, 0.14705787243853127, 0.14443073273869297, 0.1418689614204762, 0.13939753878380745, 0.13702175807934325, 0.13473833177082128, 0.1325004304104972, 0.13040693062822176, 0.12841281228564563, 0.12649614444539672, 0.12466920089968477, 0.12293703622230356, 0.12128846076641286, 0.11971124506475335, 0.11824361561634666, 0.11686377696337151, 0.11555075802518155, 0.11434829632658325, 0.11326000977791062, 0.1122250735523742, 0.11127684608528744, 0.1104121163853919, 0.10963573490798313, 0.108962076394846, 0.10835189516358365, 0.10782589113724209, 0.10736502339207782, 0.1070069074744984, 0.1067162163049754, 0.10651966703432263, 0.10640109911695825, 0.10638821770887465, 0.10641962842905263, 0.10645823215493663, 0.1066515629791429, 0.10691579294548674, 0.10730729257788019, 0.10770424213103057, 0.10814477036160813, 0.10868816371396993, 0.1092994464515405, 0.1099801369573884, 0.11072362024778325, 0.1115033303857115, 0.11237863939560894, 0.11331463642439932, 0.11433619163102876, 0.11538716305005585, 0.11646856058290146, 0.11763957242841055, 0.11886511632215165, 0.1201388288927087, 0.12147049546682052, 0.12289933550056624, 0.12432497361280113, 0.12580123079073374, 0.1272720201593664, 0.12885128240803456, 0.1304704422065573, 0.13213377534999007, 0.13383694536195428, 0.13559937504388211, 0.13737568226882343, 0.1392019464533894, 0.14104907291807417, 0.14293080306513584, 0.14485840494099628, 0.14680267576587952, 0.14869698975599968, 0.15071028438524087, 0.1527458916349751, 0.15483898844942107, 0.15691134747765154, 0.15902018230472617, 0.1611309196291839, 0.16326038990100056, 0.16535771947146394, 0.16752586668046487, 0.1697749142193375, 0.17195494613053405, 0.17414736040179996, 0.17634769162442065, 0.17855961219386934, 0.18072388625645786, 0.18295441035736962, 0.18518517320104552, 0.18742788466436008, 0.18965375007483767, 0.19185866978919466, 0.1940797820471982, 0.19626575925245576, 0.19847590930599354, 0.2006752696840981, 0.2029119784342482, 0.20508031493067003, 0.20723473982347976, 0.20937920553459352, 0.2115091232421699, 0.2135686351139572, 0.2156719198657763, 0.21777913510966582, 0.21983424764962006, 0.2218668799088325, 0.2238732099488306, 0.2258575177595861, 0.22784659668402432, 0.22977318325607993, 0.23167284622443277, 0.23350532719225553, 0.23535184915933513, 0.23714702264157778, 0.23892841524809616, 0.24067361555345976, 0.24243876542786286, 0.24410188656794193, 0.24572173300191055, 0.24731351585404723, 0.24886679685070606, 0.2503700827742767, 0.25184430766879523, 0.2532839423852256, 0.25467154382992624, 0.25601540467761236, 0.2572757563976343, 0.25853430562434143, 0.25975721471940305, 0.26091644831900285, 0.26202681064638467, 0.263113585574909, 0.26412111453872966, 0.2650897999596303, 0.26599684951466057, 0.266853791025901, 0.26762102250610786, 0.2683804328369047, 0.269126865173784, 0.2697719238067551, 0.2703643186951894, 0.27086718939559734, 0.2713570708454092, 0.2717905893644396, 0.2721675826886628, 0.2724878995130655, 0.2727669380500804, 0.2729715357388024, 0.2730707569323452, 0.2731690054370819, 0.2732079155816781, 0.2731696054828249, 0.2730928472245848, 0.2730237468594077, 0.2728194915661432, 0.2725600286037717, 0.27225030815941403, 0.27187914311449707, 0.27146807247112564, 0.2709839442234993, 0.2704450709945754, 0.2698202443601719, 0.2691754698791474, 0.26846363268350154, 0.2677070543376569, 0.2668938048176155, 0.26601136152450644, 0.2650876934297895, 0.2641105295397671, 0.26307493241336954, 0.2619845353382383, 0.2608450716591161, 0.25964609153422324, 0.2583917025954909, 0.2570879532661323, 0.255732340608881, 0.25436430454877973, 0.25290186305066875, 0.25134496805770756, 0.24979306761976822, 0.24819143099768312, 0.24654605263993754, 0.24484673740483498, 0.24306935703160382, 0.24128077189097566, 0.2394450304442679, 0.2375735466582526, 0.23564533191699233, 0.23370731921676743, 0.23168885088003388, 0.22963066096264653, 0.2275359955761958, 0.22540004171065509, 0.2232498948163433, 0.22103673743602237, 0.2187889025157486, 0.21647075430070384, 0.21416005103311422, 0.21188455511564985, 0.2094966482129755, 0.20708006812856514, 0.2046068318693876, 0.2021380854044494, 0.1996148936476243, 0.19709325466790228, 0.19454350817145175, 0.19202899627816464, 0.18941875774273928, 0.18675381067595442, 0.18410642366693505, 0.1814375331777942, 0.17876374512605697, 0.17605310473233632, 0.1733742813081077, 0.17062363631041325, 0.1678603591360633, 0.16511356837482885, 0.1623233972401441, 0.15952688423632305, 0.1567191137113637, 0.15390381572474376, 0.1510739375553865, 0.14824677742317294, 0.14546836296178833, 0.14262400777503847, 0.13977900089172934, 0.13696499229271, 0.13411656241362693, 0.13125046973720936, 0.12841130555973373, 0.12557519806873232, 0.12279739385641171, 0.11996317228941915, 0.11716109676294818, 0.11434215767875927, 0.11153454432548007, 0.1087594862309256, 0.10597353181057528, 0.10325105295633225, 0.1004880017173097, 0.0977432098455416, 0.09502217744687387, 0.09231431955453367, 0.08966771340282723, 0.08699481830313095, 0.08434526631822534, 0.08168058414215452, 0.07908383273247646, 0.07656918655795412, 0.07401093376750736, 0.07148046289228238, 0.06900934435452155, 0.06653207050621388, 0.06420254473060817, 0.06177341429352339, 0.059382987300460974, 0.056981700500420104, 0.05467398251374435, 0.052481883914619054, 0.05023519452072724, 0.0480293967030075, 0.045843739896481384, 0.043722367264792374, 0.041666878905385035, 0.03962267659019758, 0.037620909448208395, 0.03570596903404712, 0.0337846859453559, 0.03196658247268279, 0.03013070919435576, 0.028344708391832913, 0.026605877546453934, 0.024919726937650592, 0.023319552514202372, 0.02172847917865914, 0.0201896641288597, 0.018739416144600497, 0.01730078962829586, 0.01588579983581645, 0.014560512871195364, 0.01328826092231276, 0.012121238054475719, 0.01094975524962799, 0.009830342071912326, 0.008774078901390942, 0.007774974265826151, 0.00688245786202383, 0.0059921792899906455, 0.005193697694328965, 0.0044208709882844425, 0.003710448940789278, 0.0029819698811515668, 0.0024060230117759467, 0.0019316615541105152, 0.0014659413241014212, 0.001147005402361784, 0.0007933915122293806, 0.0005064122817044416, 0.00025716420123503823, 0.00010588698273351694, 2.3822311533016808e-05, 0.0, 4.0615477376542955e-05, 0.00015348907699021656, 0.00032217597907744624, 0.0005663120780705307, 0.0008639133091814956, 0.0012272859039049915, 0.0016356997418805353, 0.002133209233723864, 0.0027056914791959027, 0.0033313136955808527, 0.0040225024196874825, 0.004810409783171743, 0.005629031340321572, 0.006551429928801178, 0.007500320910697082, 0.008518399851297539, 0.009558605605354572, 0.010719650603672151, 0.011974539064747788, 0.013262751019667292, 0.014618004318756558, 0.015993476013117545, 0.017488079085674794, 0.019100879226682285, 0.020716429267722776, 0.022399178413757156, 0.024138433429173205, 0.025955899831340834, 0.027792410501695966, 0.029746864697007224, 0.031763923808034555, 0.03386186499256454, 0.03600224206531424, 0.038201360940163125, 0.040470092508081056, 0.04280214620745168, 0.04521032179155437, 0.04766691273860789, 0.05018702986999412, 0.052770344926817384, 0.05541652000531888, 0.05810190229579286, 0.06087569190493262, 0.06372808867483534, 0.06662035942988218, 0.06957371850015652, 0.07258517954133258, 0.07565984229378872, 0.07877092314741946, 0.08196757474884245, 0.0852218210165205, 0.0885593167255624, 0.09192472450654823, 0.09529916146316156, 0.09878670659850246, 0.1023286354516014, 0.10598176840480959, 0.10962476715309538, 0.11332475607670922, 0.11708099148425027, 0.12089274869557866, 0.12467645658730045, 0.12860762541072332, 0.1326393736647159, 0.1366615710829917, 0.14073538588860318, 0.14483177544503031, 0.14901074280739662, 0.1532561552376902, 0.15752911505689968, 0.16185066933119835, 0.1662280204349777, 0.17064407232237014, 0.17507376143547188, 0.17958801175991299, 0.18414635513754837, 0.18871473854749385, 0.1933643201222268, 0.19803152971379806, 0.20276571013324382, 0.20753902729487206, 0.21240571928088436, 0.2172499397502378, 0.22206839100128828, 0.22700346507314947, 0.23197477282217982, 0.23700280112349167, 0.24204320481801142, 0.24711753905639627, 0.25223073795412815, 0.25737914053700817, 0.26259321913470274, 0.2678062728803294, 0.2729974347273931, 0.278286931595083, 0.2836064969241636, 0.2889168623004967, 0.29430015272136234, 0.29975912521828474, 0.3051889260149809, 0.3106474339651022, 0.31606915062897406, 0.3215909659597617, 0.3271174230433376, 0.3326868059311166, 0.33827734963038236, 0.3438862188052705, 0.3495186003290691, 0.35518399395900696, 0.36085444441453585, 0.3665447842027937, 0.3722284869645483, 0.3779599540707077, 0.383705284853935, 0.38946948115707714, 0.39524892993900756, 0.40107672337517697, 0.4068806690797301, 0.4126792161133293, 0.4185154709686514, 0.424363998938656, 0.43020332106297027, 0.4360767117588398, 0.44194593813751537, 0.4478379009466833, 0.4537366292481004, 0.45962082585435254, 0.46553392477530464, 0.47144042203774494, 0.477361833192809, 0.4832853541253374, 0.48920788286989314, 0.49513436700574587, 0.5010326600515921, 0.5069627160240218, 0.512890199570313, 0.5188509101966851, 0.52476725004162, 0.5306349209789973, 0.5365521434500536, 0.542462900665459, 0.5483822050779412, 0.5542764465869472, 0.5601193630803982, 0.5660037859048264, 0.5718768629610453, 0.5777226012010802, 0.583573525360769, 0.589400339816072, 0.5952245849703053, 0.6010334711574042, 0.6068523859856721, 0.6126257045226552, 0.6183420077866075, 0.624088537348438, 0.6298154259591563, 0.6355143565489659, 0.6412012503177622, 0.6468714581342412, 0.652513349825354, 0.6581323908473402, 0.6636967703299933, 0.6692718004610277, 0.6747992313633818, 0.6803225557832603, 0.6858166695051345, 0.6913043949939903, 0.6967356339516523, 0.7021036903792767, 0.707479321346248, 0.7128218756890371, 0.7181229989335681, 0.7233985788260964, 0.7286309891506508, 0.733836105377257, 0.7390040591562534, 0.7441083031130595, 0.7492032114794591, 0.7542677987075611, 0.7592794984073314, 0.7642499688289329, 0.7691862610157699, 0.774071110823073, 0.778907757185728, 0.7837063616083766, 0.7884599394566756, 0.7931262336378032, 0.7977925102304451, 0.8023933933647067, 0.806961404421267, 0.8114776077304985, 0.8159337572640071, 0.8203458440554633, 0.8247041091724268, 0.8290080041226361, 0.8332569391973951, 0.8374580573696617, 0.8415941833566363, 0.8456634634426116, 0.8496871560633142, 0.8535952661462222, 0.8575082307688063, 0.8613579621807275, 0.8651933859436663, 0.8689095396962713, 0.8725357206635479, 0.8761316513095083, 0.8796628041458245, 0.8830793704403431, 0.8864853405933114, 0.8898374211753248, 0.8931023067145557, 0.8962980428238759, 0.8994318927914878, 0.9024868023053001, 0.9054662186115282, 0.9083805108373009, 0.9112229020593564, 0.9140031333426238, 0.9166985539789404, 0.9193285504643729, 0.9218758868865116, 0.9243490429473669, 0.9267161865841239, 0.9290426554466469, 0.93131428950468, 0.9334810824234345, 0.9355701340177417, 0.9375523047314717, 0.9394875271919191, 0.9413130137131204, 0.943088962278848, 0.9447813065934099, 0.9464209601796587, 0.94794165372857, 0.9493514288555892, 0.9507103621860721, 0.9519842885079717, 0.953224758815543, 0.9543213934690301, 0.9553041000945877, 0.9562382688041143, 0.9570865144045071, 0.9578277772674194, 0.9585057763659109, 0.9590982845298875, 0.9595996567427455, 0.9600128105477317, 0.9603557036020836, 0.9605896246965586, 0.9607384361593742, 0.9607963293688607, 0.9607660901388894, 0.9606319100857085, 0.9604265838941346, 0.9601470593594842, 0.9597602346822844, 0.9592844309096187, 0.958732430999998, 0.9580765680025438, 0.9573216886372549, 0.9564896361013493, 0.9555680200167848, 0.9545153893870045, 0.9534198534865904, 0.952253166787694, 0.9509716714816757, 0.9496002426842388, 0.9481727427008172, 0.9466178003139849, 0.944988396596529, 0.9432569688367416, 0.941438846389027, 0.9395080955558006, 0.9375197984481316, 0.9354408161567455, 0.93327698686539, 0.9310256026004833, 0.9286508080064347, 0.926230108931768, 0.9238065238328893, 0.9211990911200583, 0.9185095962704313, 0.915683694120826, 0.9128371286044012, 0.9099109540365047, 0.906894843019087, 0.9037956131599989, 0.9006346409768212, 0.8973685518054993, 0.8940536093687784, 0.8906242799596664, 0.8871178906169093, 0.8835192716449407, 0.879861894234394, 0.8760631426246582, 0.872261352169742, 0.8683806818317323, 0.864458654592426, 0.8604194212932901, 0.8563562670950846, 0.8521654727969531, 0.8479061409540567, 0.8435270262534288, 0.8391388681628954, 0.8346785086187705, 0.8301526046507347, 0.8255592478371301, 0.8209669436875221, 0.816233709312899, 0.8113911491540334, 0.8065445357636384, 0.8016364129067985, 0.7966446647853437, 0.791620052141732, 0.7865077483132275, 0.7813697418123613, 0.7761737573738825, 0.7709783941682509, 0.7656641094648795, 0.7602661768799978, 0.7548572646577282, 0.7493986855200586, 0.7439229390023542, 0.7383653730218618, 0.7327408528603545, 0.7271001111740913, 0.7214167967383381, 0.7156845682530336, 0.7099213779078806, 0.7040884048387713, 0.6982532338909142, 0.6923806262156742, 0.6865344868005295, 0.6805843907593995, 0.6745278483620526, 0.668531229505576, 0.6625038891050731, 0.6565202168355743, 0.6504278774061834, 0.6443403133777497, 0.638203651986503, 0.6320497499748259, 0.6258460109382809, 0.6196651469825533, 0.6134219251239207, 0.6072169680740062, 0.6009966771418894, 0.5947914437122034, 0.5885425687368743, 0.5822493217470415, 0.5759903706591073, 0.5697244244379985, 0.5634896076867831, 0.5572106675650852, 0.5508804889649418, 0.5446106812249014, 0.5383414910136365, 0.5321007275915436, 0.5258351964692715, 0.5195747578282156, 0.5133264994623876, 0.5070889315655854, 0.5008973019002926, 0.49468160147797235, 0.4884521284593543, 0.4822762415060888, 0.4761184999833569, 0.46999601672806096, 0.4638773160164441, 0.4577797307477617, 0.4517101783970791, 0.44566701032481076, 0.43961540913699193, 0.4336338959073411, 0.42768620633622445, 0.42176304123594344, 0.41587219582028273, 0.41000749058049274, 0.4041870006512407, 0.3984108325540504, 0.3926640243854194, 0.38695728340943497, 0.38131274895450384, 0.37568776840456564, 0.3700641919371979, 0.36453681058080295, 0.3590547466191341, 0.3536272973380193, 0.34823942227535687, 0.3429043287006679, 0.3376178340743635, 0.3323842895392418, 0.327197161182906, 0.3220741726934105, 0.31700213392704774, 0.3119932669083469, 0.3070426207434855, 0.3021643233987153, 0.2973319850341616, 0.29262675851032127, 0.2879119501612846, 0.2832055010424333, 0.2786344590721105, 0.2741288375532449, 0.2696429843884369, 0.26527694254867407, 0.2610127436304126, 0.2567745422089371, 0.2526063766937741, 0.24850646221529768, 0.24448107856828266, 0.24050719026292328, 0.23662958079581894, 0.2328244520066171, 0.22905897390915617, 0.22540550915787083, 0.2218482834133344, 0.21833869031049336, 0.21490516016857972, 0.21151722696056718, 0.20824152699089538, 0.20509620708143522, 0.2019663539723475, 0.19891692119567256, 0.1958703658239611, 0.19299200936901328, 0.19023930421630453, 0.18750835893714599, 0.1848579925001204, 0.18228059197921573, 0.17979280070459133, 0.17738811503650712, 0.17506115426078192, 0.17281506856996615, 0.17062917271843836, 0.16854751504424906, 0.1664989521928769, 0.16458269782705554, 0.162743678984327, 0.1610236987546368, 0.1593349327869535, 0.15769290310800535, 0.15616896777879097, 0.1547230588611212, 0.1533810489286439, 0.15208778616235336, 0.15090481635411065, 0.1497656472488677, 0.148706580985547, 0.14767251669747877, 0.14677836979993023, 0.14599278030004248, 0.14524388487460788, 0.1445711543756381, 0.1439583897072412, 0.1434379496160286, 0.14300889023281163, 0.14263207709666484, 0.1423283220506383, 0.14206574959857618, 0.1419096209264646, 0.1417912865619783, 0.14177622840657686, 0.14182705904488832, 0.14195888015752378, 0.14213814577913195, 0.14236711703387925, 0.14267806925697454, 0.14305182363570748, 0.1435368594778333, 0.14402778224090865, 0.14456900360400599, 0.14518679137641408, 0.1458645771968286, 0.14661416009830516, 0.14740685035774645, 0.14825161235816917, 0.14915817711272064, 0.15011914135640553, 0.15110737456403897, 0.15217669957765886, 0.15329265849363014, 0.15445971331860267, 0.15567372510139163, 0.15693360768538717, 0.15823824414521875, 0.15959166792514656, 0.16098169427932557, 0.16241325101346318, 0.16385400335703476, 0.16536875053273797, 0.16692981192732392, 0.16851410595542693, 0.1701327814482457, 0.17180274168057355, 0.17348419338706494, 0.17511702614180397, 0.1768704979858331, 0.1786482402236936, 0.18044945678669713, 0.18227327073983057, 0.18418605884593528, 0.18604364112044974, 0.18792456228831048, 0.18979867268250875, 0.19172489821682448, 0.19368864670773078, 0.19564449190215996, 0.19761554619402324, 0.19957694458380767, 0.20157669908353318, 0.2035520555020329, 0.20557326638928916, 0.20759918308870115, 0.20962095995516636, 0.21165399932804224, 0.21374752144510745, 0.21577376189566175, 0.21780200048645654, 0.21980727424403051, 0.22183751847560074, 0.22384028009197368, 0.2258637480481904, 0.2278790018244793, 0.2299263083502255, 0.23191638760552372, 0.23389186726624298, 0.23586223085217645, 0.23781986127395618, 0.23974780558601402, 0.2416777142053837, 0.2435872642262631, 0.24548075353894513, 0.24735392217723576, 0.249226320712178, 0.25105274312348447, 0.2528073430064739, 0.25459344270857476, 0.25635159542919567, 0.25808096422882093, 0.25978069454567587, 0.2614887602900486, 0.2631216878794375, 0.2647245256586881, 0.2662675889242008, 0.2678102851921958, 0.2693385204612077, 0.2708073831799938, 0.27224051690200074, 0.2736265515873071, 0.2749865314196913, 0.27627877251093086, 0.2775630072364659, 0.27880473303715303, 0.28000855952784, 0.2811628969030167, 0.2822965934609257, 0.28335946782087923, 0.28437846266487676, 0.28532429833157, 0.2862567835755789, 0.28715963302597947, 0.2879938370663319, 0.2887803706267931, 0.2895160449983618, 0.2902057945615848, 0.29086413900495217, 0.29145203800569613, 0.29199045666100093, 0.2924062993304811, 0.29285319773796004, 0.29327080097693453, 0.29360416548411905, 0.29388400090262745, 0.29407390734166156, 0.29425083104513866, 0.29437694408463483, 0.2944413981262043, 0.2944504567646215, 0.2943938397402926, 0.2942936402228612, 0.29419722919971314, 0.29397810341602165, 0.2937068275589199, 0.2933105463015926, 0.29294314531886056, 0.29256525607621625, 0.29207816234934325, 0.2915373603546714, 0.2909402456575489, 0.2902923438377607, 0.28959064563969134, 0.2888352580906369, 0.2880263184106866, 0.28716917272483616, 0.28625300517104, 0.28528157691600853, 0.2842606079484206, 0.2831872835160792, 0.2820877996362343, 0.2809074235862387, 0.2796408846263524, 0.2783654518115129, 0.2770773299805153, 0.27569449927539696, 0.27426347985889904, 0.27277420101841976, 0.27124902714729293, 0.26966573903071295, 0.2680468784390084, 0.2663807453171287, 0.2646265708309955, 0.2628731383062669, 0.261110994536856, 0.25925859515714594, 0.2573629006333626, 0.25540647971986663, 0.25342859393239336, 0.25138524058615513, 0.24932688084792948, 0.24722686009015085, 0.24515618916441093, 0.24296727165266424, 0.2407205405392925, 0.23846603593295143, 0.23617673924479227, 0.23384825396661293, 0.2314924016178463, 0.22910907021883858, 0.22668814526107028, 0.22423666580005946, 0.22178141517167368, 0.2192682382685788, 0.21679083179452485, 0.21421777984533594, 0.21162335448644684, 0.2089664423670601, 0.20633556069078968, 0.20367444908357762, 0.2010005423504483, 0.19830559971961395, 0.1956657513154279, 0.1929223645434356, 0.19020156260303023, 0.18742673245106561, 0.1846413073365351, 0.1818404568302778, 0.1790356477672311, 0.1762213044351426, 0.1733981016189125, 0.1705667840810943, 0.16779807451526874, 0.16494416296864786, 0.16211194438658424, 0.15925225193333425, 0.15639314234492963, 0.15359198835873064, 0.1507281615636241, 0.14788258449557481, 0.14502795805615473, 0.1421799566012869, 0.13936743944149543, 0.13653032690876438, 0.133744326827107, 0.13092178971211715, 0.12811226950703558, 0.12533939041527428, 0.12255403685201452, 0.11977137075870835, 0.11701938023805744, 0.11428331555252806, 0.1116157231253643, 0.10890729910769929, 0.10620204117439787, 0.10353900495282016, 0.10089735713339419, 0.09834784020058683, 0.09574265877141162, 0.09319130495176532, 0.09063910493573213, 0.08811716757488461, 0.08564916097880125, 0.08318598911606162, 0.08074281092498119, 0.07834759063650784, 0.07598553535721651, 0.07371689900102957, 0.07141578133798186, 0.06917411653678573, 0.0669481965100436, 0.06476294807879468, 0.06267049789254031, 0.06056114027866714, 0.05854581362790323, 0.05652003717080904, 0.05454223705240776, 0.052601994500249126, 0.05072140099138964, 0.04885990019149583, 0.047078417939910785, 0.045343698008832964, 0.04371342701033416, 0.042067206015461996, 0.04046280325915001, 0.03892255489010561, 0.03743458567284011, 0.03599940540030274, 0.034617557505487624, 0.03328961197554482, 0.03201615899637095, 0.030797803271511586, 0.029699896003072355, 0.028585397807455913, 0.02751594800238898, 0.026524683320243016, 0.025593388518844865, 0.024761239153461092, 0.023946000280631555, 0.023209523611708513, 0.02251885670298138, 0.021892508792655786, 0.02132017543897783, 0.020823986188499653, 0.020425502226858527, 0.02005340654180276, 0.0197477922564911, 0.01954493989998617, 0.01936783166017097, 0.019218014216618028, 0.019183434958747303, 0.01921500412555428, 0.019310421906180736, 0.01947548610565874, 0.019704835054816714, 0.020004281668104733, 0.020371060941789424, 0.020888343018893633, 0.021380216205243937, 0.02190869405376738, 0.02255045795229323, 0.02326229400343375, 0.024010543280851313, 0.024866804410206875, 0.025799061055286805, 0.02679109330122498, 0.027852355056701524, 0.029001146300359406, 0.03019907343667649, 0.03146511060174336, 0.03280472390415358, 0.03421480635072906, 0.035692738351725414, 0.03724398601573907, 0.03888097266243319, 0.040570617752788286, 0.042331237014461516, 0.044105663998798075, 0.04601484012531626, 0.04798860656321264, 0.05003272286091829, 0.05214431786743147, 0.054414177475630134, 0.056649677406163064, 0.05893991504824407, 0.06132270486341079, 0.06377592718133764, 0.06628354684355973, 0.06887812068982795, 0.07152009234625463, 0.07425318149181084, 0.07705255254809519, 0.07988954234644498, 0.08282451300249029, 0.08586238712895365, 0.08892053707832122, 0.09204481067214047, 0.0952062771161713, 0.09846505310066461, 0.10178181502248747, 0.10516733670958087, 0.10861521868146753, 0.11208635161195371, 0.1156630270039537, 0.11932745805065127, 0.12301901751119744, 0.12677126436922084, 0.13056565588801583, 0.13444029178440697, 0.13834996025881344, 0.14234386883901226, 0.14639406733988483, 0.15053138934547747, 0.15468946128395208, 0.15890726994136212, 0.16317866288845648, 0.1675060444974923, 0.17189390430169668, 0.1763305328731546, 0.18078768791186264, 0.18533620049571328, 0.18993550942105344, 0.19453852098098054, 0.19924383140526428, 0.204006128563607, 0.20880318208967424, 0.2136469626966075, 0.21853704270946436, 0.22347294479354146, 0.22842307295892958, 0.2334529405792491, 0.2385044856607014, 0.24362137592273883, 0.2487786696038094, 0.25402264482471165, 0.25925378479444744, 0.2644697755693274, 0.26979086066338, 0.2751487708911634, 0.2805767233379257, 0.2860026298381949, 0.2914553824708145, 0.2969561297911949, 0.30249173719158795, 0.30803808930827914, 0.3136439165713046, 0.31927822815441304, 0.32494586340511106, 0.33064305866381044, 0.3363276708868386, 0.34208706029842945, 0.34791548441043507, 0.353718876226949, 0.3595487722041, 0.3653731680256409