0.02666988619266372, 0.026187588505113726, 0.02571677787215298, 0.02527458539828848, 0.024892480259763983, 0.024543291102813357, 0.02427601855773246, 0.023971651411021713, 0.023672378587596115, 0.023412940425287004, 0.023169113635272374, 0.022953577190319843, 0.022732571070100894, 0.022504324797830065, 0.02230579097152987, 0.0221147102604707, 0.021927511905459975, 0.021750216686241122, 0.02165706065304883, 0.021482321890527532, 0.021318337034841657, 0.021107798060179855, 0.020971654939912213, 0.020842528720722158, 0.020720986902518498, 0.02060765075236046, 0.020467208637213383, 0.0203768532475852, 0.020303752923841904, 0.020229803758208247, 0.020166633881101348, 0.0201481102234361, 0.020104976797999007, 0.02003210478763145, 0.020025668145455155, 0.020033046055624216, 0.02005216112509029, 0.020090262796994815, 0.020132644819672887, 0.020205619107641147, 0.0202957744770191, 0.02045789871251829, 0.02057802065035905, 0.020687707017009404, 0.020857335306102134, 0.021048177739485828, 0.021296756803876424, 0.021527101091987393, 0.021752281547358338, 0.022036247861546114, 0.02234376985700391, 0.022687320586815506, 0.023041869545844744, 0.02338608054668521, 0.02379680356599205, 0.024231851957996313, 0.024658897536415526, 0.025148680408154194, 0.025728746003760555, 0.02625967712113532, 0.02682024321367828, 0.027356679247522074, 0.02798395281112787, 0.028686459305283168, 0.029362898383731593, 0.030070656316944576, 0.030777004127361115, 0.03155233477976232, 0.0323189686391752, 0.033160353004033666, 0.0340309597632845, 0.034979615084443826, 0.03590513156561947, 0.03681703169066735, 0.03781765379948142, 0.03885062853937784, 0.03992570106597393, 0.04102446207124664, 0.04215523221224113, 0.04332496839112429, 0.044530691046961175, 0.045751990168697035, 0.047034049216309354, 0.04830463102484959, 0.04966643472822728, 0.051063406704970594, 0.052505566583654635, 0.053974741768131405, 0.05549444460186356, 0.05703992844207352, 0.05862608156171786, 0.06024148277268825, 0.061912177120935934, 0.06359452819276823, 0.06535288387132951, 0.06715236131774321, 0.06905070314389516, 0.07092751513448473, 0.07285083419398448, 0.07482083594385472, 0.07683771218334783, 0.07881772779260475, 0.08093959667458092, 0.08313426125172277, 0.08533888538878492, 0.08758975680314572, 0.08983643609273122, 0.0921877862382269, 0.09465894548603364, 0.0970913822278041, 0.09957448780135933, 0.1020453942896795, 0.10463807086225975, 0.10726917997695554, 0.10995846329515709, 0.11269584390608356, 0.11542793655953998, 0.11827000632908963, 0.1212156633633957, 0.12414463279236959, 0.1271250203435998, 0.13012104911993552, 0.13320938837751728, 0.1364075999556951, 0.13958859896063575, 0.14282364335233314, 0.146040602519626, 0.1493923021944846, 0.15279649361085457, 0.1562472245612177, 0.15974839565442223, 0.16330327411586526, 0.16690570018577577, 0.17049043212530215, 0.17420418506873095, 0.1779654726489387, 0.18186480112241524, 0.18571139045611404, 0.18954601270650978, 0.19350847450035996, 0.19752035162697865, 0.20163271645125874, 0.20573724520106246, 0.2098642208091908, 0.2140769250330005, 0.21833944319610774, 0.22264855797810545, 0.22701039584144742, 0.23139115674609304, 0.2358543111485596, 0.2403641011308559, 0.24492643074409162, 0.24952840317351518, 0.2541439333269863, 0.2588428497671739, 0.26358582197750485, 0.268441697072758, 0.2732636824089248, 0.2780581370983844, 0.28298358822327047, 0.28795057803897084, 0.2929678878720069, 0.2980161166891416, 0.3031145579991272, 0.30824362444277703, 0.3134134470253791, 0.3185904330461197, 0.323844062448309, 0.3291346686939093, 0.3344618225627995, 0.33982503826244737, 0.3451878028135381, 0.35062602749898375, 0.3561055317466046, 0.36160680626707636, 0.3671760018492957, 0.372736019998465, 0.3783287487919151, 0.3839412037621693, 0.38959788169937554, 0.3953075728752249, 0.4010183533305516, 0.4067576380407392, 0.4125332612598099, 0.4183249439100093, 0.42406122712828825, 0.42991301006780136, 0.4357833604466146, 0.4416987052515722, 0.44760104168479287, 0.4535545552671385, 0.45948814469248767, 0.4654397981321313, 0.47138722760185636, 0.47737376045462393, 0.4833792843803669, 0.4893899301205521, 0.4954116499347568, 0.5014402420427596, 0.507480866725028, 0.5134657978133066, 0.5195276955141531, 0.5255908859749427, 0.5317175934616458, 0.537773139753296, 0.5437441598747511, 0.5498140808114836, 0.5558786543228205, 0.5619611294509088, 0.568009690546435, 0.5740368176357582, 0.580073232096778, 0.5861000174943322, 0.5921220656559271, 0.5981254774086624, 0.6040681862419216, 0.6100509139825102, 0.6160156347342081, 0.6219374236954671, 0.6278662684882592, 0.6337727340680626, 0.639655883846546, 0.6455147075204748, 0.651408087055273, 0.6572073913239258, 0.6630063216372251, 0.6687521664933476, 0.6744715950370113, 0.6801297649471573, 0.6857949770079014, 0.6913694914365087, 0.6969729496725829, 0.7025365139856692, 0.7080891444318904, 0.7135660200665952, 0.7189864834985871, 0.7243810066586327, 0.7297304550139105, 0.7349945634040199, 0.740254894699571, 0.7454730305147046, 0.7506288233343789, 0.7557318379040733, 0.7608378496986925, 0.7658245255152507, 0.7706860410234097, 0.7755736829618384, 0.780400699439611, 0.785148054046638, 0.7898529130331743, 0.7945378623836976, 0.7991062890378993, 0.8036103433421564, 0.807979653292842, 0.8123594385742715, 0.8167297331609563, 0.820955856866994, 0.8251114017999325, 0.8291410015201726, 0.8331580267924792, 0.8370823259346363, 0.8409448855972124, 0.8447270657574855, 0.8484640262958424, 0.8520784227608659, 0.855599933927587, 0.8590528778634499, 0.8624219130661824, 0.865685011436854, 0.8688857645227164, 0.8720103276823554, 0.8750323646226692, 0.8779652142578322, 0.8808049391109763, 0.883556988343956, 0.886270869115836, 0.8888309662427553, 0.8913002415355602, 0.8935874906760939, 0.8958827647388182, 0.8981385410740773, 0.9002269866977107, 0.902218642318699, 0.9040586794444797, 0.9058610225954612, 0.9075430908843051, 0.9091428286339929, 0.9106386468635497, 0.9120363594663244, 0.9133230123896909, 0.9145714286258704, 0.9156410807843148, 0.9166096815104723, 0.9174554369043626, 0.9182222344855764, 0.9188546114275977, 0.9194158830643628, 0.9198702063244905, 0.9201814974715009, 0.9204261563443633, 0.9205855386077785, 0.9206088646905183, 0.9205246966850382, 0.9203000521657254, 0.9200050642292763, 0.9196217483797993, 0.9191057925435201, 0.9184823132323019, 0.917757430919777, 0.9169185391094468, 0.9160148625323274, 0.9149572914589477, 0.9137956267931674, 0.9124038184988381, 0.9110495447500403, 0.9096948341843089, 0.9081049006678112, 0.9064119374956229, 0.9045710534931358, 0.9026780154232431, 0.9006468764991175, 0.8985483904237389, 0.8963442041202828, 0.8939782820280181, 0.8915726548174051, 0.88912981315098, 0.8865044845566526, 0.8837794980621692, 0.8808656018793695, 0.8779547530799455, 0.8750132848166817, 0.871889691470666, 0.8686704876758474, 0.8653534760293327, 0.8619458608357402, 0.858459945568993, 0.854864769607984, 0.8511790003029718, 0.8474124807141854, 0.8435469795883498, 0.8396120560330238, 0.8355703666865318, 0.8314441381516183, 0.8270993234315629, 0.822823712113421, 0.8185456909017604, 0.8140825112195792, 0.8095390241402731, 0.8048385547378409, 0.8001481437816935, 0.7953799333306582, 0.7905295182457786, 0.7856023595473535, 0.7806632583886556, 0.775580151723623, 0.7704352622588054, 0.7652170867399088, 0.7599340040690219, 0.7545513199587182, 0.7491468572473022, 0.743646463223019, 0.7381219560981754, 0.7325360348846744, 0.7268876653433526, 0.7211851567183069, 0.715426873133039, 0.7096147266658416, 0.7037506084409332, 0.6978423877373409, 0.6918791736700803, 0.6858249347946384, 0.6797770822426698, 0.6736842245846324, 0.6675874815184404, 0.6614060824634717, 0.6552001694809803, 0.6489459582767568, 0.6426593531279509, 0.6362760356879965, 0.6299379078489772, 0.6236376009744667, 0.6172307149676404, 0.6107739795747641, 0.6043263407841447, 0.5978574927306518, 0.5913452957077321, 0.5848425882049539, 0.5783468281043825, 0.571809042264803, 0.5652595905373028, 0.5587392262210753, 0.5521668580614693, 0.5455423893384643, 0.5389692862133171, 0.5323923321917746, 0.5258614192008307, 0.5192764568351713, 0.5125911308869922, 0.5060300469317974, 0.4994706399090141, 0.4930202225789297, 0.4864579796522178, 0.47990722359512783, 0.47337564499417645, 0.46686105484216656, 0.4603079083455278, 0.4538387696595024, 0.44742971535581827, 0.440993438533184, 0.43458147064464897, 0.42814436863526184, 0.4217920293275011, 0.41546570965652235, 0.40916734271429395, 0.40289880680550627, 0.3966889094456845, 0.39048205427688043, 0.3842729056870057, 0.3781458052854084, 0.37205611817311507, 0.36604156802519944, 0.36002734902640116, 0.35403365893214017, 0.3481127949706606, 0.3422376813463727, 0.33643676360888464, 0.3306540934938992, 0.3249679336490202, 0.3192837953208362, 0.3136559814688777, 0.30807025566692814, 0.3025592777266697, 0.29701919459676523, 0.2916358297183255, 0.28630732586108343, 0.28108629639758903, 0.27586592544064853, 0.2706749737564543, 0.26558454246284013, 0.2605565859077809, 0.2555952914717984, 0.2506954133085909, 0.2458915468274378, 0.2411209354991156, 0.23641997317127322, 0.2317923105519523, 0.2272322089614235, 0.22267487985905138, 0.21826751868578775, 0.21392914191594922, 0.20969681472868243, 0.20549503965520532, 0.20138526277920563, 0.19732978312364746, 0.1933503812611182, 0.18942939671589432, 0.18560538608399504, 0.18185436730071666, 0.17818312510927073, 0.17458848361906834, 0.17104081740020968, 0.16760418627063065, 0.16424640637523877, 0.1609615736281779, 0.15775363453847846, 0.1546378900843791, 0.15158271822015376, 0.14868698403691716, 0.14577858875538593, 0.14295323862044723, 0.14012329489310962, 0.1374729744002258, 0.13488686010745127, 0.1323905672332359, 0.1299699699679393, 0.1276161678592096, 0.12534831122542295, 0.12323666985333843, 0.12110909727162104, 0.1190612221241762, 0.1170982362020145, 0.11520660821812517, 0.11340465641815745, 0.11166608323573576, 0.11000428714617863, 0.1083584432345826, 0.10685520121744732, 0.10543481690334455, 0.10407145186995165, 0.10277889525251159, 0.10158658791663636, 0.10043020753402249, 0.09926665186529172, 0.09826078297133671, 0.09731953865072217, 0.09647263175831142, 0.09565596288985373, 0.09485358979129883, 0.09417314048686566, 0.09355356397779628, 0.09301243798531322, 0.09251101824713995, 0.09205801023819594, 0.09167812196969631, 0.09135633226927765, 0.09112482857622882, 0.09091264421380622, 0.09072190838189265, 0.0906279151963981, 0.09058690905371493, 0.09063692940875834, 0.09069412544864723, 0.09073161624343568, 0.09090102821545556, 0.09111591121845787, 0.0914684163845059, 0.09176007115684481, 0.09201292259237005, 0.09241012269889429, 0.09284718385583104, 0.09330217969812735, 0.09381873980004343, 0.09442496756019352, 0.0950051987603337, 0.09562227002710415, 0.09627471719830366, 0.09696108195824948, 0.09769490133718826, 0.09844285455093667, 0.09922122691979869, 0.09995051779688681, 0.10079493841822851, 0.10169677307097472, 0.10257865250722346, 0.10348218693792041, 0.10442708609298444, 0.10536743820213369, 0.10624581816202291, 0.10723287133554746, 0.10823141626260083, 0.10925564542611739, 0.110272820299486, 0.1113746904702202, 0.11240078831494546, 0.11343861642259301, 0.11449541295209596, 0.1155503509321403, 0.11655545306919264, 0.11763016270859965, 0.11870549500805808, 0.11975035145158922, 0.12082734969013294, 0.12187291719698644, 0.12294352254067484, 0.12400631982455129, 0.1251834716293647, 0.12621280726641326, 0.12720585674754156, 0.12823087211695355, 0.1292470761880526, 0.130235051153419, 0.13123166136385023, 0.13218731322509178, 0.13315822469462, 0.13411135467671523, 0.1350458068780288, 0.13596067932242056, 0.13687905024145294, 0.13774901549414956, 0.13859803310912014, 0.13945498992992827, 0.1402550755201344, 0.1409937367371811, 0.14175260234178186, 0.14248439925474843, 0.14319430624842022, 0.14386877008931093, 0.14457105233654902, 0.14517920970671733, 0.14575980240015451, 0.14624564347546795, 0.14677582631749533, 0.14723530336920615, 0.14770009386085534, 0.14825308787744174, 0.1486263539844983, 0.14896857085211276, 0.1492724856437029, 0.14954969608504864, 0.14977706791263218, 0.14998555978884448, 0.150156608518436, 0.15031355364289453, 0.15040480620502447, 0.15050015872191141, 0.15050967913965885, 0.15048238556422197, 0.15039041015583415, 0.1502903425711776, 0.15018256404496466, 0.14999656711011508, 0.14977101909273705, 0.14949038668839107, 0.14918608108376616, 0.14892093147820254, 0.14852261915168463, 0.14808671615907254, 0.14766643295966034, 0.14714639579023964, 0.14657491684974105, 0.14598303026932444, 0.14535232054931424, 0.14470633922954892, 0.14399376639620778, 0.14328171611043877, 0.1424869949271561, 0.14165547830834296, 0.14075975878833033, 0.13985691254457583, 0.1390137834986764, 0.13802014563885978, 0.13699320451882943, 0.13588747495227477, 0.13479821999944847, 0.1336780403643528, 0.1325144594413574, 0.13131491241231805, 0.13011273770702766, 0.12883823841823244, 0.1275638736643437, 0.12621979358446242, 0.12484534996782119, 0.12342271862729007, 0.12199041124917191, 0.12059046516604498, 0.11908958732034972, 0.1175628610917226, 0.11602845263771386, 0.11444840006220752, 0.1128503554074243, 0.1112218979104065, 0.10957054450891252, 0.10785778876296037, 0.10616705478811514, 0.104554811245237, 0.10280532316694214, 0.10104015976345805, 0.09921458638879126, 0.09742457910385291, 0.0957133539498552, 0.0938778355743434, 0.09203243205441378, 0.09015938457356974, 0.0882972998431504, 0.08644036980189229, 0.08455744234078938, 0.08266704054692484, 0.08075192039815057, 0.0788511483946028, 0.07695033236888854, 0.07503780855474307, 0.07312178658947138, 0.07131428883630822, 0.06938057752655309, 0.0673810337026821, 0.06546894381507072, 0.06355964385032419, 0.06167523443674281, 0.059772239056824925, 0.057900632100048074, 0.056010444391000745, 0.054131107589631126, 0.052305504864957865, 0.05044535533477047, 0.04859830827616721, 0.04677145710505427, 0.044962052837369884, 0.04315299676615055, 0.04138348354142411, 0.039702188879874284, 0.03796367419086781, 0.03625068070264077, 0.03458785454296593, 0.0329249406089492, 0.031192184136607418, 0.029600637993138976, 0.02803407090554088, 0.026554063170035582, 0.025034699837960847, 0.023632369015700254, 0.02216959918299549, 0.020746703925301025, 0.01931611004154092, 0.017980307311771544, 0.01667116050558976, 0.015415210076742826, 0.014199334587685927, 0.013060678323902699, 0.011923910515803106, 0.010805755020698176, 0.00976445191316932, 0.008768987752965333, 0.00779351297924337, 0.0068965222299596975, 0.006104177691084486, 0.005296669341305822, 0.004542625837599537, 0.0038338251083498203, 0.0031901808104856707, 0.0026558219667670744, 0.00211688562715129, 0.001638066501931766, 0.0011328676238493189, 0.0007866474862814989, 0.0005810635297178813, 0.00033887806034723706, 0.00016055398112427974, 4.955470008697433e-05, 0.0, 3.394064815905068e-05, 0.00011364016585262688, 0.00026089910202987965, 0.00046112503327409247, 0.0007466152128324232, 0.0010970892095367635, 0.0015195010462136604, 0.002010880388027831, 0.002592804413044983, 0.0032212286023812404, 0.003867571942037222, 0.004646961281276249, 0.005495965628256729, 0.006421396198828861, 0.00741126098304967, 0.008506329613255193, 0.009637080003482542, 0.010843065577236423, 0.012148517392886674, 0.0135026754621074, 0.01488916046536234, 0.016403616899619562, 0.01799289797812237, 0.01964241207455019, 0.021384388231514742, 0.023252377819545013, 0.02513840151771781, 0.027103066260505654, 0.029161238835741933, 0.031280923765861425, 0.033455741186649145, 0.035736442773396125, 0.0380944285825184, 0.04053865175282047, 0.043049925141201185, 0.045668778077282916, 0.048331281554264784, 0.05107269240597273, 0.05388056725489941, 0.056779966695203896, 0.059753282360849945, 0.06280656126358401, 0.0659359206556274, 0.06914103556243299, 0.07242156490519235, 0.07584610217213841, 0.0792676499104274, 0.08276735282347418, 0.08627828883785633, 0.08993978476381607, 0.09366997000545686, 0.09747490557040107, 0.10135069513327842, 0.10534494171687901, 0.10935524620455342, 0.1133809328193227, 0.11754226318514485, 0.12177103106098927, 0.12610882646622262, 0.1304659703237806, 0.13489161598924776, 0.1393849012695744, 0.14394496264759707, 0.1485349585607715, 0.1532305153043735, 0.15810213255196615, 0.16290696986920714, 0.1677791038965333, 0.1726419891770552, 0.17765347287588443, 0.18273545807660613, 0.18786164612051923, 0.1930783703440549, 0.19831456239812417, 0.2036082625148062, 0.20892226159629415, 0.21433184339821504, 0.21984423199686007, 0.22535015967104047, 0.23090897396169982, 0.23647135371970202, 0.2421379688531808, 0.24791374781255324, 0.2536639197776611, 0.25946200332412234, 0.2652465743771124, 0.27114369833004426, 0.2771320343028325, 0.28310231667322255, 0.289113883091339, 0.29511439419395374, 0.30121086543331416, 0.30733269340590164, 0.31349808372677773, 0.3196954417972108, 0.32595981862771345, 0.332213749280365, 0.3385047656133983, 0.34481878656529097, 0.35116157420742405, 0.3575587357262792, 0.3639515318696515, 0.3703705110489177, 0.37681410468609955, 0.38328077703707875, 0.38976902200157415, 0.39627736023487226, 0.40270840358936005, 0.409264712951278, 0.41583142712994253, 0.4224558855668912, 0.4290353836153361, 0.43562586479981347, 0.4422260989587439, 0.44883484540004037, 0.4554238733288161, 0.4620492990039436, 0.468722920670619, 0.475348064258449, 0.4819768258230705, 0.4885417816674504, 0.49518172990922615, 0.5018472272439312, 0.5084736466045882, 0.5150955139311071, 0.5216966310412137, 0.5283076567192065, 0.5349066467625399, 0.5414988729158096, 0.5480796702866663, 0.5547138834879604, 0.5612601431795986, 0.5677473435623659, 0.5742758100763339, 0.5807872074127858, 0.5872533832478388, 0.5937305435903872, 0.6002215936830091, 0.6066490952772504, 0.6130546304193517, 0.6194489247345963, 0.6258052354523822, 0.6320705681035398, 0.638383872650108, 0.6446658909716397, 0.6509608888317137, 0.6571725048302931, 0.6632991848823566, 0.6694545184803327, 0.6755735571111863, 0.6816256425130678, 0.687673811587035, 0.6937478273509639, 0.699706922700959, 0.7056285229199649, 0.7115114873902362, 0.7173547058739119, 0.7230971396862105, 0.7288652336125595, 0.7345870596167073, 0.7402800899611429, 0.7459055272292201, 0.7514630808908009, 0.7569966306039289, 0.7624806148094923, 0.7678724875618262, 0.7732609034787414, 0.7787125409944551, 0.7839785017581838, 0.7891967204514507, 0.7942549659978138, 0.7993878802361261, 0.8044601417169492, 0.8094779360275767, 0.8144374840176773, 0.819305560547755, 0.8241520050031199, 0.828979477016601, 0.833698655287148, 0.8383590461670775, 0.8429031805342863, 0.8474516745445165, 0.8520176124278378, 0.8564288384516127, 0.8607809904784437, 0.8649863562634581, 0.8692290797565092, 0.873354704151034, 0.8774716609547897, 0.8815196948605751, 0.8855291678961732, 0.8894366305074255, 0.8933377179824412, 0.8971048543001793, 0.9008088393526225, 0.9043831138571796, 0.9079673634820048, 0.911432111703498, 0.9148857839560859, 0.9182681387106104, 0.9216605341928535, 0.9248911970570886, 0.9279691971944922, 0.9310789926566148, 0.9341173979917433, 0.9371027608145733, 0.9399971408777105, 0.9428340657246259, 0.9455881189564836, 0.9482735511120574, 0.9508783345613682, 0.9534279385387009, 0.9559471326581014, 0.9583531276221755, 0.960692093689866, 0.9629308250024575, 0.9651392582761419, 0.9672452733697239, 0.9693191508862314, 0.9713220547564003, 0.9732514183146926, 0.9751140211729864, 0.9768617321989932, 0.9785905622200373, 0.9802477035748759, 0.9819028251599202, 0.9834099668792804, 0.9848272975499373, 0.9862058322129085, 0.9875172582644808, 0.9888008215058692, 0.9899739284860221, 0.9909840229201031, 0.9920414563539274, 0.9930292668318293, 0.9939663106906785, 0.99481515065693, 0.9956038151613679, 0.9963201274056627, 0.9969717302789224, 0.997529132110635, 0.9980565606348082, 0.9985729996705, 0.9989644128995014, 0.999295292883304, 0.99950290180925, 0.9997213597934965, 0.9998764949109733, 0.9999691173315732, 1.0, 0.9999758791224237, 0.9998847171576796, 0.999746283858236, 0.9995356986100838, 0.9992677492762595, 0.9989069623455024, 0.9985303416488567, 0.9981138430624096, 0.99762002305538, 0.9970709284587084, 0.9964251937140063, 0.9957726668373234, 0.9950733055850166, 0.9943089172108549, 0.9934910259633475, 0.992647391252687, 0.9917213933375765, 0.9907066988387755, 0.9896866780197003, 0.9886157517802864, 0.9875127399605699, 0.9863401976428073, 0.9850782046164871, 0.9838166214267976, 0.9824464688314566, 0.9810961916414684, 0.9796957918560361, 0.9783455504545868, 0.976836355180871, 0.975265386578379, 0.973677573737849, 0.9720484380647773, 0.9703335476903279, 0.9686290688442124, 0.9668643866959596, 0.9650786688079591, 0.9632515241209697, 0.9613599597673351, 0.9594559162071026, 0.9575209238361978, 0.9555369103019186, 0.9535155048556916, 0.9515265283704665, 0.9494241912774671, 0.9472908317646598, 0.9451266653266105, 0.9429319506459604, 0.9406020593878663, 0.9383604449450255, 0.9361073751946045, 0.9337930905754797, 0.9314471137873198, 0.9290583511636387, 0.9266531603166126, 0.9242541578490033, 0.9217857326642662, 0.9192912735002311, 0.9167533138257898, 0.9142106267212683, 0.9116904345868859, 0.9090914148193973, 0.9064709504650461, 0.9037303718319305, 0.9010803451394844, 0.8984371842679464, 0.8957319180628072, 0.893004622722532, 0.8902320628420577, 0.8874659577312871, 0.884708620705097, 0.8818971695644049, 0.8790678782152882, 0.8761913086153327, 0.8733317436674731, 0.8704242809204082, 0.8675334325145447, 0.8646244749714642, 0.8617613015752905, 0.8588109192602569, 0.8558096298101995, 0.8528405774944655, 0.849857965417926, 0.8468564189797169, 0.8438492857578943, 0.8408480394877063, 0.83781503681887, 0.8347721311669531, 0.8316477892320993, 0.8285954217411678, 0.8255153671762989, 0.8224404884874386, 0.8193539744131861, 0.8163317405282091, 0.8132153083540696, 0.8100341739927276, 0.8069159944245086, 0.8037900448974229, 0.8006899804816895, 0.7975463119039956, 0.7943896366585609, 0.7912393722767577, 0.788085176568279, 0.784882447009288, 0.7817271633307948, 0.7785814861161681, 0.7754142440834447, 0.7722438143986569, 0.7690526935198895, 0.7658795868163517, 0.7627156461036778, 0.7595359253789934, 0.7563551204047921, 0.7532035941547547, 0.7500179629613167, 0.7468340262079718, 0.7436518748585201, 0.7404716157732298, 0.7372843764674024, 0.7341094155612244, 0.7309062640283364, 0.7277388981712224, 0.7245720937641859, 0.7214452917126277, 0.7182760567947409, 0.7149909702634226, 0.711845096376279, 0.7086967129804412, 0.7056428153674222, 0.7024803632786815, 0.6992696976744481, 0.6961255632134702, 0.6929841596319604, 0.6899238935066864, 0.6867794394521874, 0.6835804003494274, 0.6804603719480425, 0.6773446769962991, 0.6742156489203948, 0.6711118335322065, 0.6680032408005396, 0.6649093946248493, 0.6618200226224519, 0.658696554697693, 0.6556222274987922, 0.6525902547188884, 0.6495183733901363, 0.6464532134981525, 0.6434728889729239, 0.6404118069571275, 0.6372993258915588, 0.6342688181351176, 0.6312454022631057, 0.6282262145792065, 0.6252177561101292, 0.6221746298956466, 0.6191862197982952, 0.6162030198794105, 0.6132164919338171, 0.6102461662098441, 0.6072967573050501, 0.6043367832914067, 0.6013843167549727, 0.5984065657689901, 0.595473816359122, 0.5926311555732964, 0.589700478420661, 0.5867813926013122, 0.5838315519142225, 0.5809398734299556, 0.5780894115374996, 0.5752101277486896, 0.572341095959509, 0.5694701292301695, 0.5666225581769028, 0.563775063668785, 0.5609467437019982, 0.558126943824393, 0.5552677578121679, 0.5524712401856876, 0.5496987093212649, 0.5469123528955417, 0.5441338282549341, 0.5412943794773788, 0.5385407999487847, 0.5358276755542022, 0.5330791934976092, 0.5303384951862202, 0.5276567772389634, 0.524925865865154, 0.5221072669401914, 0.5194110817807949, 0.5167200771595671, 0.5140738033646983, 0.5113898887742114, 0.5086848746376926, 0.5060225673152824, 0.5033675565561673, 0.5007650793866721, 0.49811973979884355, 0.49541595330701904, 0.49280013595158484, 0.49019055838592057, 0.4876025888533109, 0.4850046768021421, 0.4824507975186186, 0.4798645633434622, 0.4772886033473071, 0.4746417511330615, 0.472095921960522, 0.46957918989347924, 0.4670410333281162, 0.46451022476183246, 0.4620228980234296, 0.4595026852605224, 0.4569652526389836, 0.4544677673707015, 0.45197813288683675, 0.44948739807869414, 0.447014717805023, 0.4446094343989599, 0.4421441345781577, 0.43968978964498046, 0.43719500691037677, 0.4347677779316509, 0.43235649089548706, 0.4299421333355968, 0.4275324403185282, 0.42513379878969837, 0.42274267314242625, 0.42035010132409095, 0.41797523489214544, 0.4155534990628855, 0.41319973261913506, 0.41085020154592267, 0.40851140387745405, 0.40617102862421417, 0.40386053088356233, 0.40152919395531655, 0.39920562146603894, 0.3968448585587684, 0.3945425335130425, 0.39234739605151986, 0.3900430567694656, 0.3877503585157419, 0.38533383916217756, 0.3830798722836668, 0.3808824488301037, 0.3786275199435336, 0.3763795097490795, 0.3741984744186958, 0.37195699854782116, 0.3696840822190358, 0.3674685454136528, 0.36526037638870956, 0.36305657997481816, 0.36086353236998003, 0.3586806866712363, 0.3565016919156875, 0.35433011389012486, 0.3521179798935532, 0.3499672816016934, 0.3477763221421066, 0.34564110473421383, 0.3435087845881108, 0.3413860091516904, 0.3392605969630135, 0.33724206025714787, 0.3351140324950059, 0.332997374466626, 0.3308105999273866, 0.32872534545305376, 0.3266454603710175, 0.3245712136733882, 0.3225028381686333, 0.32045552381704806, 0.318397568060586, 0.3163258575759186, 0.31428501900573513, 0.31225023352299597, 0.31029061480113024, 0.3082596793877383, 0.30620310858149935, 0.30419694423992977, 0.3021982401145511, 0.3001919395406322, 0.2982098569818198, 0.2962941717397742, 0.29431746145721593, 0.29235069590011203, 0.29031550612592016, 0.28837726739418507, 0.28647945675589315, 0.2845459231284523, 0.2826195171745614, 0.2807391958840752, 0.27882207505795953, 0.2768362895368957, 0.27494726810944287, 0.2730625604754563, 0.271209536519655, 0.26933116759267584, 0.26744767396530694, 0.2655846072310959, 0.2637278331289423, 0.26192545583910104, 0.2600755992781008, 0.2581781330269931, 0.2563538867389146, 0.25453524512574427, 0.25274942272731, 0.25093925179832116, 0.24910684090329427, 0.24731587978009387, 0.24553086425104476, 0.24376997623963634, 0.24199513665328018, 0.24025774350776655, 0.2384940319167671, 0.23673943759664415, 0.23492175410258948, 0.23319375085555286, 0.23150312052596658, 0.22978014308161304, 0.22806416926732867, 0.2263852218918971, 0.22467958894041196, 0.22290480668189183, 0.22122640364993093, 0.2195520117983038, 0.21789707596727786, 0.21623011935006664, 0.21459319620114684, 0.21293548532780462, 0.21128549844314867, 0.2096491643183773, 0.2080136683855878, 0.20636505305503605, 0.20474783355702877, 0.2031370930652297, 0.2015808738183902, 0.19997724052929974, 0.19836497896551492, 0.19678199204690486, 0.19520670087941983, 0.1936389771608273, 0.19207870627040183, 0.19048381534757527, 0.18894346095783035, 0.18740792907390333, 0.18586549288413004, 0.18434188247571137, 0.1828051294725569, 0.1812937510224155, 0.17978670669111954, 0.17829333171041656, 0.17679479474758875, 0.175254014571972, 0.17377312660251876, 0.17229551928216244, 0.17085464291794739, 0.1693807788485661, 0.16789827748956515, 0.16643903540374463, 0.16498533232687562, 0.1635672589727687, 0.16212115129077317, 0.16064954453938354, 0.15922235997923367, 0.15780040971836, 0.15641675564398566, 0.1550013369054429, 0.15358120156562735, 0.15218160907144546, 0.15078815639981513, 0.149400734126548, 0.14801923616749732, 0.14667054099112772, 0.14529717597378655, 0.14393095243108314, 0.1425445806003123, 0.1411951557805347, 0.13988649548144902, 0.13854209321289118, 0.13720447903473082, 0.1358223838412219, 0.13450390785101432, 0.13320652765215246, 0.13189218792772306, 0.1305823267449016, 0.12923796937076182, 0.12794198242950167, 0.1267531947732172, 0.12544878684769134, 0.12415309870789801, 0.12276957503465251, 0.1215016588215261, 0.12028937795776438, 0.11901832581686038, 0.11775261268388344, 0.11651304741165297, 0.11525484774858205, 0.11392174460406443, 0.11268556223419456, 0.11145031760674277, 0.11022242435600946, 0.10898949685625564, 0.1077949155878659, 0.10656240550696064, 0.10533469820130785, 0.10406669483994593, 0.10285389604525803, 0.10164001161218747, 0.10043167027446155, 0.09922554216583138, 0.09811176909168966, 0.0968992768374763, 0.09563460403334427, 0.09444463851569873, 0.09325793305611177, 0.09208347944930413, 0.09090214553285067, 0.08975453328880696, 0.08857680523886406, 0.08740432969376787, 0.0862337893659071, 0.08507127449781827, 0.08394896176937629, 0.08279015312502473, 0.08163721418270299, 0.08045372540088175, 0.0793157950010846, 0.0782375004777108, 0.07709771353441783, 0.07601775338594532, 0.07488241776447405, 0.07375512573923942, 0.07254516690261179, 0.07144311584242824, 0.0703960007615306, 0.0692893022264877, 0.06818704624156108, 0.06717593658999242, 0.06607090836352209, 0.06497761210246053, 0.06388884896969388, 0.06280745598658152, 0.06175678826083876, 0.06068531550564195, 0.05958497934147708, 0.0585317171123609, 0.057482518330422686, 0.05645527391903179, 0.055411675969208436, 0.05439695284283643, 0.05335996388551332, 0.052328971452843515, 0.05135468553027425, 0.05032853652687697, 0.04935561456713208, 0.048339785707794944, 0.04733380703537538, 0.04633397925365516, 0.04534609261693412, 0.04432115315893947, 0.04335442014146452, 0.04239243173538739, 0.04150428747726152, 0.04054353131424291, 0.039657836339125126, 0.03870659387633567, 0.03776751468224163, 0.036773901328925204, 0.03586538428638803, 0.03500843574550118, 0.034107562747068935, 0.03321609748789662, 0.03234284740915156, 0.03146856405830803, 0.03062479939446529, 0.029766836763118566, 0.028919451197761462, 0.02813943812715826, 0.027305571705971414, 0.026404217139153245, 0.02560703429540596, 0.024817940145074352, 0.024082278176735323, 0.02330479765871469, 0.022557031755536642, 0.021800733175163813, 0.02105721441071428, 0.020329404935170083, 0.019610909922260906, 0.01896525550750247, 0.018264981787287915, 0.01758106615680872, 0.01691313258841102, 0.016260893271432937, 0.015624139286343283, 0.01500273210813192, 0.01439659587609913, 0.01381470408534024, 0.01323796132441766, 0.012734036039904676, 0.012181845387593059, 0.01164883020998334, 0.011080690637361773, 0.010591926145929378, 0.010181511849039055, 0.00971591415139355, 0.009269930119927466, 0.008807434913434359, 0.008404845411508665, 0.00807356147692757, 0.007699159441803249, 0.007345788499736129, 0.006992375421685427, 0.006683518013568402, 0.00641541402932524, 0.006143685649021261, 0.005893417252237794, 0.005658731215600589, 0.005452532285487249, 0.005306890211225494, 0.005139196049062939, 0.004995820032943769, 0.00485876025439729, 0.004766303592877195, 0.004736235807977442, 0.004685953794411095, 0.004661833115979501, 0.004693843188117082, 0.004718278136007428, 0.004728707975043131, 0.004814268846031445, 0.004925281931697945, 0.00508008393402261, 0.005240784642581781, 0.005438015247568834, 0.005652878692738324, 0.005896260050156595, 0.006201332332914381, 0.00649819351475653, 0.006811094137130072, 0.00717190484893537, 0.007562944741473884, 0.007957441049906729, 0.008412998198779017, 0.008921942684876456, 0.009433758869237648, 0.009977277992417767, 0.010555761696938707, 0.01116310981814517, 0.011779167830413067, 0.012455200685980878, 0.013163121141154008, 0.013936379417455907, 0.014705306384613539, 0.015518328703060346, 0.01635647525300791, 0.017230551318969934, 0.018158655618663037, 0.01910267112107877, 0.020096010447346956, 0.021113194794346507, 0.022168456312354215, 0.023225802036728596, 0.0243617469613728, 0.025557779437663256, 0.02676326383562025, 0.028006911699314407, 0.029297860981409303, 0.030617142461337912, 0.031948574727203055, 0.03334962988702297, 0.03478851354862729, 0.036280555662698846, 0.03779420454791445, 0.03936248082289699, 0.04095367815614932, 0.04258568903797078, 0.044201597013133274, 0.04592257916150638, 0.04769932841942876, 0.0494941247347058, 0.05132871655093352, 0.05319439496055205, 0.05511054275681164, 0.057072753381385156, 0.05906855898154574, 0.06110530039814468, 0.06319214427864418, 0.06531011761291533, 0.06744900188293552, 0.06965346057119079, 0.07189870748091831, 0.07418493194840262, 0.07651229287328547, 0.07890790186134707, 0.08131448937849584, 0.08376404145593797, 0.08627438479831269, 0.08880711490489811, 0.09136536399063033, 0.09398708762234625, 0.09665074054004977, 0.09941916572824845, 0.10215837487736056, 0.10488573591934164, 0.1077217387357985, 0.11059844959331086, 0.11346783505798008, 0.11643181267545755, 0.11949352443954207, 0.12252575313024562, 0.1255996213771489, 0.1287148098847198, 0.1318710072233528, 0.13507390372900166, 0.13831044848275484, 0.14158743325580028, 0.14485354801129458, 0.1482168248243557, 0.15163164829705397, 0.15506621910755714, 0.1585382876327868, 0.16206569831101786, 0.16561003050622117, 0.16914738818433828, 0.1727730249199015, 0.17643338718730014, 0.18021239493416705, 0.18393147926631198, 0.18765680729062845, 0.19145766181194077, 0.1953152332298752, 0.1991844025748694, 0.20308949126878745, 0.20700585158865917, 0.21098383667867834, 0.21495248470644776, 0.21900061953835576, 0.22307817110405148, 0.2272989462652082, 0.23142053300769327, 0.23555044912607004, 0.23974488771197944, 0.24397083228898617, 0.24817049276047184, 0.2524641897876567, 0.2567598047949998, 0.26110803844662334, 0.2654801918149207, 0.2699240498981372, 0.274337375638348, 0.27882456540301387, 0.2832828940100002, 0.2877683595743143, 0.29221389950645466, 0.296758699924113, 0.3013417364195575, 0.3059243102125234, 0.3105272100885, 0.31512579541705454, 0.3197703968927948, 0.32450092624756716, 0.3291702664442087, 0.3338594275978975, 0.33848635178975994, 0.3432220848733513, 0.34796686901132434, 0.35272672075863865, 0.3574976829965104, 0.36231829140527155, 0.36710518806781245, 0.37189194008839555, 0.37670316478906474, 0.3815238017273417, 0.38635007154926054, 0.39118755705080516, 0.3960948671532748, 0.4009373436892908, 0.40578863820893646, 0.4106354456510265, 0.41550200561358874, 0.42027399512772745, 0.42516071192445676, 0.43004411912089974, 0.43500793110830116, 0.4398733480421217, 0.4446882964980035, 0.4495600359695231, 0.45442721154917914, 0.4592471992185269, 0.464108563713927, 0.4689579645792507, 0.47380137991324384, 0.4786348041695818, 0.4835057103103814, 0.4883115533083502, 0.4930604938816669, 0.497853504788914, 0.5026328476479619, 0.5074218850685458, 0.5121689589730858, 0.5169287184620033, 0.5216428737216603, 0.5263424130763007, 0.5309452568777612, 0.5356224161129255, 0.540343039575004, 0.5449664700079219, 0.5495702323423857, 0.554162268959876, 0.5587224239439286, 0.5631793771516753, 0.5677041825077282, 0.5722000790131321, 0.5767206630202196, 0.5811507638998586, 0.5855297373553461, 0.589907628753601, 0.5942551374099023, 0.598568533071338, 0.6028534481695562, 0.6070816039753434, 0.6113032669558387, 0.6154893360736179, 0.619570307474294, 0.6236922225595976, 0.6277879275027978, 0.6318254780083621, 0.6358224441280628, 0.6398174461512213, 0.6437272067302244, 0.6475703826498042, 0.6514035455841402, 0.6551939923682303, 0.6589441481749073, 0.6626470466411778, 0.666299630575937, 0.6699140073088198, 0.6734824385036943, 0.6770223087435414, 0.6804947594723806, 0.6839024608998481, 0.687282902286205, 0.6906140711023766, 0.6938833975357594, 0.6971158035078823, 0.7002335774084606, 0.7033701162855907, 0.7064504898331587, 0.7095016996929893, 0.7124663281947483, 0.7154151542955265, 0.7182649390051371, 0.7210613889047793, 0.7237738196504497, 0.7264653052429659, 0.7291027473804205, 0.7316793972630857, 0.7341984248665344, 0.7365964758216796, 0.7390070289258798, 0.7414331947596515, 0.7437093562750208, 0.7459277644443465, 0.748036858804174, 0.7501444539965444, 0.7521927588686752, 0.7541753227740395, 0.7560955982316688, 0.7579564531326247, 0.759751375689199, 0.7614777741240217, 0.7631482310831857, 0.7647554925905792, 0.7662754651784588, 0.7677590379368281, 0.7692047233858598, 0.7705552381172472, 0.7718425612005909, 0.7729885885753816, 0.7741589233953285, 0.7753122286108427, 0.7763406489048089, 0.7773049090693207, 0.7781960097282931, 0.7790330751427554, 0.7797904869817514, 0.7805002068869029, 0.7811445970265205, 0.7817028833615677, 0.7822198904754196, 0.7826560056491143, 0.7830434600083513, 0.7833648611716697, 0.7836656126903598, 0.7838504970887177, 0.783913114475652, 0.7839809599549239, 0.783983156315724, 0.7839712041403649, 0.7838372348780872, 0.7836060184316672, 0.7833540970478797, 0.7830390049624206, 0.782691118197676, 0.782247079875026, 0.7817097535416775, 0.7811494091605972, 0.7805272272935628, 0.7797927160772721, 0.7790547157794725, 0.7783133817295262, 0.7774420919785752, 0.7765125758700995, 0.7754951550922029, 0.7744539014416588, 0.7733117379076448, 0.7721585202015451, 0.7709452145362441, 0.7696847420583032, 0.7683524865529363, 0.7669664694383437, 0.7655210273069865, 0.7640203987727214, 0.762444253158496, 0.7608378601983034, 0.75921301783688, 0.7574940320276509, 0.755724226066501, 0.7538621018496701, 0.751997399416768, 0.7500570143279724, 0.7480928126557463, 0.7460772763074762, 0.7440054252550065, 0.7418909837276233, 0.7397098123864533, 0.7375011154326774, 0.7352145645645136, 0.7329149456042604, 0.7305678010059762, 0.7282912466424173, 0.7258377992505102, 0.723259862937815, 0.7207424007567993, 0.7181827689577335, 0.7155339348555521, 0.7128988053535993, 0.7102874996157067, 0.7075610271852799, 0.704798575329731, 0.7020067468624159, 0.6991734153761423, 0.6962583437349541, 0.6933641349030053, 0.6904346913419447, 0.6875579820449844, 0.6845501365357394, 0.6814609766616848, 0.6784055008620256, 0.6753202129881769, 0.6722329052472668, 0.6690870160006108, 0.6658553067891665, 0.6626658711333135, 0.659448429401931, 0.6562730642780867, 0.6529942481572059, 0.6496526098880884, 0.6463378724581802, 0.6430009193279945, 0.6396216554551932, 0.6362455860053079, 0.6328277820690957, 0.6294139007389774, 0.6259801300635115, 0.6224616627016798, 0.6189998459718659, 0.6155177446151523, 0.6120169093604853, 0.6084987900605772, 0.6050037178014565, 0.6014500952722915, 0.5979091940059664, 0.5943308353936947, 0.5907441791169664, 0.5871438150163192, 0.5835430845561873, 0.5799205051708257, 0.5763086014618151, 0.5726902961270934, 0.5691173208832897, 0.5654820542521971, 0.5618425022453034, 0.5582053517705123, 0.5545674076151638, 0.5508271489712724, 0.5472017548423196, 0.5435771420712611, 0.53994185783285, 0.536304204896272, 0.5327012450760626, 0.5290575028543716, 0.5254374695911787, 0.521797142346738, 0.5181619453042948, 0.5144663513793902, 0.5108510426810685, 0.5073224091669336, 0.5037029345293783, 0.5000928025879616, 0.49645922458108277, 0.49287254459991175, 0.48926103821439054, 0.485695368330594, 0.48213706621244046, 0.4786618616865833, 0.4751111223779546, 0.471451262386663, 0.4679437082081724, 0.4644432044002451, 0.46101982260836005, 0.4575279691990923, 0.4540231458766198, 0.4505630382494555, 0.44711604981096736, 0.4436827051780957, 0.44026349898957173, 0.43685889794473454, 0.4334693426601122, 0.43009524935790344, 0.42676399254188163, 0.42341857071149414, 0.42003128456027244, 0.4167297468856705, 0.41344317850901774, 0.41015420550017584, 0.4069016358112996, 0.4036886901558109, 0.40046497683421384, 0.39725940395241516, 0.39408725948928885, 0.3909169410335595, 0.38772145307181227, 0.38459652164203234, 0.3814890656199733, 0.37848347780625974, 0.37540166305761546, 0.37222932008831056, 0.3692083285286162, 0.3662036506733846, 0.36326088927838146, 0.3602849770357322, 0.357383537456855, 0.35444188009783, 0.35152386062489116, 0.34861108668671714, 0.3457414436232141, 0.3428453668985055, 0.34002470401461055, 0.33722259256394366, 0.33447526240062514, 0.331706429987072, 0.32897980024459167, 0.3262506032395861, 0.3235435136775989, 0.32078027915785634, 0.31812636160033636, 0.3155372885273105, 0.3129114425452263, 0.310305864145161, 0.30763648659848325, 0.3050816749762905, 0.3025839988208837, 0.3000547440678587, 0.29754398806913035, 0.2950487592821644, 0.2925754272119799, 0.29015338934966833, 0.2877124860960128, 0.2852916514168459, 0.28280059566233334, 0.28043022180614685, 0.278094826214448, 0.27575018267446977, 0.273421422509118, 0.2711595815207432, 0.2688563123870637, 0.2665478832720924, 0.2642848286890373, 0.2620383398495228, 0.2597901903772861, 0.2575783805587699, 0.2554233524227954, 0.2532357378093499, 0.2510650245420454, 0.24890771065877024, 0.24676968930731613, 0.24461997292919593, 0.24251551649870343, 0.24042400858784177, 0.2382913117171589, 0.2362319820764601, 0.2341490240820525, 0.23211277645875514, 0.23008439195014224, 0.22811818851758436, 0.22609968883830012, 0.22413486966962567, 0.22213417326908097, 0.22014691466642528, 0.21810647883264161, 0.21615248782677904, 0.21424832744812336, 0.21230472073647602, 0.2103712343206199, 0.2083934698030858, 0.20648575078990938, 0.20457485851539048, 0.20267995086020482, 0.20079038243791605, 0.19896313742876326, 0.1970770750698755, 0.1951905036129799, 0.19332199963687086, 0.19146040707546713, 0.18959630967769964, 0.18774842440261125, 0.1859117182040565, 0.18407313407380868, 0.1822394591572967, 0.1804313317481808, 0.17860379169209356, 0.17673935884175462, 0.1749267963444241, 0.17311601734913484, 0.1713279184507324, 0.1695177712215454, 0.1677882192780941, 0.16597321857916975, 0.16413767631656428, 0.16233806396739434, 0.16054166115933924, 0.1587269663250767, 0.156938133363552, 0.1551199390672177, 0.15333591092278356, 0.15155038993246336, 0.14973044573087022, 0.14794622974444835, 0.14622171260482653, 0.14442328525617923, 0.1426256140365232, 0.14088832794020464, 0.13908362832087673, 0.13720119912949064, 0.13541242582152602, 0.13362093420532042, 0.13183578840679727, 0.13003792072689888, 0.12822602001704234, 0.12642554779643425, 0.12462228540682127, 0.12275033785202735, 0.12094999901205679, 0.11922425546938442, 0.11740154591025645, 0.1155780774374728, 0.11376261537203944, 0.11193582993914397, 0.11012616070736178, 0.10829512361796428, 0.10646378336390949, 0.104541878419842, 0.10272037185778057, 0.10095562052175168, 0.09911426814787404, 0.09727122250864342, 0.09540240255805812, 0.09355872690065184, 0.0916668020094671, 0.08982239532338296, 0.08797246445736641, 0.08618045448121607, 0.08431293188547022, 0.08245073441950501, 0.0805809593535355, 0.07871057165228827, 0.07684242151994591, 0.0749700167112062, 0.07306083836401407, 0.07119129730304087, 0.06931879112689969, 0.06750053421162443, 0.06561564652917767, 0.06368075387053626, 0.06180399316576783, 0.05992490997712004, 0.057992808334237596, 0.05611631885332096, 0.05426240394887977, 0.05237434176663319, 0.05048463358536898, 0.048578616380683316, 0.046688471944059604, 0.04482074860882774, 0.042924844963998156, 0.04102949268478865, 0.0391528326671556, 0.037256772428691465, 0.035290793453054116, 0.03340791073490499, 0.031523079948822114, 0.029678910158867068, 0.02778673881760135, 0.02589973417334008, 0.024011679319930194, 0.022126281562751968, 0.020234689604894426, 0.01835617787697898, 0.01645328686673313, 0.014583626535522039, 0.012715524216683559, 0.01087641022114748, 0.009009332176468743, 0.007161582638624649, 0.0053014448723440735