0.05263643136289723, 0.05186614320517782, 0.05112869621227329, 0.05039487694245831, 0.049676750362667166, 0.048943145195189296, 0.048253394823472025, 0.047584018146189205, 0.04690747945649278, 0.04623735184171716, 0.04559121039075349, 0.044928818969227534, 0.044224065129730365, 0.04357706349906833, 0.04293123933468714, 0.04226183776538481, 0.04162147017004883, 0.04098509665300085, 0.04034427462960563, 0.03970420883800071, 0.0390961129017863, 0.038454573041022067, 0.03782263930340545, 0.037187236339511875, 0.036555774519737426, 0.03592214760879858, 0.03529960330298083, 0.03464798657591979, 0.03403759797086174, 0.03342965042272368, 0.032808131504340726, 0.03220853830664956, 0.03161179205430606, 0.031018414261358738, 0.030428884958792944, 0.02985600930631283, 0.02927390294075274, 0.028668711349822715, 0.028102022301962088, 0.027539948922529728, 0.026997360928952666, 0.02644398977433232, 0.025905500849220397, 0.02536458251491165, 0.024831180648284396, 0.024330140251803085, 0.02380899365351861, 0.02323733392008944, 0.02274213811673197, 0.022252668305866016, 0.02184559560328377, 0.021359183990985398, 0.020871582170638843, 0.020408786734605302, 0.019955930443329252, 0.019482000271561998, 0.01905264513873915, 0.018623018638533006, 0.0182108663595433, 0.01780664966005345, 0.017373543442213753, 0.01699066825706738, 0.016624699964537644, 0.016254250024526653, 0.0158919740813206, 0.015614459961260343, 0.015259901139857588, 0.014908448080626675, 0.01458166742072896, 0.014267090078507705, 0.01388008084317102, 0.013600176530589664, 0.013383024406119982, 0.013110945972500388, 0.012850305613910859, 0.012535237006081583, 0.012306037362070052, 0.01206627432698794, 0.011856010648215572, 0.011653883221061517, 0.011501767461573586, 0.011312625561819454, 0.01117694196761348, 0.011007234072997205, 0.010852382529386502, 0.01066892274367947, 0.010548715083306131, 0.010434282211105454, 0.010339023657323514, 0.010255867186596823, 0.01019951013592182, 0.010139534206202, 0.010099415043651914, 0.010066112249642389, 0.01004704121503238, 0.010112318029231812, 0.01011302631819901, 0.010033176327267886, 0.01008260169043532, 0.010143921851472617, 0.01023818933809141, 0.01032199469317599, 0.010471593201974258, 0.01057761639969609, 0.010701149846736854, 0.010796604253234159, 0.01096016512408434, 0.011109201239444247, 0.01130528195118792, 0.01151450276526148, 0.011720807159540717, 0.011959635114360613, 0.012185051992065916, 0.012454464446439741, 0.012736589207204354, 0.013027870142551504, 0.013337567857483449, 0.013681850205013474, 0.014017312443645851, 0.014368680071134909, 0.014719610707894529, 0.01510527615477108, 0.01556191423225556, 0.01597142679936957, 0.01639978123282848, 0.016854916292734595, 0.017319029165619705, 0.01775216175417833, 0.018259180922224137, 0.018781337551972796, 0.019296121280298867, 0.01985186035214302, 0.02042597577122009, 0.021009967787959622, 0.021608930058423192, 0.022295130879048938, 0.02291532529015034, 0.023499251154740018, 0.024164695988323593, 0.024845395459101322, 0.025578459259257374, 0.026285018355007576, 0.027019224400728955, 0.02775884302668004, 0.02851575621635187, 0.02931226704209172, 0.030099842062525285, 0.030915280330870508, 0.03173620546318558, 0.032574376433391894, 0.03345611141656758, 0.03432402243330419, 0.035129037817524696, 0.0360414775191277, 0.0369657961789975, 0.03797223914703873, 0.03891197678230476, 0.0397958543697989, 0.040776753758398565, 0.04176894941061796, 0.04286534526452858, 0.04386889997670417, 0.04489967075636767, 0.04593506839308726, 0.04698665686255769, 0.04802287848117511, 0.049108868660885076, 0.05022608216069129, 0.051334838519005714, 0.05245683322094241, 0.05357726486438602, 0.05472645238030098, 0.05589318754528812, 0.05706412606572589, 0.05824637954327449, 0.05943557761138061, 0.06064023898757806, 0.06190882399138913, 0.06312720101750743, 0.0643585165212028, 0.06562891424883584, 0.06688083709389192, 0.06813717006803069, 0.06941471289458523, 0.07070305216271798, 0.07207170237861163, 0.07337117886884652, 0.07472919481394359, 0.07604834981186226, 0.07738134791949959, 0.07869403703906463, 0.08005546490559264, 0.081483389436069, 0.08285453458022701, 0.08425514210518466, 0.08564482687962406, 0.08704466947725258, 0.08841254645349182, 0.08983527724832069, 0.09134994165588627, 0.09277218411007679, 0.09420405208181819, 0.09561778647979823, 0.09706948252869824, 0.09861941422256883, 0.10006992627074224, 0.1015302422092145, 0.10301983118009747, 0.10449386606056112, 0.10594078776726423, 0.10743412379688769, 0.10893159637120053, 0.11040594357459309, 0.11191370429154654, 0.11352378989733683, 0.11502136900497764, 0.11652572310576523, 0.11807507523423379, 0.1195853469650754, 0.12109798183271582, 0.12262077575867543, 0.12414799854466807, 0.1256912889341058, 0.12722371517757539, 0.12881084545918092, 0.1303425350548801, 0.13187917189154216, 0.1333827812655431, 0.134931455869313, 0.1365465882031804, 0.13808765975128964, 0.1396323812114977, 0.14115938231141265, 0.14271180920426396, 0.14433476615743257, 0.145878925340808, 0.14742683304049983, 0.14891172197859653, 0.15047308323394767, 0.15205909586502922, 0.15361277782628135, 0.15516579498872804, 0.15681477344680636, 0.15835358074076805, 0.1598656724676654, 0.16141585581370615, 0.1629667774853183, 0.16455714079312697, 0.1661033082422416, 0.16762446273819048, 0.1691769741878466, 0.17072865543147292, 0.17229577220905806, 0.1738430916157596, 0.17541675199970858, 0.17695954605666517, 0.17850295125229512, 0.18003834853436607, 0.1815829498038409, 0.18312674805254103, 0.18466959888442927, 0.1862113936414786, 0.1877809038695311, 0.18931673689111272, 0.19088183287881083, 0.19241461532071338, 0.1939490158984693, 0.19548466367315576, 0.197021256160267, 0.19856885551915185, 0.2001053677566752, 0.20164284132561308, 0.20321407244180542, 0.2047488307451194, 0.206250997412018, 0.2077947606211142, 0.20933846338383907, 0.21088427857028585, 0.2124279579082212, 0.21403596911350864, 0.21557263139991537, 0.21711365513992764, 0.2186545915923197, 0.2202039544298743, 0.22170723602247447, 0.2232695143027965, 0.22483227543751297, 0.22641035700145995, 0.22797349314669993, 0.22950617123163228, 0.2310787760273625, 0.23265260444203867, 0.23430033518638516, 0.23586913938166332, 0.2374489337308757, 0.23903086238208027, 0.240619759683621, 0.24220735916328928, 0.2438112114979101, 0.24539278819324523, 0.24701360571989947, 0.24863974834417496, 0.25025518649731704, 0.25189542215908034, 0.2535846753334593, 0.2552314980412511, 0.25688760937541244, 0.2585593706377678, 0.26023384186416615, 0.2619700770347437, 0.263658733345658, 0.2653609564718536, 0.26705185476137755, 0.26878391697823784, 0.2704433904951007, 0.27221015673838644, 0.27398456593730414, 0.27580467058174024, 0.277592498760871, 0.27942572453499015, 0.2812347331223004, 0.28305899627860875, 0.2848657539277074, 0.2867253479761323, 0.28860316752165444, 0.29049099022701586, 0.2923942155037098, 0.2943648370591005, 0.29629378176332866, 0.2982074010794009, 0.3001802250962169, 0.30217091360813153, 0.30418811536692497, 0.3062147104505315, 0.30820521687759156, 0.31027828160539095, 0.3123684589159402, 0.3144992156629379, 0.3166231022870437, 0.3187738081943841, 0.32093866663676984, 0.32312545022705463, 0.32532219291513387, 0.3275555747137131, 0.32982165995890356, 0.3320990140377775, 0.33440027542398226, 0.3366722221468999, 0.3390291259274567, 0.3414512430017152, 0.34384732084059094, 0.3462692355400054, 0.34872140940322033, 0.35119537314640625, 0.3536571362757943, 0.3561901989656234, 0.3587485068726228, 0.36137588844627533, 0.36398084063726704, 0.36661294934774563, 0.3692766866365666, 0.37196971598846607, 0.3746736170853186, 0.377427955126396, 0.3801882653374138, 0.3830030304925964, 0.38584571191286005, 0.38870437685009657, 0.3916057072467727, 0.3945230737782871, 0.3974831869196664, 0.40047180174613395, 0.40349759463851287, 0.40654342215015277, 0.4095987622140916, 0.4127076594782137, 0.41584594166200706, 0.41904897035772715, 0.4222425393057669, 0.42539825194471387, 0.4286650026838489, 0.4319598530459036, 0.4353615766910524, 0.4387040643152849, 0.44204933278513336, 0.4454627444076795, 0.44890740450318306, 0.45236881200757856, 0.45587754626191135, 0.45937316892120783, 0.46294768858420754, 0.46654989562244226, 0.4702151028175843, 0.4738690338436195, 0.47752441465817186, 0.481242398032231, 0.4849969005018943, 0.4887703973456402, 0.49257259110556173, 0.4963992063945414, 0.5002588204166516, 0.5041628281123145, 0.5080759643040113, 0.512017481282375, 0.5159354608596125, 0.5199390322514931, 0.5239750933512177, 0.5280260951078237, 0.5321016998561301, 0.5361872745526687, 0.540313237236838, 0.5445261130501964, 0.5486898495927459, 0.5528797179783099, 0.5569939199685181, 0.5612463519211142, 0.5655168205609541, 0.5698053607090867, 0.5741119182882158, 0.5784487213121008, 0.5827892691439657, 0.5871520249859369, 0.5915277846770832, 0.5959209360018349, 0.6003474034216801, 0.6047715387993963, 0.6092204531579893, 0.6136758326043522, 0.6181466270374182, 0.6225948723040283, 0.6270985646803335, 0.6316067833775791, 0.6361320920379099, 0.6406665585869896, 0.6451663012610359, 0.6497226866233768, 0.6543065217236302, 0.658869233710617, 0.6634371784915664, 0.6679375360314447, 0.6725229280823583, 0.6771402617768841, 0.6817192006820325, 0.6862984022891528, 0.6908792386887616, 0.6954565888398231, 0.7000506497697921, 0.7046211429666291, 0.7091891215002544, 0.7137184967615179, 0.718282689963567, 0.7227876839709827, 0.7273422187833173, 0.7318845296914201, 0.7364162082862498, 0.7409323185106242, 0.7454099388163943, 0.7499009332099745, 0.7543752837371814, 0.7588900558964449, 0.7633218579643746, 0.7676990009104948, 0.7721034493063677, 0.7764876229420653, 0.780788744239772, 0.7851372736521535, 0.7895167852702843, 0.7938040441132522, 0.798066651172121, 0.8022766529143089, 0.806489838647938, 0.8106918970116761, 0.8148424255180933, 0.8189623596255116, 0.8230031363464684, 0.8270643637131634, 0.831123853234185, 0.8351063241552041, 0.8390523649621485, 0.8428948784856464, 0.8467729223875338, 0.8505867576344438, 0.854379578101775, 0.8581263306358153, 0.8618202591473397, 0.8654738662363941, 0.8690935631370911, 0.8726479723947822, 0.8761533945302817, 0.8796192150982026, 0.8830225842503059, 0.8863499981817057, 0.8896529790137948, 0.8929012253736825, 0.8960856345231908, 0.8992228514344195, 0.9023351993855192, 0.9053517245745717, 0.908310551627988, 0.9111507806949117, 0.9139983622321391, 0.9167712297831413, 0.9194906982963922, 0.922143953530767, 0.9247304171437609, 0.927249475077879, 0.9296901804659411, 0.9320737736546224, 0.9343873829532018, 0.9366880852571979, 0.9388525514318712, 0.9409380516768983, 0.9429653628040136, 0.9449212191272244, 0.9467923061553198, 0.9486039993198702, 0.9503181315922358, 0.9519821560116793, 0.9535685433879505, 0.9550479247597424, 0.9564811234318605, 0.9578190816086942, 0.959092189107307, 0.9602830841165233, 0.9614121669472209, 0.9624353874592427, 0.9633727377211911, 0.9642325443768692, 0.9650095054993973, 0.9657382667116352, 0.9663439627339921, 0.9667831692349454, 0.9672349031943389, 0.9675986719166191, 0.9679446774540864, 0.9681240443987115, 0.9681887861251152, 0.9682041119052546, 0.9681330033341314, 0.9679629267514657, 0.9677200182464086, 0.9673627322835235, 0.9669480121070027, 0.966444167624968, 0.9658885025316027, 0.9652023436503182, 0.9644070739448518, 0.9635507754947128, 0.9626065610940006, 0.961568382567502, 0.9604495299538377, 0.9592036994922163, 0.9579143664131715, 0.956535464318338, 0.9550613704654303, 0.9535057638008794, 0.9519030598747299, 0.9501661729010934, 0.9483443709196678, 0.9464048739305352, 0.94441801283075, 0.9423883284706105, 0.9402243597060936, 0.9379778345447572, 0.9356015704714283, 0.9331966076135669, 0.9306927833601587, 0.9281215035655662, 0.9254664408953577, 0.9227614104014819, 0.9199371377441884, 0.9169736790725243, 0.9139986596789335, 0.9109419990740564, 0.9078480668381211, 0.9046259144084897, 0.901309212722865, 0.8979380746158334, 0.8944912750026001, 0.891039757800821, 0.8874354378371379, 0.883743525599217, 0.8800038120818529, 0.8761948058585061, 0.8723336587548539, 0.8683860385395449, 0.8643165761934589, 0.8602442669767711, 0.856104068017687, 0.8518580824730243, 0.8475908153409726, 0.8432386737068551, 0.8388426596091637, 0.8343823712545069, 0.8299212726593087, 0.8253295119874487, 0.8206817527418216, 0.8159790237687451, 0.8112223860729251, 0.8064149919116339, 0.8015535804169158, 0.7966190704085472, 0.7916608193134558, 0.7866119959375941, 0.7815616277143846, 0.7764623730675693, 0.7712932925363022, 0.7661042736627846, 0.7609175601283669, 0.7556341790287322, 0.7503119346410245, 0.7449150707021366, 0.739523802177455, 0.7340585292790961, 0.7285997832104106, 0.7231053337196663, 0.7175791463114317, 0.7120186852150049, 0.7064116957051041, 0.7007949613369285, 0.6951506777807674, 0.6894909350828947, 0.6837955639209046, 0.6780702026193318, 0.6723339543021872, 0.6665786247361863, 0.6608429033489027, 0.6550494915418248, 0.649194346379917, 0.6433838600848567, 0.6375607992729806, 0.631840160822386, 0.625982580178795, 0.6200350750801877, 0.6141867225123442, 0.6083334918907602, 0.6025387438586393, 0.5966725525367685, 0.5907147441515448, 0.5848678768796163, 0.579020904731036, 0.5731797983221525, 0.5673375857673953, 0.5615173636457256, 0.5556857339973095, 0.5498638055318185, 0.5441004156253834, 0.5382962089476044, 0.5324509407524597, 0.5266883068312841, 0.5209411145702195, 0.5152830115578828, 0.5095621283587004, 0.5037869070603722, 0.4981246993668139, 0.492483795008838, 0.4868781099217406, 0.48128285843660884, 0.4757470906861689, 0.4702020172639248, 0.4646879173227495, 0.4592243352791157, 0.4537728416000831, 0.44826365074608554, 0.44289480359412964, 0.43755752585342933, 0.4322761238856885, 0.42700395611148334, 0.4218414289490433, 0.41663640942365104, 0.41147536874055135, 0.4062455366896254, 0.40118850310695603, 0.3962306237761775, 0.39124638244277027, 0.3863079039463792, 0.38140783506614684, 0.3765645689594654, 0.3717671411584158, 0.3670208198233991, 0.36232402324286067, 0.3576837741955862, 0.3530877364270057, 0.3485604827584036, 0.34406765687100904, 0.33962942685561914, 0.3352154013707197, 0.3308918165737494, 0.3265958340023583, 0.32238515470104784, 0.31822879588843483, 0.31412556601925035, 0.31008064907199145, 0.30614386274063293, 0.30220636093093783, 0.29832970280071824, 0.29449757508356394, 0.2907452034027369, 0.28703471791782487, 0.28340585234618215, 0.2798369513203848, 0.27635108347579623, 0.2729004106107865, 0.26950175560630535, 0.2661771282514055, 0.2629144318079246, 0.25963345788146186, 0.2565052225291343, 0.2534842480899215, 0.2504660953250476, 0.24750986338267383, 0.24457240081205567, 0.24174580376946503, 0.23901809175710775, 0.23630636273912714, 0.233657187506871, 0.2310704503300326, 0.22854600677480194, 0.22604041214176981, 0.2236454837856408, 0.2213098243205124, 0.2190335312151752, 0.21681663421243236, 0.21469413042908686, 0.21259143918677484, 0.21054984046278602, 0.20857091790155996, 0.20664980113223022, 0.20479666884790312, 0.20299346511176747, 0.20124939796836688, 0.199590639539697, 0.19795960932886836, 0.19633790964718864, 0.19482986072063774, 0.19337615972600536, 0.1919599168848053, 0.1906157461859193, 0.18936901380820798, 0.1881229504313064, 0.18693074827858402, 0.18580394727547986, 0.1847154391989018, 0.18362751604555186, 0.1826488104850693, 0.18171750583290072, 0.1808434328160806, 0.1800041678678743, 0.17924018876655723, 0.17848947731582027, 0.1777854507441855, 0.17710243008767962, 0.17649205216818012, 0.17589322896857953, 0.1753709522644153, 0.17488791502847983, 0.17440649961441695, 0.17400500063450783, 0.17370899443843496, 0.1733691369321749, 0.1730678387016967, 0.17280196858300576, 0.1725748465057923, 0.17233970919695432, 0.17218754263190636, 0.17206614829219444, 0.17195012433710888, 0.17189133699456982, 0.17189482458664548, 0.1718855136570892, 0.1719041918964489, 0.17197874068916164, 0.17204684106472873, 0.1721107177945597, 0.17223487859203496, 0.17238157818292668, 0.17251898526258844, 0.17271189379264848, 0.17300111479623834, 0.173219444523527, 0.17345874688027804, 0.17370320331250486, 0.17398214227342335, 0.1742648458035324, 0.17457646639014515, 0.17490127084567664, 0.17518263351840196, 0.17553788130733503, 0.17587552356062905, 0.17624762688355836, 0.1766243892560141, 0.1770260135528603, 0.17740821852680996, 0.1778463692544169, 0.1782301920975695, 0.17861985568548558, 0.17903478427593297, 0.17943001669764547, 0.17980408555697433, 0.1802083319838437, 0.18061232779691244, 0.18096155846613415, 0.18136903103096447, 0.18178079459730137, 0.18217449319355522, 0.1826215866338598, 0.1829944113233471, 0.18336302605832155, 0.18369542250744125, 0.18405627835119068, 0.18439773846860394, 0.18474100432227775, 0.18507319611430187, 0.18534013689144324, 0.18565515199117757, 0.18601198544438535, 0.18628778754999825, 0.18655057940102315, 0.18683467775054743, 0.1870649023083905, 0.18719546459195166, 0.18740946902385125, 0.1876036991114525, 0.18785427371131438, 0.1879989090174231, 0.18805339339872132, 0.1881746391413299, 0.188274146315758, 0.18837239205520703, 0.18842540409140726, 0.18847385840744643, 0.18848234146423215, 0.18846999463267783, 0.18838894700281134, 0.1883395270255302, 0.1883312019704124, 0.188223736515403, 0.1880950651808525, 0.18792399141205712, 0.18775379331944253, 0.18751015794961037, 0.18729796718503405, 0.1870584810763643, 0.1868186496625901, 0.1865216451652512, 0.18621368162083324, 0.1858639645272335, 0.18548944064782583, 0.18510844134301957, 0.18468134480331744, 0.1842093168729255, 0.18373589292575407, 0.1832364673218606, 0.1826842215900842, 0.18213610613647996, 0.18157487335318293, 0.18097009101079783, 0.18033904782007926, 0.17967773170011503, 0.17899502557930347, 0.17828618629942433, 0.17755138882058422, 0.1767908158683255, 0.17602526472516222, 0.17521111870323897, 0.1743873803777272, 0.17352343319332128, 0.1726364217719463, 0.17168101413002626, 0.17075365218841823, 0.16979668920224653, 0.16881937358258037, 0.16781730601993838, 0.16677243984035334, 0.16572469838870435, 0.164673235575483, 0.16357485520062207, 0.16245452253845322, 0.16136004306878673, 0.16019105231986538, 0.15892365255594865, 0.15772877489852838, 0.15651148117447727, 0.15534468290782225, 0.1540757748147218, 0.1527845867029787, 0.15148438146106194, 0.15016801492631277, 0.14883986885518619, 0.14749147537129315, 0.14613421776976743, 0.14475527555076828, 0.14336231539307298, 0.14192270339189378, 0.14050691556250797, 0.13905163428317135, 0.13761013023041485, 0.13615384344889625, 0.13471661602308088, 0.13322918137931558, 0.13168600762320054, 0.13018401508514135, 0.12867012671404582, 0.12714524786218595, 0.1256102467537286, 0.1240700792944876, 0.12251678652130064, 0.12095601928428659, 0.11936995186025097, 0.11779872150110646, 0.11620871907222505, 0.11462705483738907, 0.11303989629974086, 0.11147489020013637, 0.10987589497119213, 0.10831658745734021, 0.10670987388285504, 0.10510502992848553, 0.10350844579598523, 0.10190722549838394, 0.100255389812471, 0.09866713300888719, 0.09707940370633013, 0.09545999944534349, 0.09387976956093229, 0.09236020103029048, 0.09077518500830385, 0.08919629644320913, 0.08759094546181942, 0.08602963477599235, 0.08448820844845736, 0.08293667913809409, 0.08139276590713515, 0.07983020501614764, 0.07830647706234597, 0.07680690069875301, 0.07529714310734693, 0.07379738639969818, 0.07234730667248805, 0.07086416386274177, 0.06937621272309022, 0.0679230643519162, 0.06648299141981465, 0.06504400761689515, 0.06363278330082979, 0.06225156398007677, 0.06086577683215757, 0.059495383947783094, 0.05810361687744433, 0.05676967250620068, 0.05544795579904728, 0.05414347457467224, 0.05285438023815877, 0.05155651479574285, 0.050302992703187256, 0.04910834560962245, 0.047881225209713545, 0.04667341803733233, 0.045460413560111934, 0.04429500631756381, 0.04319143771886135, 0.042058096173140914, 0.0409465293711357, 0.03987322210273129, 0.03880313784975873, 0.0376713181567753, 0.03665732511778457, 0.03566118769955566, 0.034695907331232574, 0.033735765678520165, 0.03278147048053151, 0.03186404952294155, 0.030966761364684493, 0.030104425188804847, 0.029246715073111246, 0.028371838133466852, 0.027563190475344508, 0.026774592066416723, 0.026076513735860382, 0.025320326655666033, 0.0245726911599592, 0.023868341916576507, 0.023187488882709908, 0.022519686157504, 0.02188670071070749, 0.021296813276495317, 0.02070614752596138, 0.0201390007192907, 0.019599246709477255, 0.01907788430813942, 0.01860634502477267, 0.018127409773144417, 0.017672509118186058, 0.017181430043775307, 0.016780819185033637, 0.01636870528970629, 0.0160109228291012, 0.015670989418689222, 0.015371852759632015, 0.015065530000975465, 0.014787224671097842, 0.014519329547077563, 0.014271483884816112, 0.014078518231467647, 0.01386572818034381, 0.013639279351196769, 0.013473136481603918, 0.013370704861309524, 0.013235384800394084, 0.013120565975099805, 0.01296589049491551, 0.012897857400581171, 0.012828770035546978, 0.012793639855845161, 0.01277289034336699, 0.012797443979609614, 0.012801538208870804, 0.012796915182769064, 0.012835783120977858, 0.012888520859520346, 0.01298172827494838, 0.013058223971212873, 0.013170045034787527, 0.013272886400084605, 0.01339063181569708, 0.013473180551426909, 0.013625071116286256, 0.013807824754134357, 0.013977438436107199, 0.014158061828011617, 0.014303948590422602, 0.014511077387321047, 0.014783110793251229, 0.014997294687964652, 0.015221743642285448, 0.015408440248154083, 0.01565755790599345, 0.015951611466222346, 0.01620715290160398, 0.016470251998983183, 0.016758880184575133, 0.01703304000252911, 0.01723168782173986, 0.01752940331607418, 0.017828053665381698, 0.018177119456676806, 0.018471406513902562, 0.018750766643887896, 0.019054105099242276, 0.01935896758442286, 0.01967735038137908, 0.019982584159678123, 0.02028890073691299, 0.02059580357396824, 0.02090280160693864, 0.021219712400952037, 0.021524147679971618, 0.021840181275354545, 0.022140972486523785, 0.022440608232107893, 0.02273847108548884, 0.023033970843328314, 0.02335126981258966, 0.023637245985897077, 0.023920621526304576, 0.02413888106702163, 0.024422822737528334, 0.024742001902883986, 0.025004321895897054, 0.025260846764506347, 0.025467823044743, 0.02571680738780308, 0.025972672249449977, 0.026200289994773366, 0.026419055123125573, 0.026667864040394503, 0.02686320562162426, 0.027065542513736267, 0.027243626619334684, 0.027413978476914888, 0.02757186023325929, 0.0277254666019285, 0.0278364297163491, 0.027974406038720298, 0.028099988863551313, 0.028227479521927473, 0.028326078259471577, 0.028482771661674986, 0.028548331429668103, 0.02860537175568971, 0.0286572272571882, 0.02869443019301835, 0.028764497646906226, 0.028774819941352055, 0.02877604311087012, 0.02876117241674758, 0.02874263903759297, 0.028673356988662666, 0.028636085798449073, 0.028584100659788975, 0.02857092676422973, 0.02848260499107395, 0.028450472147393033, 0.028329495236863417, 0.028199718411147157, 0.02811592210676429, 0.02795906664561097, 0.027740747645339375, 0.027573921405679894, 0.027394408931661875, 0.02722461625633756, 0.02701614890496017, 0.026849250021045604, 0.026609727964631427, 0.02636074202104425, 0.026048151538502352, 0.025785425648432315, 0.0255995167561783, 0.025297789928141117, 0.024987650450583668, 0.024726276260259344, 0.024390570811110998, 0.024005182799133093, 0.023661445569787908, 0.02330764122676799, 0.022945755981829758, 0.02257140110151788, 0.02223239950566811, 0.021832442901738885, 0.021425279620454034, 0.021047819146484775, 0.020621093172305684, 0.020205426632580757, 0.019765512988758012, 0.019320690763547702, 0.01886869794555479, 0.01841380879365336, 0.017992714409289595, 0.01752222998704594, 0.017048787173040182, 0.01663201916872217, 0.016144822004209133, 0.015670272888854447, 0.015181720342495188, 0.014693547782872738, 0.014201408259574461, 0.013713950845673933, 0.013234529402580507, 0.012745723711207423, 0.012257462166543009, 0.011837925691521332, 0.011342765193999568, 0.010825913756358574, 0.010344146639718528, 0.009865712082202065, 0.009448549883325861, 0.00897027829413856, 0.0085386414774955, 0.008070335485053336, 0.007611709221116271, 0.007092527791507164, 0.0066617142474327505, 0.006255013403557431, 0.005833696527038723, 0.00542041469346167, 0.0050837490443499155, 0.00467971036102839, 0.004303767017969323, 0.00392534999169829, 0.0035617036441096053, 0.0031697007536042924, 0.0028415830750004403, 0.0025285350868529733, 0.0022268815147496444, 0.0019397772781722267, 0.0017235692168408783, 0.0014606702701345593, 0.0012072969500622262, 0.0009856421047206546, 0.0007838646804299907, 0.0006189268835121102, 0.00045628756964847405, 0.00036543873948685244, 0.00024165643115597643, 0.0001439002903959676, 4.1375190849275676e-05, 0.0, 6.797070919591692e-05, 6.621024208002186e-05, 9.522462510417163e-05, 0.00012404448077900403, 0.00021843670335899214, 0.00034198060141694834, 0.0004951353272758254, 0.0006783995419830002, 0.0009005482408580978, 0.0011446160087213591, 0.0014415418258220982, 0.001748048331335611, 0.002089068095428413, 0.002442354367423235, 0.0028565634044152534, 0.003330107036037738, 0.0038111030277498113, 0.004329491381910474, 0.0048837097398535785, 0.00547865943457088, 0.006151592258007641, 0.006819823347234178, 0.007530228660330376, 0.008243925825231226, 0.009044479799379319, 0.00992303178073345, 0.010801406315211511, 0.011684997562067497, 0.012657430846333148, 0.013672803191638352, 0.014758632137600335, 0.015858661508080317, 0.0170320405825397, 0.018222252529964764, 0.019461425933857728, 0.020747738018038683, 0.02208583575854493, 0.0234694494691032, 0.024907666497441854, 0.0263959505063773, 0.02799856070716657, 0.02958004768457208, 0.03116482228540517, 0.03286229942202761, 0.03461149251940147, 0.03642310489926976, 0.03827562311575457, 0.04019810441390405, 0.042155792725874455, 0.044168481138488855, 0.04619100176423295, 0.048319931256687876, 0.050505970155798594, 0.05274091463838451, 0.055030156717613736, 0.05737208181961223, 0.059771484255507594, 0.06224897425127288, 0.06475671884527655, 0.06732185686944171, 0.0699465704831266, 0.07262659277919711, 0.07533355849501971, 0.0781332749730463, 0.08098926400584366, 0.08388741428884174, 0.08685866997597118, 0.08990681293194713, 0.09298833842362379, 0.09612787759483504, 0.09934196689938671, 0.10259558154552108, 0.10589585925442922, 0.10926894359099665, 0.11270006261112948, 0.11622831026795231, 0.11977035751278663, 0.12336622674612646, 0.127028635726853, 0.13074986779283443, 0.13451722020053417, 0.1383566521526174, 0.14221818706309403, 0.14617609103863802, 0.1501887041093087, 0.1542993335578793, 0.15841595020743757, 0.1625628811034699, 0.16679664131482, 0.1710851087234772, 0.1753847834375068, 0.17978742717690369, 0.18427043494979684, 0.1887725038140879, 0.19332772215875002, 0.1979110415715335, 0.20257469200109487, 0.20731378028677497, 0.21207551857210621, 0.21688889085684487, 0.2217410307238725, 0.22665770684356237, 0.23159697066749013, 0.2366153259986875, 0.24168060613334114, 0.24680487310199758, 0.25196148148187253, 0.2571584656058226, 0.26240842088963273, 0.2677034570347284, 0.27305125785853396, 0.2784337051464419, 0.2839176210525717, 0.28937960093115417, 0.2948871403474253, 0.30040811523466665, 0.30600707762120255, 0.31159688370992994, 0.31728183720806613, 0.3230025940402046, 0.32877104947088104, 0.33456039032816737, 0.34038672477553233, 0.3462449521170539, 0.35213675953607904, 0.35802838267117176, 0.36398910964143194, 0.3699894121285589, 0.3760067817507672, 0.38205274925440685, 0.38809974186795837, 0.39420390232336794, 0.40034918547278636, 0.4064998714630625, 0.41267473465488286, 0.41882341914315346, 0.4250501563899553, 0.43138823451041847, 0.43763989337730175, 0.443914135057636, 0.4501724065449053, 0.4564921513114314, 0.46274568674392824, 0.46910721113136417, 0.47547816997595455, 0.4818581308024291, 0.48824656816493506, 0.49470262987033226, 0.5010985603571083, 0.5075042725702867, 0.5139205318652195, 0.5203416658881285, 0.5267276133924543, 0.5331647107971498, 0.5396029307046023, 0.5460475003934396, 0.552484284886345, 0.5589154520269953, 0.5653486662326576, 0.5717779361695058, 0.5781176760801874, 0.5845464168592269, 0.5909837198650248, 0.5973852955553877, 0.6037749426066962, 0.6101992332482833, 0.6165565092148997, 0.6228750997355798, 0.6292106129431863, 0.6355300244635632, 0.6418033633775675, 0.6480908332784666, 0.6543077088881228, 0.6605582146103948, 0.6667828911300119, 0.673045003333218, 0.6792080247779828, 0.6852581268591106, 0.6913823853598722, 0.697474689040845, 0.7035529751718079, 0.7095771218061568, 0.7155312136194292, 0.7214931562032877, 0.7274180871106167, 0.7333382439232488, 0.7391827251227586, 0.7449793684650196, 0.7507489232735739, 0.7564780391848265, 0.7621305979973685, 0.7677799889079059, 0.7734269501317983, 0.7789786319459849, 0.7844853353399444, 0.7899169606364682, 0.7953336170278741, 0.8007391228832262, 0.8060492566669923, 0.8113093378649602, 0.8164995196632862, 0.8216579706611478, 0.8267100110797677, 0.831764131289499, 0.8367583711182105, 0.8416879955926483, 0.8465611165574881, 0.8513227221351454, 0.8560772956429606, 0.8607656492748151, 0.865453392371818, 0.8699999127344261, 0.8744250354353593, 0.878850413503851, 0.8832068043522635, 0.8874730757911283, 0.8916924843896611, 0.8958297698102339, 0.8999063931503775, 0.903909683578449, 0.9078824765879087, 0.9117322815128467, 0.9155241897581574, 0.9192266513571555, 0.9228558694724528, 0.9264047162901546, 0.9298854300803779, 0.9332506802684025, 0.9365829375291858, 0.939804241649008, 0.9429799101325114, 0.9460729727237005, 0.9491224040040008, 0.9520447401074559, 0.9548097983209207, 0.9575791254355062, 0.9602620040144749, 0.962837905384662, 0.9653506697580807, 0.9677965116921665, 0.9701317165526099, 0.9723807015644371, 0.9745247599447097, 0.9766031484855906, 0.9786061082861193, 0.9805072981154596, 0.9823212647673895, 0.9840869687102307, 0.9857209657846379, 0.9872137301326801, 0.9886830708306487, 0.9900627442396213, 0.99134661056224, 0.992547845451821, 0.99367152507815, 0.9946914277519404, 0.9956222360556973, 0.9964412426894969, 0.9971966181843809, 0.9978821493501303, 0.9984542018792353, 0.9989373207302433, 0.9993541816328344, 0.9996566159543678, 0.9997684506121551, 0.9999086644205241, 0.99995535583904, 1.0, 0.9998505486671175, 0.9995221885615287, 0.9992120191888845, 0.9988103593604644, 0.9983653717375449, 0.9977770005366902, 0.997083432300185, 0.996324375933553, 0.995478194916398, 0.9945165060743334, 0.9935011223659097, 0.9924169486593412, 0.9912252632164397, 0.9899486914267503, 0.9885939452895207, 0.9871484171150494, 0.9855746305401741, 0.9839694907711528, 0.9822799135757698, 0.9804841398505979, 0.9786312494761025, 0.976680872566305, 0.9746647045176335, 0.9725666746342477, 0.9704517334129462, 0.9681850794052899, 0.965764948557509, 0.9633583034972414, 0.9608730438356591, 0.9583350619244317, 0.9556929011432383, 0.9529789526297527, 0.9501896956684688, 0.9473284282492707, 0.9443795124989202, 0.9413788552857297, 0.9382995804835932, 0.9351602166415616, 0.9319520114752554, 0.9286533550942346, 0.9253134927300598, 0.9219993852841832, 0.9185150706409453, 0.9149713943837054, 0.9112801749307126, 0.9076303256834088, 0.9039361785890292, 0.9001596419829343, 0.8963239611844659, 0.8924282152271407, 0.8884779219275718, 0.8845088693193148, 0.8804433361904614, 0.8763263329544695, 0.8721133763241768, 0.867901751707054, 0.8636222871279736, 0.8593113546412859, 0.8549507624311459, 0.8505027802289582, 0.8460520534993891, 0.8416031051356929, 0.8370524333915539, 0.8324601222253242, 0.8277778687171213, 0.8231119883203752, 0.8184525488346955, 0.8137003277985476, 0.8089128825175578, 0.8040274238089994, 0.7991808850944275, 0.7943462295582417, 0.7894243096187531, 0.7844727483984847, 0.7794267535402244, 0.7744276898414738, 0.7694069747057745, 0.76434876547903, 0.7592644299955583, 0.7541637077840203, 0.7490305256048856, 0.7438451361178401, 0.7386745782206631, 0.7334835895290598, 0.7283169590942705, 0.7230841372346309, 0.7178129908669657, 0.7125571341843023, 0.7072883658559773, 0.702073869853805, 0.6967746566037201, 0.6914616692781033, 0.6861530979248387, 0.680839910133082, 0.6754775999736825, 0.6701634258054318, 0.6648570316040348, 0.6595334065511518, 0.6542084280802326, 0.6488337776621906, 0.6435157444491298, 0.6382484799399805, 0.6329239490869953, 0.6276045216258247, 0.6222066957812481, 0.6169111070855894, 0.6117074385250378, 0.6064089395109996, 0.6011219697558238, 0.5957793171369565, 0.5905263826692376, 0.5853474487782871, 0.5801080572665749, 0.5748850650697794, 0.5696833426641861, 0.5644948895865171, 0.5592738386112308, 0.554130482772948, 0.5490046629409459, 0.5438584101282279, 0.538776113814461, 0.5337846898804616, 0.5287321460938493, 0.5237050614624047, 0.5187246836027651, 0.5137478439007793, 0.5087872003847365, 0.5038695349679324, 0.4989807406594377, 0.49409878244018685, 0.4892724936900662, 0.48443861420311957, 0.4796768313232224, 0.47494407379240305, 0.47024552687569654, 0.4655734300036641, 0.4608923905704915, 0.45629090247310783, 0.4517210435595442, 0.44722306681146523, 0.4427147394966281, 0.4382453661211631, 0.43381112625332835, 0.4294149932501219, 0.42502243329658274, 0.42070841145526344, 0.4164340186378637, 0.41219559068284256, 0.40799622798744667, 0.4038880425587551, 0.39976204391555886, 0.3956199057186907, 0.3915887570698191, 0.3875980055080951, 0.3836482178652658, 0.37973991125173107, 0.375898283714963, 0.37207118233620595, 0.3682882362184283, 0.3645269303379271, 0.3608356048332285, 0.35716697951753196, 0.3535651731876663, 0.3500617218726193, 0.3465387204119844, 0.3430623130412855, 0.3395849633325554, 0.3362073204190824, 0.33287115669794476, 0.3295811210644132, 0.3263350019460165, 0.32310827465148584, 0.3199536835268479, 0.3168792051776875, 0.31380626034675185, 0.31077894642473053, 0.3078466029823011, 0.3049039427889952, 0.30191246381583375, 0.29907756225043275, 0.2962842024581423, 0.2936048100806285, 0.29088626178238663, 0.2881892928353818, 0.2855660224517581, 0.28298676708472936, 0.2804471785863155, 0.27795578271056537, 0.2755527906870172, 0.27314157868036953, 0.2707755155641838, 0.2683921646805649, 0.2661223906052254, 0.26386368145946715, 0.2616773415319734, 0.25952917422419286, 0.2574563816322299, 0.2553801391142669, 0.2533484169528524, 0.2513520861767559, 0.24939564191854008, 0.24742714528026927, 0.24555570771366728, 0.24378796995575144, 0.24197930194181635, 0.2402100258311865, 0.23845884417652094, 0.2367689019560784, 0.23511517595282871, 0.23349719120376664, 0.2319144651877622, 0.23029232646065592, 0.22878802009674576, 0.22732362065332967, 0.2258773043161928, 0.2244612591020918, 0.22309181787359678, 0.22173371882087506, 0.22047213680399003, 0.21916642004629636, 0.21789408481463057, 0.21659024027140517, 0.21538975410182906, 0.21425325305767795, 0.21310149377375082, 0.21197793708983195, 0.21088391832698078, 0.20981434419964054, 0.208707073904833, 0.20769723681623006, 0.20670860084549483, 0.20580075610167367, 0.204846411949696, 0.20390360314884004, 0.20299782874559938, 0.20211369806272414, 0.20125056019560492, 0.20040777017828312, 0.19957026463120636, 0.1987680820867505, 0.19798353699021523, 0.19722848615271485, 0.19647612338359938, 0.1956622430159357, 0.19495272106333503, 0.1942543367411131, 0.1936598295958228, 0.19297196289486018, 0.19226935999173997, 0.1916168219516087, 0.19097691412998374, 0.19029546512402243, 0.18968580890032657, 0.18906545781581363, 0.18847369722493557, 0.18788839786834702, 0.1873712859845659, 0.1867907621259719, 0.1861393693612202, 0.18558725767928558, 0.1850386784405751, 0.18448534296994543, 0.18394467281201846, 0.18346239947196613, 0.1829200792417742, 0.18238332014311462, 0.18189678141189053, 0.18136341053948307, 0.18077024228583552, 0.1802565112425104, 0.17974332330467158, 0.17924889548788395, 0.17873345259642323, 0.1782391831601805, 0.1777217657409853, 0.17720507787169246, 0.17665550793912174, 0.17614255583986885, 0.17563077865174995, 0.17511113242382506, 0.1745882057356823, 0.1740657987400026, 0.1735348295137923, 0.17294834157367275, 0.17241553399590226, 0.17187515186296567, 0.1713293432720782, 0.17077377170761665, 0.17030154852409232, 0.16971983732615034, 0.16913579078821106, 0.1684702903310512, 0.1678890980353568, 0.16729275723198964, 0.16669442624935196, 0.16608678601521384, 0.16545749511120206, 0.1648328439745036, 0.16420849607525415, 0.16356260734275574, 0.1629074006966805, 0.16223868926938326, 0.16156516257697517, 0.16089423050631846, 0.16019955135272673, 0.15949568777396206, 0.15883605328862446, 0.1581065704631629, 0.15731275634813377, 0.1565767365741427, 0.15582978234037664, 0.15511106858842985, 0.15433736279848653, 0.1535096490643377, 0.15272402845413993, 0.15192663408432033, 0.1511856087886157, 0.15035648739158977, 0.14949920044651327, 0.14865713429728558, 0.14780555237500945, 0.1469628539963519, 0.14608948940862534, 0.14511663853378418, 0.144236890683137, 0.14334286403792054, 0.1424990418919172, 0.14157014127669235, 0.1406301441238202, 0.13968337815049595, 0.13872737810580096, 0.13776627705541805, 0.1367913435027281, 0.1358054411469071, 0.13481298687895807, 0.13381159958757594, 0.13277046151423968, 0.1317554053105549, 0.13068466709746177, 0.12965502743069202, 0.12861324089502987, 0.12761565510653594, 0.12654461507912332, 0.12550360297780555, 0.12441385136733309, 0.12331933930229207, 0.12224668632521282, 0.12113881106819853, 0.11999640904561797, 0.1188849586315377, 0.1177677250300666, 0.11663865029190337, 0.11551102570034393, 0.11438388902804514, 0.11324432944832369, 0.11209990215167377, 0.11087869074938747, 0.1097342747750932, 0.10859190176309699, 0.10743048593684454, 0.10626297230640379, 0.10513119530610343, 0.10394810273596705, 0.10278770378461366, 0.10159760068031946, 0.10040723006445502, 0.09919393328181939, 0.09800595238949755, 0.09681037586325786, 0.0956206346832605, 0.09445649549835478, 0.0932613378201252, 0.09206717842885714, 0.09078965294861828, 0.0896085559786509, 0.08845917438661635, 0.08726788113740581, 0.08607689629193353, 0.08494024752225099, 0.0837444416728302, 0.08248730931269008, 0.0813090319308832, 0.08013163687056643, 0.07898454109935729, 0.07780693415299933, 0.07658809984000474, 0.07542467753478277, 0.07426330183540478, 0.07318288568079895, 0.07201749026530828, 0.07080666542224616, 0.06966419907984801, 0.06852664379706165, 0.06740880449432592, 0.06628037352755797, 0.06511960646095605, 0.06400997582362696, 0.06290540395061064, 0.061862063888940666, 0.060762147584939905, 0.059622457565962496, 0.05854814027921806, 0.05748072441088741, 0.056523672504290204, 0.055458302806444565, 0.054408894364134514, 0.053370593949955164, 0.052345448722588894, 0.0512424597530278, 0.05025415841080308, 0.049287546362879964, 0.04831252978409075, 0.04734670173265776, 0.04645019985797444, 0.04549631241959235, 0.04455604405291424, 0.04362923346168714, 0.04271576107360961, 0.04180936253126594, 0.0409231331280118, 0.0400559231115963, 0.039194640814826195, 0.0383466656525366, 0.037528514939368644, 0.0367051844743404, 0.03583647519139303, 0.035049400689160175, 0.03427326378719867, 0.03353738492295931, 0.03278085149237253, 0.032093808695241983, 0.03135807744084385, 0.030639575094110135, 0.029872035856441596, 0.029195399501222574, 0.028547943473653935, 0.027894953331977945, 0.027256231958323874, 0.026648411550440166, 0.026036575260746528, 0.025399132026470865, 0.02482370036075082, 0.024261534839496415, 0.02372944643001538, 0.023192669912585454, 0.02265240803243181, 0.02214818564743244, 0.02165814776638478, 0.021221658284627295, 0.020755646564618525, 0.02024886899530554, 0.019823827920599307, 0.019412122650918042, 0.019059392532626177, 0.018669499864869946, 0.01824063618027854, 0.017890924175112666, 0.01755439709389741, 0.01731994322372605, 0.016999383446867952, 0.01667296456718728, 0.016392708948031024, 0.01612887013130922, 0.015833795968336187, 0.015608026252301108, 0.015430321549664608, 0.015226364152023159, 0.01503771656156634, 0.014886869729187253, 0.014725455448758914, 0.014551266379776096, 0.014425305876081873, 0.014313144865967284, 0.01427036113451383, 0.014178582318853746, 0.014000498968832143, 0.01395467111718015, 0.013918782229336468, 0.013957105152450078, 0.013934137109679768, 0.013880358278244248, 0.013891874078217466, 0.01391479880340397, 0.01398220419402189, 0.014024052432167106, 0.014062887766224691, 0.01413351306679011, 0.014216191954696108, 0.014284034885382, 0.014393893147970465, 0.014532514186540906, 0.014660550106020765, 0.014799985824209775, 0.014934210895011131, 0.01509814444358109, 0.015272149393540864, 0.015456208122705076, 0.015650280097091674, 0.01589139503500862, 0.016100602473948847, 0.016367002143104218, 0.016593788275544735, 0.01683418693920203, 0.017027715893860273, 0.017300786106060343, 0.01757800996139828, 0.0178680849781447, 0.018166060389661114, 0.018548124070004543, 0.018852084572743216, 0.019170084146178778, 0.019497038651409223, 0.019834749160669605, 0.02010844208039861, 0.020475323840804555, 0.02084718498557619, 0.021224181518989475, 0.02160643592538207, 0.02207234290527149, 0.022455461058032984, 0.02285254859554784, 0.023254229663007317, 0.023664823266934722, 0.024013733572053025, 0.02444945490744453, 0.02494227370132066, 0.02537843067533141, 0.02582141501299829, 0.0263512627148781, 0.026796785704048042, 0.027149711936776264, 0.027628227015337604, 0.028109690338967947, 0.028680762951769384, 0.029157506082964073, 0.029627914065067033, 0.0301220188870499, 0.03062219253137139, 0.0311136188167329, 0.031626619775711254, 0.032213885862972136, 0.0327262756074343, 0.03324649287740714, 0.03374705440366363, 0.034284309564685526, 0.034875495624616996, 0.03541519408617665, 0.0359616638544343, 0.03653491923649407, 0.03709062690931022, 0.03765270655399215, 0.03822060528205698, 0.03879384512488695, 0.03935965153941172, 0.03994396374758085, 0.04055040856005471, 0.04113939922846409, 0.04173274526219792, 0.04237759597548456, 0.04297296858129718, 0.04363862148822521, 0.0442382070129963, 0.04484682777447106, 0.04542444998540012, 0.04605356893264395, 0.04679233085240328, 0.04741703734449647, 0.048051785120049234, 0.04870177768991232, 0.04935303646919604, 0.050053380365223374, 0.05071453814006229, 0.05135793114407002, 0.05203976239063781, 0.052727722648045865, 0.053423571170870564, 0.05412269998207111, 0.054901567475564655, 0.05560231337012891, 0.056312597174095466, 0.05710186544592512, 0.05782064072438641, 0.05852665037171955, 0.0592716074074646, 0.060025553505933624, 0.06078192317509249, 0.061553573017594176, 0.06240923044833076, 0.06318669118129001, 0.0639760951889219, 0.06473770940666411, 0.06555432613061171, 0.06643286922404942, 0.06725947105030113, 0.06809759076390637, 0.06900669751055018, 0.06985952046013302, 0.07075751212701288, 0.07163441183925408, 0.07252635660009266, 0.07342454775178293, 0.07434608158514351, 0.07529325568695207, 0.07623962617143908, 0.07719973968680975, 0.07821882599150705, 0.07920045742306857, 0.08023949048123441, 0.08124801868487738, 0.08227460085606136, 0.08332911627467633, 0.08438934811122949, 0.08543842628180058, 0.08653749735999909, 0.08765233911162634, 0.08885733737289925, 0.08999499571742216, 0.0911533198707966, 0.09233202595935433, 0.09353093009283889, 0.0947416946222961, 0.09598182953429346, 0.0972725487851627, 0.09854830543997303, 0.09984587510603653, 0.10115290855538642, 0.1024957747570399, 0.10391150301506111, 0.10529083393379877, 0.10669500170474826, 0.10808478194870691, 0.10954342805902778, 0.11106385803391003, 0.11256325626815003, 0.11408836996432922, 0.11567437168397601, 0.11724695995922214, 0.11882924243807912, 0.12046063558388304, 0.12211925415376759, 0.12383419864849551, 0.12554440895489624, 0.12729667529045513, 0.12906481081774857, 0.1308635886547405