0.03012036554319011, 0.029583717083523062, 0.029117640778259336, 0.0287156694672884, 0.028326391939949434, 0.027969495588160316, 0.02759099122498693, 0.02729114111442143, 0.027025540391692728, 0.026754857914451296, 0.02649731228253653, 0.02621512370691975, 0.025982943884947166, 0.025759795854176187, 0.025539364199398305, 0.025324335526485393, 0.02510114783773606, 0.024897910243232617, 0.024698945353666343, 0.02450450360878469, 0.024314925537674448, 0.024102747530255316, 0.023927728574181382, 0.023779994200820057, 0.023612341503582983, 0.023452248349298883, 0.02325252597915402, 0.023115419073672178, 0.023000966018730865, 0.022876302509292335, 0.022761229666023616, 0.022668481152319037, 0.022573404496745896, 0.022456335448595464, 0.022391267650205705, 0.0223379604945585, 0.022291939509879708, 0.022265278812414305, 0.02223251723467731, 0.02223672743336105, 0.022255039669139727, 0.022270989733082017, 0.02232200926208036, 0.02239367646834481, 0.022475464355204363, 0.022574354463394147, 0.022668380449245802, 0.022806089482249655, 0.022961308338795644, 0.02313469750655557, 0.023326862818866746, 0.02355429240820646, 0.02378362504199453, 0.0240209011961711, 0.024294666962745126, 0.024589526888157274, 0.02490189877592248, 0.025240631090226617, 0.025610668878022606, 0.025992630512729962, 0.02639786888895335, 0.026812056507688416, 0.02726652068959275, 0.027748249600878995, 0.02824916763897113, 0.028774365740880086, 0.029287011268313547, 0.02986648291437037, 0.030495706579424565, 0.031118852396442468, 0.03176791124724384, 0.03240207460800599, 0.03310919842410982, 0.033852905013863274, 0.03460845949570062, 0.0353906221695644, 0.036165374807088396, 0.03700659293849571, 0.0379150730405344, 0.03880402437881615, 0.039722788376459234, 0.04063980353298165, 0.0416231241878421, 0.04267387710330081, 0.04371076032289793, 0.04477983742782183, 0.04581360299564224, 0.04695624457335108, 0.04816376915083098, 0.04936074136063059, 0.0505902777011543, 0.05182621589758731, 0.05312539371449149, 0.0544342119380679, 0.05580123299390574, 0.057200304306190435, 0.05866795518027115, 0.06012859789351505, 0.06159201655196781, 0.06312903953351717, 0.0647006685893563, 0.06630343362460855, 0.06794627893890556, 0.06962493588618175, 0.07133984611667726, 0.0730914182792264, 0.0748481689762312, 0.07667819975355215, 0.07857469018910061, 0.08047326721413792, 0.08241054029105056, 0.0843707846156276, 0.08638806672655462, 0.08845567188689032, 0.09054848377142236, 0.092680893146761, 0.0948039183525544, 0.09702213448768925, 0.09929482420350862, 0.10158578216105635, 0.10391584929001575, 0.10631181360735184, 0.10871741748534001, 0.11114564338185023, 0.11363593960854149, 0.11616625228237876, 0.11871010222069128, 0.12132399954986847, 0.12401241990249257, 0.12669936638666038, 0.12942740547552198, 0.13215257604131952, 0.13496788186178532, 0.13785852860466208, 0.1407456615496338, 0.14367337847072348, 0.14660828599162953, 0.14962074938557812, 0.1526819260038929, 0.15576927732944476, 0.15889536811380472, 0.1620587534675383, 0.16526211476269356, 0.16846521789359015, 0.17174975307898743, 0.17506999355405622, 0.17843797621047397, 0.1818283238314338, 0.18524186508449508, 0.18870665827632627, 0.19220679782434427, 0.1957527721359392, 0.19932182164092982, 0.2029382377960299, 0.20657627500594947, 0.2102496997973094, 0.2139620134236832, 0.2177042560788455, 0.2214315172497284, 0.22524770528930357, 0.22909418507205395, 0.23298672788374403, 0.2368912426204619, 0.24079045729277102, 0.24476014997308748, 0.24875746201886104, 0.2528113908776292, 0.2568595614357987, 0.2609494627677174, 0.2650522545295604, 0.269183007942236, 0.27330247228303656, 0.2774917601749925, 0.2817072418589544, 0.2859428200089223, 0.29020114051580587, 0.2944365114348739, 0.29874432559320674, 0.30308917136048064, 0.3074312403910922, 0.311792152880021, 0.31615673154860485, 0.32055541347784156, 0.3249583273976718, 0.3293903083685634, 0.3338366084169675, 0.33832586859447655, 0.34279536696671215, 0.34726304847645667, 0.35176184941825234, 0.3562719819456696, 0.3608072199889501, 0.3653356575759298, 0.36985244785443083, 0.3744017462199967, 0.3789574177506624, 0.3835371993013996, 0.38810069533361746, 0.3926265063101132, 0.3972039011809145, 0.40178157529095654, 0.4063680952146072, 0.4109429303840218, 0.41550431313899905, 0.4200767308429666, 0.42464511150389034, 0.4292152252863314, 0.4337720586656145, 0.43829067307271524, 0.4428378147911264, 0.44741062834926193, 0.451932113210043, 0.45644383267217464, 0.4609459613974991, 0.4654345232554747, 0.4698594875342814, 0.47432696396716595, 0.4787761334225725, 0.48323810269756434, 0.4876443170253248, 0.4919877983662492, 0.4963605636478617, 0.5007096608666061, 0.505071467350918, 0.5093661000673309, 0.5136140687959885, 0.5178621505434893, 0.5220824486503934, 0.5262726150109966, 0.5304344358015395, 0.534542721770736, 0.538644411850844, 0.5427117544549306, 0.5467823584849655, 0.5507734373406348, 0.5546605396379162, 0.5585891830568709, 0.5624764733668567, 0.5663695182615868, 0.5701659549332616, 0.57391753806044, 0.5776315337427637, 0.5813020434157908, 0.5849385450692758, 0.5885173227551985, 0.5920033499178343, 0.595494235763164, 0.5989338599430666, 0.6023466682758644, 0.6056782209008307, 0.6089535393149734, 0.6121800478747536, 0.6153520032897473, 0.6184365541993746, 0.6215004707385644, 0.6245197057266497, 0.627462500391788, 0.6303453972298881, 0.6331423115780948, 0.6359060204212332, 0.6386018558290616, 0.6412376375559344, 0.6438079878025827, 0.6463042902366033, 0.6487428165205845, 0.6510895730420272, 0.6533947513432538, 0.6556294574620576, 0.6578065142936721, 0.659897209296712, 0.6619485961358206, 0.6638922899721612, 0.6657653342770956, 0.6675336505126777, 0.6692669596343577, 0.6709159019469021, 0.6724997207836495, 0.6740069097016721, 0.675439684766308, 0.6767919573110925, 0.6780637688324296, 0.6792603030575791, 0.6803779654670694, 0.6814096945793265, 0.6823691906021672, 0.683289354757953, 0.6840823371814484, 0.6847964762754498, 0.6853673990737352, 0.6859300120459066, 0.6864469122724379, 0.6868362482265729, 0.6871435460973547, 0.6873658275125909, 0.6875084454525405, 0.6875626870286082, 0.6875396328826459, 0.6874328194412026, 0.6872169093026651, 0.6869454478137784, 0.6865739346927436, 0.6861335803247304, 0.6856072717155758, 0.6849952838704988, 0.6842978813018791, 0.6835086839921408, 0.6826420614281847, 0.6816904184746146, 0.6806819447038797, 0.6795576671001139, 0.6783482106309222, 0.6770593137089013, 0.6756879640827338, 0.6742316902755967, 0.6726963535323831, 0.6710671125988955, 0.6693696735112756, 0.6675902343752906, 0.6657106609212118, 0.6637709427446579, 0.6617721545937664, 0.6596669584492291, 0.6574826963251358, 0.6551906367871753, 0.6528533883210356, 0.6504714598576737, 0.6479722467589543, 0.6453973583888647, 0.6427167756380955, 0.6399959797527303, 0.637179538017558, 0.6343106647899697, 0.631366684330534, 0.6283844795349801, 0.6252888558292491, 0.6221245456086779, 0.6188894487182576, 0.6155858905612656, 0.6121695103677981, 0.6087370979925201, 0.6052719595777954, 0.6016991065983229, 0.5980621430751905, 0.5943752601552146, 0.5906111699309842, 0.5867852118256357, 0.5829010950371373, 0.5789581736123938, 0.57493352177817, 0.5708789561766956, 0.5667606141093458, 0.5625938655621504, 0.5583721198770564, 0.5540966941580052, 0.5497689044570352, 0.5454099806108417, 0.5409788957372547, 0.5365005191673421, 0.5319507910282498, 0.5273845359145028, 0.5227638428882334, 0.5181099075486966, 0.5134131701532149, 0.5086605281664835, 0.5038845231836638, 0.4990627269132879, 0.49421084192897824, 0.4893225847469149, 0.48443540039782057, 0.4794746462836728, 0.47444975168567716, 0.46943536668043295, 0.46439194627271424, 0.45931574971950123, 0.45421962168061575, 0.44908023440892053, 0.44393867707129664, 0.43877452117441273, 0.4336704331050527, 0.42845586413613646, 0.4232003258502548, 0.41796404984319163, 0.4127150747627571, 0.40744008109995944, 0.40217142497702335, 0.396873244458988, 0.39158933773090426, 0.38629760816808195, 0.38099701130857416, 0.3756947818516909, 0.3703681071159566, 0.36506372511537794, 0.35975806648643704, 0.35446079715674694, 0.3491566400550426, 0.34386194914323354, 0.33856695866741127, 0.333279450945195, 0.32804334594640816, 0.3227697306479063, 0.3174704232927444, 0.31223116514766525, 0.30700593846218704, 0.3017974952266927, 0.29660441787947844, 0.291453559470031, 0.2862954645467541, 0.28115973367699143, 0.2760090010623119, 0.27092627436074423, 0.2658392930851508, 0.2608087982841498, 0.25584439675982107, 0.2508601849269669, 0.2459063773901448, 0.2409735120032068, 0.2360853180306752, 0.23120779925835724, 0.22639014934017704, 0.22160685705987393, 0.2168778422755614, 0.2121648701302894, 0.20748983444013672, 0.20285660906361536, 0.19826465336712115, 0.1937189684865344, 0.18921208108582385, 0.18470586409135528, 0.1802943939087448, 0.17592676198989068, 0.17165331997198144, 0.1673707858105585, 0.16311180428290215, 0.15893349316652652, 0.15480510823104401, 0.15071556329911032, 0.14669109312146691, 0.14275022479939092, 0.1388260654594448, 0.13495710877554384, 0.13108944246637189, 0.1273393185622852, 0.12362959424678409, 0.1199894250136185, 0.11640396996221139, 0.11289006157221043, 0.10941465279566044, 0.10603849779547533, 0.10267465270836905, 0.09937230982554697, 0.09612896592837673, 0.09295041983412765, 0.08984563126496224, 0.08678936268720365, 0.08379590460800494, 0.08084274379984102, 0.07797792697175161, 0.07516685399251666, 0.07242669373173764, 0.06974822850725994, 0.06710514392493896, 0.06455409977142658, 0.06205324120563581, 0.05962549454964278, 0.05725858203626537, 0.05496608882968902, 0.05272002963916683, 0.050541597471664874, 0.048419519755161955, 0.0463600546782164, 0.04434982326983952, 0.042416919817404954, 0.040593270702714256, 0.03877715832960211, 0.03702496736632143, 0.03533746835699376, 0.03371129063534041, 0.03214746295066024, 0.030645437365032748, 0.029204668790181687, 0.02780602672945279, 0.026488486737448393, 0.02522022709770211, 0.02402060289547869, 0.0228781933696739, 0.021796599525241857, 0.02076693677121859, 0.019842586634463973, 0.018918587395335616, 0.018052489083081883, 0.017179611427743945, 0.016434524949343735, 0.015788753268589844, 0.015140285478545231, 0.014545205253897209, 0.014017251195318426, 0.013524509645545938, 0.01310595955544881, 0.01271263442241958, 0.012370260757102505, 0.012052482055518505, 0.011811833093057883, 0.011667857382546915, 0.011512431498974933, 0.011404356523127194, 0.0113516571820916, 0.011333347348809171, 0.011359228857673324, 0.011428072089440966, 0.011538684964643914, 0.011697873444341589, 0.01188756842834953, 0.012135996044838877, 0.012399661390355624, 0.01270098874747204, 0.013122352233669582, 0.013484680353646193, 0.013849844878257472, 0.01429223496536034, 0.0147677407761163, 0.0153334394574436, 0.01586383590683824, 0.016441372180949373, 0.017033328732144082, 0.017655401996800536, 0.018282089601537932, 0.01896268834380659, 0.019753794139151813, 0.020470739035481286, 0.021214433666854264, 0.021987067547377472, 0.022778495194343374, 0.023623715995799686, 0.024453468005002844, 0.025304006750460153, 0.02615780096302465, 0.027047227457138685, 0.027987883188403045, 0.028902348533707975, 0.029831868910026964, 0.030812235784025307, 0.031763105702694486, 0.03275376004758422, 0.033726277133462663, 0.03471068830174267, 0.03570948087512318, 0.03671279343229948, 0.037741294105026524, 0.03875703517033679, 0.039779255269530966, 0.04082795693260953, 0.041856814523373004, 0.0428911890380175, 0.04392706666599301, 0.04496490641037222, 0.04605941654280738, 0.04709104875676521, 0.04812747216513269, 0.04916172424314293, 0.05019573320633239, 0.05127482592517237, 0.05229914886392437, 0.05333728406758096, 0.054356909854452365, 0.0553741392796155, 0.05639178375907863, 0.057400310280114164, 0.05842470281318489, 0.05941888293206698, 0.06040714272908436, 0.06141909508294865, 0.062388980811724, 0.06334153938555606, 0.06429843577522461, 0.06524629014874826, 0.06622959416971592, 0.06715179170582915, 0.06807371556684184, 0.06897761412633019, 0.06987219226707021, 0.07076339932216194, 0.07163652198534322, 0.07249623843327957, 0.07334769977155788, 0.0741873461498499, 0.07502546775873643, 0.07583921020053014, 0.07667277875899198, 0.0774581712002907, 0.07823287214010591, 0.0789871914114367, 0.07974057275548503, 0.08048178280104717, 0.08121071941438268, 0.08192733269309135, 0.08263825867276459, 0.08332942505996631, 0.08402204089011497, 0.0846879449357337, 0.08534294725294127, 0.08598310845734872, 0.0866169905526182, 0.08727852232326512, 0.08788605127202363, 0.08848535520353777, 0.0890697705209197, 0.08965345634941775, 0.09022734406458813, 0.09079447779403749, 0.09135355669234638, 0.09191552537152607, 0.09245816380367786, 0.09298646673510776, 0.09351772174437611, 0.0940429014705871, 0.09457710469422224, 0.09508980270048371, 0.09561341872017493, 0.09611735849165044, 0.09660743977744869, 0.09710948402883725, 0.09760982376293399, 0.09813959434919109, 0.09863449669660468, 0.09912332939463912, 0.09962346498025891, 0.10012597159577993, 0.1006234840474045, 0.10113357677219015, 0.10168732703172895, 0.1022008097418698, 0.10272190715672923, 0.1032431367871456, 0.10378197613355146, 0.10430702801289218, 0.10486698460653716, 0.10543589263939644, 0.10603461305975079, 0.10662175364299946, 0.10720323426877477, 0.1078193773305923, 0.10844902748757207, 0.10912503983203335, 0.10978065605184921, 0.11044525417428093, 0.11113933099798347, 0.1118526636210501, 0.11256089676616217, 0.11331855031157485, 0.11415112180960792, 0.11494397856671437, 0.11576258130703065, 0.1165571238469706, 0.11743556073194782, 0.11839736410315681, 0.1193194755564075, 0.12027210149702408, 0.12124127703999789, 0.12225873076656862, 0.12330790198354363, 0.12438964490161446, 0.12550482350637404, 0.1266410335679748, 0.1278273816051848, 0.12906630666671304, 0.13032209803750464, 0.1316161393023043, 0.13293597682297084, 0.13431066548121653, 0.13570674613536662, 0.13716467233663956, 0.1386633809604452, 0.14021188630072384, 0.14179426420866612, 0.14342489703890232, 0.14509619965063805, 0.14681374251732163, 0.148558418022285, 0.15037335815006447, 0.15228490242704656, 0.1541895101395934, 0.1561461393880136, 0.15814593628784146, 0.16020911431798962, 0.16234771540625736, 0.16451429343149918, 0.16673607672066998, 0.16898686537414093, 0.1713234844412739, 0.1737082731192948, 0.17615594185495762, 0.1786592134354687, 0.18119877655986666, 0.1838175475178577, 0.18650977693551743, 0.1892394370836298, 0.1920275582837767, 0.19489847172848693, 0.19780177036570584, 0.20074086749798334, 0.20376955795664703, 0.20685816696004802, 0.20998713084383372, 0.2131991101564301, 0.21647747607955162, 0.2198085228301401, 0.22320045657229254, 0.22665618533425513, 0.23017027448235003, 0.23375400033510754, 0.23739053566879326, 0.24108937539295763, 0.24484253085880647, 0.24866689069931497, 0.252554287460003, 0.2565018603256419, 0.26051110690288687, 0.2645898757439846, 0.26872108016403834, 0.2728980285773858, 0.2771543211825286, 0.2814708202791945, 0.2858552972212942, 0.29029058028795673, 0.29480573011706873, 0.29935802809726364, 0.303970620782785, 0.308588487235903, 0.3133267705184868, 0.31813907997428514, 0.3229857095774121, 0.32788838619003946, 0.33283602390307226, 0.3378506994086787, 0.34294187452076974, 0.3480610577352789, 0.3532343890500187, 0.35844914461697425, 0.3637299344919784, 0.36902994964207975, 0.37441619794004655, 0.3798502236830952, 0.38533811049039407, 0.3908651256538889, 0.396457027392142, 0.40207350749637966, 0.40773571281407756, 0.41338553335318223, 0.4191433102956282, 0.42491657136063626, 0.4307554977265666, 0.4366311195693389, 0.4425547930642889, 0.44850042826667474, 0.4544986459732995, 0.46051180753922566, 0.46655932339068823, 0.47261743346651264, 0.47873290431327914, 0.48484593087342537, 0.49102316274503843, 0.49722577040961974, 0.503472726722966, 0.5097206728219568, 0.515980128358567, 0.5222751979206223, 0.528590414147213, 0.5349298126239274, 0.5412807850300705, 0.5476004643235772, 0.5539890462306365, 0.5603885555552427, 0.5668297562944801, 0.5732437301242288, 0.5796735639900443, 0.5861036017002154, 0.5925401329830675, 0.5989085118963484, 0.6053623645200712, 0.6118309581872481, 0.6182765296773293, 0.6247183456346715, 0.6311032798792418, 0.6375400320488395, 0.6439831961276922, 0.6503950162422678, 0.6567947611196076, 0.6631624916072245, 0.6695363274551984, 0.6758822242669082, 0.6822214328635973, 0.6885400097428759, 0.694841921758795, 0.7011144842008945, 0.7073386448347435, 0.7135637017956749, 0.7197598543852333, 0.7259509543297764, 0.7320819511926513, 0.738167948484519, 0.7442354937976087, 0.7502672057500419, 0.7562442528293088, 0.7622017516607077, 0.7681057570241793, 0.7739802232176883, 0.7798095505640686, 0.7855578341975424, 0.791297061388681, 0.797011537483495, 0.8026436388835826, 0.8082235561843372, 0.813717969368019, 0.8191931671490683, 0.8246471790325102, 0.8299997551574159, 0.8352936198079138, 0.8404634956443596, 0.8456433518524554, 0.8507788877455325, 0.8558211338690257, 0.8608143455020559, 0.865717766507905, 0.870552136776492, 0.875274912262444, 0.8799722366533088, 0.8845980780609541, 0.8891429743609264, 0.8936106251018722, 0.8980092688848214, 0.9023180868453302, 0.9065456830528904, 0.9106937515425139, 0.914759609425614, 0.918746155063239, 0.9226438536032866, 0.9264085766657073, 0.9301408954332543, 0.9337832632705823, 0.9373363902493425, 0.9407968167641859, 0.9442026342594733, 0.9474741295364728, 0.9506545880828625, 0.9536979027354657, 0.9566991268653249, 0.9595840829459352, 0.9623946329905775, 0.9651067411079667, 0.9677200800965341, 0.9702343063840763, 0.9726703064495885, 0.974982551927132, 0.9771957994398432, 0.9792763294571901, 0.9812942134975716, 0.9832030910962022, 0.9850168990585034, 0.9867276072056366, 0.9883496932431688, 0.989851977688095, 0.9912396578696215, 0.9925379060977741, 0.9937323829694351, 0.9948163626469231, 0.9958038875664272, 0.9966737778677677, 0.9974542821782186, 0.998129735348606, 0.9987016234015195, 0.9991672883512428, 0.9995298024143052, 0.9997865192690768, 0.9999392020201262, 1.0, 0.9999437296425979, 0.9997582158748126, 0.9995000942459686, 0.9991381802277614, 0.9987061283555099, 0.9981338409216182, 0.9974172471178978, 0.996649745301655, 0.9957798186709114, 0.9948320554897989, 0.9937563382678111, 0.992584283994403, 0.991310767424167, 0.9899394848112457, 0.9884431276883701, 0.986881586705603, 0.9852172280533023, 0.9834622487791388, 0.9816112819752303, 0.9796586549616387, 0.9776194539626533, 0.9755279635206061, 0.97329771443228, 0.9709784230958932, 0.9685362983193642, 0.9660455135870603, 0.9634488163776885, 0.9607840524236081, 0.9580319687099548, 0.9551792670644167, 0.9522582995830927, 0.9492584035018875, 0.9461696996515871, 0.942999867318021, 0.9397582189503859, 0.9364291621435171, 0.9330287728235818, 0.9295470437011321, 0.9259915513057219, 0.9223715280852394, 0.9186713219770342, 0.9148525370751359, 0.911020882583745, 0.9071195560682648, 0.9031396413914389, 0.8991054015308081, 0.895015227568898, 0.8908510832547278, 0.8866256568635975, 0.882340550391092, 0.8779973563159279, 0.8735936769772171, 0.8691395607378817, 0.8646318732001912, 0.8600523055697677, 0.8554448017478302, 0.8507927180789621, 0.8460865146072218, 0.8413342011301157, 0.8365480664986594, 0.8317071838600861, 0.8268204497292371, 0.8219007098634155, 0.8169432420102336, 0.8119244261390904, 0.8068995008041336, 0.8018628064087383, 0.7967681540790935, 0.7916440081661809, 0.7864401640569253, 0.7812682893432342, 0.7760634183496058, 0.7708388308127494, 0.7655901828176616, 0.7603167502518339, 0.7550260614958962, 0.7497354007067457, 0.7444070650969018, 0.7390648129911481, 0.7336704111152007, 0.7283101277944743, 0.7229981705701548, 0.7176093769410167, 0.7122162130802748, 0.7067867813802242, 0.701392963475428, 0.6959503665503342, 0.6905593925512541, 0.6851666669642658, 0.6797926984820019, 0.6743998192793021, 0.669048970718427, 0.6636626920830797, 0.6582864887539316, 0.6528631633740647, 0.6475181484218863, 0.642232712079095, 0.6369041003507585, 0.6315920389151898, 0.6262778040441851, 0.6210049288926974, 0.6157364468503972, 0.6105047518410848, 0.6052938900784544, 0.6000720799646764, 0.5949112642440907, 0.5898080420667212, 0.5846905772401086, 0.5796011816611815, 0.5745356985062336, 0.5695065486692025, 0.5645072297339393, 0.5595416883919971, 0.5546094495354335, 0.5496797288039583, 0.5448213259151586, 0.5400055476397468, 0.5352167036903409, 0.5304654018703465, 0.5257712964799309, 0.521095889429703, 0.5164130207707015, 0.5118279316911629, 0.5072833050571622, 0.5027935603745384, 0.498331541388319, 0.4939033346103053, 0.4895323632840782, 0.4852068626276775, 0.48093032510221145, 0.4766978907585561, 0.47248954069992916, 0.4683567585975299, 0.46427191452482536, 0.4602849098135367, 0.4562920140387808, 0.45229356386563163, 0.4484139838754956, 0.44458440848729314, 0.4408094968485047, 0.4370813923062065, 0.4334279254630176, 0.4298015694664885, 0.4262294279706735, 0.4226771715510231, 0.4192183636917541, 0.4158189687202305, 0.41246527232015345, 0.40915750354256675, 0.4059128393078083, 0.40272205630367425, 0.39961723579522135, 0.39653079942845004, 0.39345143485636946, 0.3904834242029028, 0.387568504262803, 0.3847121952257219, 0.3819033562030999, 0.379161638562341, 0.37645881432115275, 0.3738105416630493, 0.3712166323889639, 0.36867687337631105, 0.36621492360593066, 0.3637797088988895, 0.3613992048885315, 0.35902910488594747, 0.35676207268127147, 0.3545497892805564, 0.35238364248350457, 0.3502681524410876, 0.34816986483191165, 0.346159052070873, 0.34418816347733316, 0.3422740334090516, 0.34040707431709083, 0.33860570859008915, 0.33683018799907377, 0.33511681034144086, 0.33343403577466457, 0.33179861597635313, 0.3301740433960458, 0.32863586331053735, 0.3271356904962913, 0.3256844065572535, 0.32427527459343697, 0.32296492241589975, 0.3216314595897091, 0.32028874726784773, 0.3190486655602016, 0.31784740084490143, 0.3166910210872362, 0.3155648061531666, 0.31445339942888134, 0.3134040709598988, 0.3123893907688975, 0.31143665902454537, 0.3104859746775798, 0.309555048554714, 0.30867402245601944, 0.30782471453703475, 0.30701562100723584, 0.3062261684432063, 0.3054625369211728, 0.3047322813432416, 0.30402977588758373, 0.3033767035720341, 0.30272418299390297, 0.3020834046711068, 0.30148434146609027, 0.3009086638297553, 0.30037137759511434, 0.2998376841372542, 0.2992723993287419, 0.29878739613709904, 0.29831884940778014, 0.29784493346013263, 0.2974101938654184, 0.2970114247659315, 0.2966001207454763, 0.2962024084255401, 0.2957896232979731, 0.2954202475734573, 0.29512156797573347, 0.29476312831578255, 0.29441651038248023, 0.29402745473242403, 0.29370775763947127, 0.29343335769600126, 0.29311893066444167, 0.2928109148190595, 0.29250565435694265, 0.2922078165121983, 0.291873476802212, 0.29158640864243596, 0.29129861503130716, 0.29100024026245935, 0.2907104588154196, 0.2904150195737416, 0.2901190198626115, 0.28981874814800235, 0.2895415136885311, 0.2892274457946582, 0.28893280614854344, 0.288605942435589, 0.28827429384702613, 0.287875799906263, 0.287539368100292, 0.2872316993873811, 0.2868677237398829, 0.2864941336686905, 0.2860743389131881, 0.2856838367646066, 0.28527688308624755, 0.28485873268067163, 0.28442584018612305, 0.2839791377757737, 0.2835153960865542, 0.2830158570602508, 0.2825224347729568, 0.2820111478860132, 0.2815281891500894, 0.28097446464971976, 0.28041125644933884, 0.2798237628810644, 0.27921918612118773, 0.2785623462525332, 0.2779260201937967, 0.27726482691843257, 0.2765869708560771, 0.27588747978218003, 0.2751714372318135, 0.27442732579161955, 0.2736346513261727, 0.2728496127866301, 0.27204056212019273, 0.27124066428815785, 0.2703793068110136, 0.26950099975743996, 0.26859412870326493, 0.2676646792336485, 0.2666764978300609, 0.2657055278082054, 0.26472506547291347, 0.26370130615390636, 0.26265315281618756, 0.26156858836769975, 0.26047296390959307, 0.25934148752208314, 0.25819681107199605, 0.2570264456006466, 0.2558292232088851, 0.2546081211144981, 0.25334180686455493, 0.2520727854922116, 0.25077766748497443, 0.24946208331908348, 0.24811504379542712, 0.24680285778054553, 0.24539872623645811, 0.24397352838406883, 0.24245798260361567, 0.24099869637096322, 0.2395550567364266, 0.23804002703131433, 0.23650273070136313, 0.23494460362752057, 0.23336295850791347, 0.23176483733215886, 0.23013912423647984, 0.22849230012268817, 0.22682454743645897, 0.22513607668796765, 0.22340057347678577, 0.22167475919452906, 0.21992752037920266, 0.21817530820066913, 0.21638476146442664, 0.2145685916633548, 0.21274129275251852, 0.21089540798523412, 0.2090008628015998, 0.20712305124841213, 0.20521704352059336, 0.20330332333328208, 0.20137159958400014, 0.1994372270578394, 0.19746987645461037, 0.1954888433621509, 0.19349186467357718, 0.19148106592226363, 0.18950743645902132, 0.18746424411110107, 0.1853426538615368, 0.18328959720558471, 0.18122362565599734, 0.17920128621120798, 0.17710477673944452, 0.1749954638734071, 0.17288491097874117, 0.17076714725485914, 0.16858547302769325, 0.16646168778272835, 0.16433004657198855, 0.16218864023917637, 0.16003991427801553, 0.1579205432508897, 0.15575510697956962, 0.15355357763576666, 0.15138699058988025, 0.14921657207513933, 0.1470244894252265, 0.14485099537356294, 0.14270270053087794, 0.14052116386756813, 0.13833750500172867, 0.1361579201536603, 0.1339798184903048, 0.1318143896612088, 0.12963961501745305, 0.12745533978132906, 0.1252902662609956, 0.12312917466128494, 0.1209381403133211, 0.11879114439886249, 0.11672494327350073, 0.11457664933543063, 0.11243812207175276, 0.11028959500163295, 0.10817360188431797, 0.10606416516005866, 0.10396735049246192, 0.1018804471603192, 0.0998105512098022, 0.09774400948197334, 0.09565992920209272, 0.09362082778208908, 0.09159258521946492, 0.08955594596039801, 0.08755388681679747, 0.08557408700902126, 0.08359470707832463, 0.08162900895536326, 0.07970943258245552, 0.07776877935158155, 0.07584658422255017, 0.07394027495150503, 0.07205168285896857, 0.0702288598295808, 0.06837044641954315, 0.06649340758879999, 0.06468232832462774, 0.0628900573708265, 0.0611381472928151, 0.05938174153552269, 0.05763033768640378, 0.05591794761344195, 0.054225885570884313, 0.0525730331295071, 0.050920159803708356, 0.04932670239748865, 0.04771374796872355, 0.04612539678143919, 0.04457743256816883, 0.043035876634672704, 0.04153543451317614, 0.04004207140044791, 0.038574511944748, 0.037180344784733796, 0.03575778818758925, 0.03432873139926151, 0.032966113594905505, 0.03162873761663321, 0.03033515742988953, 0.02904584595053122, 0.027827936187544942, 0.026585332277182246, 0.025371330257270317, 0.024176220880224357, 0.02301941696426627, 0.02190822652603775, 0.020802965897479948, 0.01972548761215167, 0.018715372862810473, 0.017687730007057246, 0.016733301803941423, 0.01575847699204824, 0.01481467690701778, 0.013890600906314485, 0.013008246879950995, 0.012214292897832803, 0.011381359986906203, 0.010579803204493221, 0.009802258843386306, 0.009062214668694363, 0.0084004008301987, 0.007711956517812354, 0.00705461865897515, 0.006442297440496602, 0.005843340711042819, 0.0052811384832952375, 0.0047410135140670264, 0.004230330340951624, 0.0038096860185546613, 0.003348817656630827, 0.0028890588270783007, 0.002494547214613588, 0.0021284862437863494, 0.0018064541699159965, 0.0014942714815817438, 0.0012529974883103575, 0.0009919423711639609, 0.000761035253076642, 0.0006273715221071944, 0.0004464446626535923, 0.0002739571328444681, 0.00015976933532648184, 7.478757495694797e-05, 6.228340986949036e-05, 2.8629246173547035e-05, 0.0, 2.9323797929937527e-05, 8.615248435143545e-05, 0.00019138864636367655, 0.0002995697896269177, 0.00048069481368953176, 0.0006383866746649745, 0.0008256758260089026, 0.001051187738280707, 0.0012945756318457201, 0.0015663152070872625, 0.0018658815522906533, 0.002192814832147434, 0.0025639707988534613, 0.0029422982538492982, 0.0033585182055055644, 0.0037896377525790414, 0.0042478576130041855, 0.00472746762212055, 0.005239408949641788, 0.005791697482656782, 0.006353053201364689, 0.006940545729443993, 0.00759901933281519, 0.008232234885925454, 0.00890263612820478, 0.009589899945848072, 0.010304522383347822, 0.011042013992241407, 0.011810400863145009, 0.012623173209081358, 0.013440505991154476, 0.014284115901565538, 0.015169558409294749, 0.01606263302961613, 0.016973933825793146, 0.017920030997502442, 0.01889118858910888, 0.019867286336713887, 0.020890494725809058, 0.021942429531529695, 0.023011838464598085, 0.024105043162566734, 0.025287095220481403, 0.026419675775786976, 0.027589017033293656, 0.028774853080243284, 0.02998773744916471, 0.03120730821828068, 0.03247552685293256, 0.03374462348038142, 0.03506529940145518, 0.03640921054527044, 0.03781631449101657, 0.03920204985573279, 0.04060965727410504, 0.042047408645421336, 0.043510434344235634, 0.044981381555158295, 0.046496880525393434, 0.04808559686787594, 0.04964319449993701, 0.05122787651623298, 0.05283139991714932, 0.05447047504001044, 0.056143465264911846, 0.057833354842036826, 0.0595495140217735, 0.06129318263381095, 0.06306148078471063, 0.06482275989084209, 0.06664757902100771, 0.06849669763185766, 0.07039696190266981, 0.07229219221097717, 0.07420343290848282, 0.0761533082444989, 0.0781293140689966, 0.08014222476435345, 0.08216961152787607, 0.08420294865572442, 0.0862874750431798, 0.08839815393545772, 0.09057374718791913, 0.09273263821018211, 0.09494847228451848, 0.09716188566395793, 0.09940579480240462, 0.10166136398854354, 0.10396791654655023, 0.10631925205857051, 0.10868153330693268, 0.11107365657098943, 0.11348892956429944, 0.11594144299792829, 0.11839945365660114, 0.1209138547856806, 0.12344320565887718, 0.12601603372168405, 0.12861692361701582, 0.13125820095296437, 0.1339148107140069, 0.136601210256705, 0.13931760951200406, 0.14206420983969337, 0.1448624454185436, 0.1476673337427811, 0.1504789474475612, 0.15335092262813824, 0.15625344399634336, 0.15918673951893084, 0.16215102220507302, 0.16515843904075936, 0.1681837687370178, 0.17124131355516792, 0.1743125524591041, 0.1774370724983793, 0.18060092510684195, 0.18378738582421522, 0.18700606759575628, 0.1902730118185519, 0.1935544436476908, 0.19689053486262645, 0.2002360722905121, 0.20361613638944506, 0.20701724816109265, 0.21046745967363217, 0.2139256923945573, 0.21744555328468523, 0.22099718704795246, 0.22458077133766982, 0.2281964590687783, 0.2318550002692387, 0.23553391838799814, 0.23924585907475412, 0.2430000961479749, 0.24677684108276898, 0.25056846108308567, 0.254414357934594, 0.2582924327982009, 0.2622226276561787, 0.2661626057582543, 0.2701425422228449, 0.2741481317427694, 0.2781870353861137, 0.2822457361271301, 0.28635222836183877, 0.29048128857511274, 0.29465255550773295, 0.29885490523784447, 0.3030949034246703, 0.30735834121861866, 0.31163967768865036, 0.31596695416801057, 0.32032426992288804, 0.32476063716143133, 0.32917147170694144, 0.3335589444442618, 0.3380410436123302, 0.3425512815421354, 0.34709621576799393, 0.3516616143762607, 0.3562737614433705, 0.3608928979889571, 0.3655407418799117, 0.3702009290709535, 0.3749068987965582, 0.37962078520085385, 0.3843817920831214, 0.38916760065670364, 0.39400322319687525, 0.3988347728342004, 0.40365860261892733, 0.4085447640994486, 0.41345347941157473, 0.4183765129226975, 0.42333049147459684, 0.4283375080557843, 0.4333294907227659, 0.4383437565181498, 0.4433570817502821, 0.4484167986735362, 0.45351414203708124, 0.4586091045110929, 0.4637231520092446, 0.4687985109689599, 0.47395587558677377, 0.47914960732939693, 0.4843314672712037, 0.4895278320984506, 0.4947169087530857, 0.4999432816809967, 0.5052290121905182, 0.5104720045630108, 0.5157282618536756, 0.5209530339367411, 0.526238547795048, 0.5315320719394897, 0.5368330406616533, 0.5421408495084394, 0.5474137038116991, 0.5527384430265979, 0.5580842820689066, 0.5634112987411795, 0.568741004935493, 0.5740421896064795, 0.5793790677723538, 0.5847240772273523, 0.5900569253436581, 0.5953880119541735, 0.6007245857778362, 0.6060489542665797, 0.6113126627068228, 0.6166362154431247, 0.6219512017463638, 0.6272757444287854, 0.6325697856851384, 0.6378294790259317, 0.6431076510626879, 0.6483736287666789, 0.6536373603660959, 0.6588755374918629, 0.6640720695704364, 0.6692853413151025, 0.6744814601358817, 0.6796397894353013, 0.6848019029702102, 0.6899434383691029, 0.6950637046138174, 0.7001619577900828, 0.7052360795935133, 0.7102880610016971, 0.7152796195610166, 0.7202860865341204, 0.7252641557824446, 0.7302410512150838, 0.7351567782685485, 0.7400581466061362, 0.7449130735816037, 0.7497377882934475, 0.7545165223224065, 0.7592791723257498, 0.7639728058276691, 0.7686698011573538, 0.7733283168168041, 0.777914415102921, 0.7824978866063997, 0.7870413236356724, 0.7915385059173956, 0.795991943556002, 0.8003783682602663, 0.8047450313864929, 0.8090657982049322, 0.8133372243645985, 0.8175602113487426, 0.8217220912663368, 0.8258475176354566, 0.8299282173122666, 0.8339493662253231, 0.8379180737668412, 0.8418507788051995, 0.8457099485242466, 0.8494713372986428, 0.8532271121524471, 0.8569244865102508, 0.8605747948942127, 0.8641519875094621, 0.8676668713022928, 0.8711243092894168, 0.8745203751273457, 0.8778410271250399, 0.8811137279575038, 0.8843419260488327, 0.8874826211530485, 0.8905586990970078, 0.8935746426564272, 0.8965183507446948, 0.899355485875166, 0.9021699240692741, 0.9049137792170909, 0.907565366937679, 0.9101693966738958, 0.9127268314161556, 0.9151809049133504, 0.9175626833024794, 0.9198755827059936, 0.9221105777909879, 0.9242452823480657, 0.9263355924192436, 0.9283495641133122, 0.9302921946559547, 0.9321518722294518, 0.933949156226135, 0.9356526269133147, 0.9372791938191142, 0.9388323718226019, 0.9403032496573797, 0.9416509831300687, 0.9429711305094639, 0.9442364720644653, 0.9453905465397473, 0.9464647347778984, 0.9474149839910617, 0.9483342275181581, 0.949222226601183, 0.9499690503166784, 0.9506360678527074, 0.9512070559677969, 0.9517156355964892, 0.9521215082698476, 0.9524697869884322, 0.952735316945622, 0.9529434760454346, 0.9530407807089601, 0.9530373007137225, 0.9529753367218509, 0.9528313270063267, 0.95257358786178, 0.9522700590166207, 0.9519217615199267, 0.9514472978665159, 0.9508926474815367, 0.9502234225709049, 0.9495131784669157, 0.9486973871650182, 0.9478273540699484, 0.9468753055026511, 0.9458512077192979, 0.9447359483340205, 0.9435544210292287, 0.942278934324531, 0.9409257236174192, 0.9395018567525669, 0.937993665133646, 0.9363948587212698, 0.9347369185662054, 0.9330030290368716, 0.9311725451872548, 0.9292912413172373, 0.9272947898202848, 0.9252686816394046, 0.9231666127001822, 0.9210215534579841, 0.9187668192494342, 0.9164411195370804, 0.9140451995309385, 0.9115798113932572, 0.9090072163515239, 0.9064100513114722, 0.9037701210681084, 0.9010320686515677, 0.8982283697629493, 0.8953492466763617, 0.8924181355610108, 0.8894193571783094, 0.8863623401474273, 0.8832433359833315, 0.8800766169460528, 0.8768349506314281, 0.8735350362339921, 0.870177770989816, 0.8667640706354974, 0.8632869038081589, 0.8597641604621149, 0.8561542015997271, 0.8525286527044093, 0.8488493253136724, 0.8451427786745633, 0.8413566878905697, 0.837499604383295, 0.8336205903008876, 0.8296940388882037, 0.8257491029440734, 0.8217277617979081, 0.8176363571120794, 0.813535191525579, 0.8093923379073492, 0.805231650263259, 0.8010064142997626, 0.7966981228588488, 0.7924066615974951, 0.7880781816343916, 0.783720808727367, 0.7793218843694568, 0.774877410762727, 0.7704169674524637, 0.7659261890450555, 0.7613892436392011, 0.7568442306744693, 0.7523079629703548, 0.7477057156502515, 0.7430813367822242, 0.7383961393974109, 0.7337359598854752, 0.729066801735488, 0.724364736983044, 0.7196453391667493, 0.7148661152946214, 0.7101215236882942, 0.7053610412319037, 0.7005862901696468, 0.6957988358602339, 0.6910214330406173, 0.6862103807479835, 0.681376291133242, 0.6765542546314239, 0.6717266326193031, 0.666925274565275, 0.6620865393513972, 0.6572039874252424, 0.6523717699933956, 0.6475390807798296, 0.6427298488601735, 0.6378974061089011, 0.6330445051825843, 0.6282258567633382, 0.623412698810398, 0.6186089481532444, 0.6138101876761743, 0.6090473068606193, 0.6042649945814594, 0.5994957739606825, 0.5946914136723029, 0.5899572576202778, 0.5852706321239227, 0.5805594330860422, 0.5758657235343726, 0.5711837881481093, 0.5665286567982873, 0.5618615250641268, 0.5572510958518322, 0.5526606261846062, 0.5481019118534763, 0.5435534964959267, 0.5389945055808789, 0.5344992920801255, 0.5300279643770163, 0.52558169855485, 0.5211616096134689, 0.5167992898642857, 0.5124308163246692, 0.5080932539129195, 0.5037527514314696, 0.4994833595783914, 0.4952873828959007, 0.4910753909619809, 0.4868984789298179, 0.48268277470892906, 0.47858683736089996, 0.4745935828029826, 0.4705544584527029, 0.46655365772120055, 0.46259020273118456, 0.45866726951362696, 0.4547849702232614, 0.45094084675520213, 0.4471368306265761, 0.4433453891227316, 0.4396261462202234, 0.43592921015777814, 0.4322918311247812, 0.4286941147773821, 0.42511012798089, 0.42159689753984064, 0.41815673319432717, 0.41471974762650116, 0.41132580713003314, 0.4079659060108678, 0.40466006586016084, 0.4013590327916249, 0.39814495801942446, 0.39497256483105325, 0.39184901954820234, 0.388760666763048, 0.38571575169242395, 0.3827145573170834, 0.3797573182453924, 0.3768641375098145, 0.37399281790186995, 0.37117232690403146, 0.3683912842482492, 0.3656558668536471, 0.3629566220279717, 0.36031314207477255, 0.35768239804681917, 0.3551320285496027, 0.35262422289775724, 0.3501670511123083, 0.3477436297030047, 0.3453434724612118, 0.3430088243899849, 0.34071600431904875, 0.33848094023333125, 0.3362697049826327, 0.33411431710096773, 0.33198628100743405, 0.32990100770444264, 0.3278567534737687, 0.32585591835034416, 0.3239084505638053, 0.321988516842578, 0.3201098114590674, 0.3182425881865446, 0.31644841598915857, 0.3146457568272053, 0.3129331154882119, 0.31127247363446936, 0.309627148815267, 0.308017494060242, 0.3064591793328051, 0.3049180248292334, 0.30338199201595073, 0.3019155014739643, 0.3004819193814601, 0.2991420174363596, 0.297765596769124, 0.29641918089584995, 0.2951131508436126, 0.29384034303949497, 0.29254683785907454, 0.2913447538762113, 0.2902183000856948, 0.2890655022891058, 0.2879424893912606, 0.2868165894887223, 0.2857547571176834, 0.2846999428496462, 0.2836911495971524, 0.2827058569399183, 0.28178746191504006, 0.28084235636925914, 0.2798740722689791, 0.2789833714685268, 0.2781128875248904, 0.2773046525083098, 0.2764678470668657, 0.27563626380629164, 0.27484289579631804, 0.2740680394335773, 0.27331230266562045, 0.27257214260982604, 0.27182451320303636, 0.2711194980991673, 0.2704281106802698, 0.2697498173152907, 0.2690840630494432, 0.2684634633540996, 0.267816853715357, 0.2671828783491539, 0.26654737903909326, 0.26593772613112027, 0.26528959002966257, 0.26470388688565766, 0.2641233936119651, 0.2636048795305167, 0.263026598680705, 0.2624344223462222, 0.2618726327404642, 0.26131525428516933, 0.26076030034071335, 0.2602099390300062, 0.2596128303664676, 0.25907279043535403, 0.25853110196169066, 0.25803798205870876, 0.25748588357033586, 0.25693946214303903, 0.2563866756334219, 0.2558330753996613, 0.2552792391475632, 0.25472161983277797, 0.2541398469050316, 0.25357840154583833, 0.2530115022601198, 0.25240814581608, 0.2518327921613329, 0.25124222818646436, 0.25065034991026364, 0.25004906205119715, 0.2494992175579875, 0.24887071849037468, 0.24817046832061807, 0.2475360219669314, 0.24688972785334445, 0.24628452934133907, 0.2456073236013577, 0.24490477307344607, 0.24421010630423087, 0.24350387644987279, 0.24275908977742253, 0.24203178285669683, 0.24127820491777144, 0.24052359056460038, 0.23975362994492944, 0.23894964658596107, 0.2381510557629945, 0.23739549967805698, 0.236555964280508, 0.23570309069460005, 0.23481380316461234, 0.23393562711820906, 0.23305206858299754, 0.23214033666921868, 0.2312127966232209, 0.23028245781550946, 0.22932084825578805, 0.2282996386559744, 0.22731168433318838, 0.22630490948707402, 0.22531527510819285, 0.2242666648103968, 0.22318297485108302, 0.2221035254840459, 0.22100616645950064, 0.21989754235264747, 0.2187635537095294, 0.21755897208870864, 0.21639669740764428, 0.21521392946707332, 0.21405757253518853, 0.21282922434868368, 0.2115642885201682, 0.21030507808036936, 0.20902803478716306, 0.2076974865032254, 0.20638982663525382, 0.2051013413533639, 0.20375062995260904, 0.20238365433044728, 0.2009713052620237, 0.19957580043888556, 0.19815078008508175, 0.19672202681077233, 0.19527577204287622, 0.1938323736568152, 0.1923499093929891, 0.19085631475804943, 0.18934334916437434, 0.18781595781226965, 0.18626240359953383, 0.184708316315691, 0.18314776687343415, 0.18156416007442036, 0.17996725798181487, 0.1783268058502763, 0.17670802107639258, 0.1750910244142431, 0.17344249311233245, 0.17178179820203882, 0.17010534260409832, 0.1684219810533996, 0.16672075264969835, 0.16501619258220246, 0.16330086963552218, 0.16160844375905908, 0.15986880444197107, 0.15812829635935435, 0.15637299243815186, 0.15461096015947592, 0.15278928901295052, 0.1510211223590325, 0.149282415785432, 0.14749200940355958, 0.1456961090734172, 0.1438831096920004, 0.14207877652772138, 0.14025342196632032, 0.13844140312934144, 0.13662436191133842, 0.13479626920579915, 0.13297183244853159, 0.13115971066150225, 0.12932664600588747, 0.12749207695712053, 0.12564849264349756, 0.12381328613659488, 0.12197483844564362, 0.12013931561579871, 0.11830409013884857, 0.11652810155120909, 0.11468765623052432, 0.1128178236071325, 0.11099203364092945, 0.10916955185266557, 0.10730697543780683, 0.10549787623980782, 0.10372538221775784, 0.1019168710550874, 0.10011389582515412, 0.09831156701843498, 0.09652159794174009, 0.09474875087726778, 0.09297090567744555, 0.09120107927477138, 0.08945955123300059, 0.0877043474546738, 0.08593151213668467, 0.08420054463016695, 0.08247871465991219, 0.0808089852580027, 0.07910149034020938, 0.07739763279864663, 0.07571727954701993, 0.07404957898819907, 0.07242796086193752, 0.07078210646848335, 0.06918737713969554, 0.06756756552354601, 0.06593989120296379, 0.06435779523024324, 0.06279132155590036, 0.06124326095489649, 0.05970813123210725, 0.058237052513096785, 0.05672858451313341, 0.055239451560017215, 0.053764182936825715, 0.05231397137981072, 0.05087718157960934, 0.04946514986860188, 0.04807167651860758, 0.04675267247447166, 0.04538974634011853, 0.04407026708841728, 0.0427488238737686, 0.04145035898146083, 0.04018785937343433, 0.038932878874113015, 0.03774742884946056, 0.036532501268337764, 0.03534290169657479, 0.03419277207126629, 0.03305069143514681, 0.031923022409748286, 0.030832017492254487, 0.02976486330037662, 0.028748010179350948, 0.027724945743826324, 0.026746970586328665, 0.025771550242998674, 0.024822099769432164, 0.02398201030570127, 0.023073249892946995, 0.02213485271166583, 0.021293096082563728, 0.02047669894187512, 0.01974402824014973, 0.018970862784206233, 0.018232937382560006, 0.017515712904023564, 0.01682669326289112, 0.016170858291566968, 0.0155366519216356, 0.015013784057422739, 0.014424207653786424, 0.013866677274497422, 0.013313860234718615, 0.012821553513721096, 0.012389662503542443, 0.011950183915703915, 0.011540599139049462, 0.011199002001060868, 0.010843192693774118, 0.010560911025968924, 0.010261296951645545