0.14847560809438132, 0.14713127325741396, 0.14586510928672902, 0.14453816015483564, 0.14330258381009361, 0.14207134820146142, 0.1407894985195524, 0.13957183913192397, 0.138320119559865, 0.1371058031870845, 0.1358892193006395, 0.1346681251804905, 0.13344833782893598, 0.1321715495379266, 0.13095620238013445, 0.12973688443074863, 0.12852076865991657, 0.12729475726091083, 0.12608127254613927, 0.12485055093533821, 0.1236198059762612, 0.12237248891520744, 0.1211445348962624, 0.11988139244382999, 0.11865754631327805, 0.11743201304480837, 0.11621305947920874, 0.11498465072281945, 0.11377701576230338, 0.11254647149484369, 0.1113176980433721, 0.11009847991266514, 0.10887235446483799, 0.10762007684346324, 0.1064020299569414, 0.10518454306531642, 0.10398716790507886, 0.10276883943932054, 0.1015538890415093, 0.10033951431867162, 0.09912718919004043, 0.09793235484808488, 0.09672198374812349, 0.09551177031279781, 0.09430703242170163, 0.09310455683027258, 0.09190034864467687, 0.09070254490057769, 0.08951292991259013, 0.08831771801743875, 0.08712450678803585, 0.08595646528229663, 0.08476406736833195, 0.0836031763410387, 0.08241311276727604, 0.08122728507041112, 0.0800297867249244, 0.07885323903108658, 0.07769709917351432, 0.07652277799070965, 0.07535156459418373, 0.07421424337059133, 0.07304469310645677, 0.07187426398613099, 0.07071357658383008, 0.06955620910641291, 0.06843682899158957, 0.06728108337638719, 0.0661326711146162, 0.06498571295852812, 0.06384294419018213, 0.06274542476454559, 0.061605009639002166, 0.06047170012873422, 0.05934227695241344, 0.058217874853807035, 0.05711624860630659, 0.055998666198270146, 0.05490697714689256, 0.05379691649324115, 0.05269268495160484, 0.051630102551591395, 0.050531957482865396, 0.049453725313184954, 0.04836747211353067, 0.04728810024939514, 0.04627076037704018, 0.04519699113030033, 0.04414386333869585, 0.043086011812488285, 0.04203665865847614, 0.04103533206053035, 0.03999643988718316, 0.03900060121562931, 0.037975804930275255, 0.03696130408870687, 0.03596549814855618, 0.034968630400752515, 0.03400810834066188, 0.033025839555409144, 0.03205360279668569, 0.031147802643121624, 0.03018721144021505, 0.029249133576063756, 0.02831095291818377, 0.027384379122212837, 0.026485722012324575, 0.025578887840346575, 0.024723507650627138, 0.023834079988798985, 0.022957725307337095, 0.02214563815387928, 0.02128754971559625, 0.020457216668737288, 0.01962655860062743, 0.01881037424809347, 0.018052120491935407, 0.01725802944251662, 0.01647074574563608, 0.015708976909047948, 0.014961624861136927, 0.014250430041842524, 0.013528549465854401, 0.012852901268734533, 0.01215737478873178, 0.011478543039266589, 0.010867810107730382, 0.010215098005728129, 0.009599505338704623, 0.00898212111753972, 0.008384000731858582, 0.007826728679975883, 0.007263327675327235, 0.006715717451754641, 0.006191868969687529, 0.005687022680577747, 0.005201117564524857, 0.004734162321144021, 0.00431981843274125, 0.0038867777037064986, 0.0034749332000201276, 0.003090683313335166, 0.002720297256228455, 0.0023973193626178227, 0.002066867820872212, 0.0017596164170924663, 0.0014871469593385307, 0.0012247519882017787, 0.0010146817075356287, 0.0007965267074532537, 0.0006039872873314717, 0.000469270757512181, 0.00032367180156519647, 0.0002428956177586981, 0.00014710585333060336, 8.052784945600975e-05, 4.089672810668646e-06, 0.0, 7.1396529699127e-05, 0.00011414865715036236, 0.00018661482574095853, 0.00028355905374102775, 0.0004159743262640393, 0.000595903938339401, 0.0007850490358313842, 0.0009972551623900804, 0.0012491062561594362, 0.0015315856649059125, 0.0018371984129545171, 0.0021827161717194866, 0.0025928774337066396, 0.0029966496461493177, 0.003434166498981992, 0.003877152017350278, 0.004386235425656207, 0.004982289919703886, 0.005550408011021907, 0.006155238346731221, 0.0067645201366686265, 0.0074470258046215685, 0.008168567447366768, 0.008921333480808676, 0.009710338998512235, 0.01056440798593336, 0.01142350152062424, 0.012310008301884686, 0.013248829596761592, 0.014226416982834235, 0.015254717596169866, 0.01630933302545015, 0.01738755229730378, 0.01852533639915323, 0.01970308346617843, 0.020953500932841207, 0.022208306152569388, 0.023503505503103973, 0.02484472058899109, 0.026229047156898725, 0.027664430578140713, 0.029134595729917813, 0.030647639675022254, 0.032206479983412, 0.0338097752470773, 0.035478407769217325, 0.037168640337515685, 0.03890643876718677, 0.04068912355385065, 0.04251831517849851, 0.04438894908436175, 0.04631213722581984, 0.04827027879725956, 0.05028829307968061, 0.0523526278133345, 0.05450621417103825, 0.056658675449492706, 0.05882582260068018, 0.06108175605585901, 0.06338517733830536, 0.06575055957689296, 0.06814793148329962, 0.07057624902003033, 0.07307408581110726, 0.07562016416323171, 0.07823670561770796, 0.08087724348570652, 0.0835524665271191, 0.08629536675124112, 0.08908763735841216, 0.09192426431877514, 0.09481637568405747, 0.09779157535359843, 0.10077858237801639, 0.10381725095428103, 0.10692421740493997, 0.11006362128337, 0.11324356368147176, 0.1164885118693523, 0.11978448000613914, 0.12313909833888444, 0.1265357659865119, 0.12997707615488746, 0.1334765902369067, 0.13702650058579552, 0.14061119146270298, 0.14426351518578115, 0.14799473224152662, 0.1517416508957, 0.15553938619065452, 0.15936827133956974, 0.1632692373888658, 0.16723330466929753, 0.17123013766437076, 0.17527640999028818, 0.1793589366153767, 0.18350492206105093, 0.18769106171974426, 0.19193366307972765, 0.19622336209119814, 0.20057938406118891, 0.2049603368392876, 0.20939926594499828, 0.21387380327294794, 0.2183957773221924, 0.22295049267105005, 0.2275676899080513, 0.23222233185643176, 0.23693053772985503, 0.24168275949124485, 0.246508378404266, 0.2513438473120187, 0.25622134186620893, 0.2611457147119406, 0.26611327633413884, 0.2710988717862366, 0.27615409480251907, 0.28126739784479793, 0.2863999074759454, 0.2915725754942269, 0.2967692879391174, 0.30202239556676935, 0.30731681462126514, 0.31264379352770955, 0.31800738155416475, 0.32342120143232606, 0.32885442429010603, 0.33432581410776996, 0.3398291176745275, 0.34536662899504167, 0.35096469340215164, 0.3565648279203923, 0.3621595657527128, 0.3678303128896764, 0.37353024123603407, 0.37924964458662064, 0.38500706888336783, 0.3907949873656202, 0.39660450159687305, 0.4024395092247192, 0.40831089331408654, 0.4141931605892697, 0.420118653368515, 0.4260452597209363, 0.4319949883760517, 0.43793188298900926, 0.44392906080906425, 0.44994680205878707, 0.45597884843298825, 0.46202746316046645, 0.46808147002823974, 0.4741619848244746, 0.48028174033240545, 0.48638496864890945, 0.49250137699451607, 0.49860920907186895, 0.5047513389644342, 0.5108815659097848, 0.5170429300717425, 0.5232100468665415, 0.5293885836034035, 0.5355639717972951, 0.5417494432305511, 0.5479303092296636, 0.5541132339366884, 0.5603062131337907, 0.5664889545345884, 0.5726620367589998, 0.578843535601461, 0.5850215999757585, 0.5911848101149981, 0.5973540515378457, 0.6035159996743928, 0.6096696283099585, 0.6158138941689406, 0.621942570721105, 0.6280655751567767, 0.6341808797569627, 0.6402764418018051, 0.6463573049528675, 0.6523939233140523, 0.6584456103866045, 0.6645073360845258, 0.6705150029088551, 0.6765028115790562, 0.6824088315906414, 0.6883609861453646, 0.6943159847996101, 0.7002099349507455, 0.7060772184470049, 0.7118909485118747, 0.7177050111133144, 0.7235019883690508, 0.7292507849136926, 0.734967299147967, 0.7406117197609097, 0.7462654043516826, 0.7518568975156342, 0.7574376314357579, 0.7629777655312774, 0.7685063632969767, 0.7739595257298331, 0.7793625888451732, 0.784733740244717, 0.7900612325190144, 0.7953402039496319, 0.8005778981269664, 0.8057441754239764, 0.8108902513090911, 0.8159899799748886, 0.8210343184567849, 0.8260270215878678, 0.8309439503382945, 0.8358336585183485, 0.840658690540671, 0.8454375458708159, 0.8501587685574796, 0.854807434270536, 0.8594130226539993, 0.8639295384202397, 0.8684167529678911, 0.8728403537627741, 0.8772179331993213, 0.8815104850268849, 0.885729771014139, 0.8898942584955883, 0.8939924779430614, 0.8980366406801307, 0.9019985521968747, 0.9058333296098554, 0.9096665117977878, 0.9134269890031702, 0.9171389707877493, 0.9207498737850022, 0.9242870130351519, 0.92775248433348, 0.9311441066902209, 0.9344470268107739, 0.9376908268674076, 0.9408386871589263, 0.9439313061981938, 0.946945249801832, 0.9498904919370663, 0.9527446740419769, 0.9554976619360169, 0.9581956749450806, 0.9608122586874492, 0.9633484079915098, 0.9658010656633768, 0.968186945032785, 0.9704727442636, 0.9726764637238944, 0.9747847276034624, 0.9768245741926551, 0.9787803113278719, 0.9806516515647358, 0.9824383174869249, 0.9841297075193105, 0.9857475481422168, 0.9872483710714044, 0.9886979739209708, 0.9900595560670999, 0.9913552072104502, 0.9925383278267818, 0.9936168930295861, 0.994629266816471, 0.9955539743639945, 0.9964040115514009, 0.997151979437331, 0.9978132324852549, 0.9983877466751211, 0.9988755171250056, 0.999259762959411, 0.9995762352703985, 0.9998038366865387, 0.9999455279737922, 1.0, 0.9999687811485916, 0.9998493682358999, 0.9996435427723013, 0.9993515590606544, 0.9989736851061498, 0.9985050357319015, 0.9979568988584973, 0.9973170182072194, 0.996599504449482, 0.995797105009114, 0.9948960603645837, 0.9939270519063634, 0.9928866633735814, 0.9917480167337422, 0.9905269838753163, 0.989200798616469, 0.9878194180615022, 0.9863649055077577, 0.9848187537138701, 0.9831923755964741, 0.9814825367919179, 0.9796981287635088, 0.9778210145052215, 0.975882114606965, 0.973865329697654, 0.9717831175312398, 0.9696115772822882, 0.9673949986711574, 0.9650709225543838, 0.9626752330608249, 0.9601826090354166, 0.9576485602934125, 0.9550676822234725, 0.9523886270843542, 0.9496412874316643, 0.9468147131417037, 0.9439343448072236, 0.9409690928063864, 0.937958294884241, 0.9348814549055755, 0.9317667623413544, 0.9285575803174986, 0.9252741321586772, 0.921944733361899, 0.9185549772540881, 0.9150942396177733, 0.9115882635768253, 0.9080075323820995, 0.9043888972581009, 0.9007136321697006, 0.8969959292648918, 0.8932095723075578, 0.8893852962168496, 0.8854940099941011, 0.8815536537690805, 0.877544579319226, 0.8735117864261635, 0.8694525609797652, 0.8653241877119461, 0.8611523492670381, 0.8569096881567705, 0.8526577293244825, 0.8483859229104367, 0.844048906239945, 0.839673980170634, 0.8352713261856607, 0.8308228606406225, 0.8263120118409195, 0.8218003143627403, 0.8172552651110452, 0.8127053493839475, 0.8080942117692567, 0.8034087509581093, 0.7987489663834251, 0.7940609659412802, 0.7893552922128404, 0.7846141783939092, 0.7798665490099791, 0.775078021263312, 0.7702697732515545, 0.7654623504955603, 0.7606157111504053, 0.7557190596628571, 0.7508475903903793, 0.7459610873987934, 0.7410415050437723, 0.736131368211363, 0.7312310193531384, 0.7262951886607862, 0.7213512492518344, 0.7163706754433723, 0.711417837796635, 0.7064910686800022, 0.7015230883435165, 0.6965534592263697, 0.6915729167509043, 0.6866045108304462, 0.6816228767890266, 0.676659386734393, 0.6716983725877188, 0.6667229862724057, 0.6617729036384357, 0.6568485943413421, 0.6519074101744861, 0.6469750654967587, 0.6420500409794238, 0.6371388813480637, 0.6322473186058982, 0.6273599112185629, 0.6224868524991187, 0.6176549302719555, 0.6128101378530743, 0.6079542484825123, 0.6031511665033107, 0.5983664830752151, 0.5936115183672147, 0.5888652589263345, 0.5841189103668296, 0.5794200226332744, 0.5747434592574502, 0.5700902250588528, 0.5654612933036762, 0.5608718190405284, 0.5562924957524221, 0.551741016448729, 0.5471754909369834, 0.5426873153999445, 0.538241003941644, 0.5338073870951879, 0.5294042667146335, 0.525032471748805, 0.5206927964454955, 0.5163989220091483, 0.5121241048725114, 0.5078843235158295, 0.5036775613169446, 0.4995098656856066, 0.495373550792415, 0.49128014955870936, 0.4872059882703072, 0.4831900789735726, 0.4792115577889771, 0.47528140959629445, 0.4713782644221563, 0.4675019959694027, 0.4636805293231566, 0.45989901360792557, 0.4561644170616714, 0.45246347567320555, 0.4488133116536367, 0.44519504857013953, 0.44161971230074215, 0.4380862456856881, 0.434597617263402, 0.4311602584530047, 0.42775788879376675, 0.4243998634351073, 0.42103590453068374, 0.41777326010401317, 0.4146092839348789, 0.41142358068499757, 0.40828380326272296, 0.4051498136667457, 0.4021066974570643, 0.39909796709488615, 0.39614309622273736, 0.39323159075993963, 0.3903701453820874, 0.3875452123744949, 0.38475553328924317, 0.382020393719313, 0.3793291216622148, 0.37667790730872747, 0.3740750218434264, 0.3715184601136238, 0.36900272042704363, 0.36653081699489903, 0.36411815918135887, 0.36173165665293483, 0.3593920794739581, 0.35709363561319746, 0.3548390757802066, 0.35260997834928254, 0.3504444667830302, 0.3483156376136985, 0.3462342735445314, 0.3441940314562291, 0.3422089095523633, 0.3402484459436546, 0.33831367636817844, 0.33643716383568534, 0.33460016046311947, 0.3327907408223387, 0.3310333095006735, 0.32929955977994146, 0.32761944062790976, 0.3259758422532009, 0.3243905102545338, 0.3228164803670876, 0.3212600491021929, 0.3197619182416232, 0.31829865164786864, 0.31687504543561973, 0.31547971017728593, 0.314106703441588, 0.3127802601262366, 0.3114861217095695, 0.31024969851090317, 0.30901558860067063, 0.30778027900253413, 0.3066144934360529, 0.30547780682290115, 0.3043788380754899, 0.30329790231421905, 0.30225038329772475, 0.3012247164649601, 0.30022642609500094, 0.2992794206853789, 0.2983308569970149, 0.2973832769653586, 0.2964907793329315, 0.2956219804098547, 0.29478274099180857, 0.29395871730801526, 0.2931349706704418, 0.29235753364175227, 0.29159976126097137, 0.2908818316177501, 0.29015927267209346, 0.28943403321595046, 0.28875210241661187, 0.28808679705153134, 0.28746084576252184, 0.28682425293102176, 0.28621688235622034, 0.2856105038332208, 0.2850196518493881, 0.28442023454581683, 0.2838608923205967, 0.283312042285125, 0.28277584992352967, 0.28225020146676644, 0.28172289025050445, 0.28121805995741705, 0.28072137465042635, 0.2802323406141963, 0.2797504513653059, 0.2792790655199094, 0.2788094145585083, 0.2783494240624034, 0.2778902809102981, 0.27743599690044446, 0.27697175738614266, 0.27652718533154913, 0.2760642098371146, 0.2756263156450743, 0.2751885759879728, 0.27478942929143124, 0.274346108435068, 0.27388082453778667, 0.273442330753605, 0.2730024494472306, 0.2725645891305752, 0.2721200379443257, 0.27170133256970413, 0.27124752996194296, 0.2707917470223803, 0.2703061336168804, 0.2698477007919508, 0.2693901732144636, 0.26891941283971776, 0.2684426595907234, 0.267977553011956, 0.2674851922030132, 0.26696715961708606, 0.26646410291245953, 0.2659525704198544, 0.26540637123980704, 0.2648801073010818, 0.2643532189926385, 0.2638036038653771, 0.2632433427364163, 0.2626773630141376, 0.2620944323070895, 0.261512046004598, 0.2609051928881105, 0.26028734535239145, 0.2596478030599853, 0.2590081999059704, 0.2583689070270607, 0.2577022264927834, 0.2570232199154433, 0.2563121945593138, 0.25561006901024524, 0.2548691062653272, 0.2541414097950048, 0.25339785351694993, 0.25266567031216103, 0.2518872441107699, 0.251062418706, 0.25025970169898276, 0.2494407339553246, 0.2486469695207558, 0.24779058477965324, 0.24688437093224844, 0.2460049837567766, 0.24510940402408193, 0.24419771222520326, 0.24326998008578726, 0.24235598849982462, 0.24139260884207187, 0.24041503909231146, 0.2394127601823336, 0.23840759722324478, 0.23736136160110385, 0.23632898351827236, 0.23527990344800137, 0.23425697651047037, 0.2331697476678954, 0.23205720577221364, 0.23094392383647996, 0.229816034505047, 0.22863220464541492, 0.22748037967875162, 0.2263181771665175, 0.22513225935128248, 0.22393063987789708, 0.2227187876632442, 0.22148600208594058, 0.22025546907114252, 0.2189917018517425, 0.2177147897584477, 0.21642482442370176, 0.21512191456359994, 0.2137997251356811, 0.21247213315148014, 0.2111316541811984, 0.2097720488342889, 0.2084072810115989, 0.20706999701926854, 0.20567532156112456, 0.20422827488677114, 0.20281949035707758, 0.20139856052152214, 0.1999723372382401, 0.19852746723157302, 0.1970926378605344, 0.1956242096837764, 0.19414694770512428, 0.19262741458012667, 0.19113721780583587, 0.18966912968255312, 0.1881549519196667, 0.18663334971319293, 0.1850993494208545, 0.18356415377014798, 0.18201154604672595, 0.1804637929230699, 0.1789089685411925, 0.1773435852127752, 0.17577627033829993, 0.17418731907177282, 0.17261011078866137, 0.17102671617182802, 0.16943636706156828, 0.16784231386589513, 0.1662641848799542, 0.1646585002494588, 0.16305016670411956, 0.16145755199842413, 0.1598424802911284, 0.1582421389941374, 0.15662371398803152, 0.15500571695381998, 0.1533662577781218, 0.15175214933067543, 0.15011430080621876, 0.14850250689155706, 0.14688961095508823, 0.145303278288872, 0.14368632604483325, 0.1420597023228882, 0.14044838735477463, 0.1388388942300949, 0.13722512858096123, 0.13562118819859717, 0.13401849831453808, 0.13242021012356997, 0.1308251885548063, 0.12924416228043767, 0.12765553410818173, 0.12608352589900287, 0.12450368964044642, 0.1229300550919855, 0.12133050835163516, 0.11977393032221711, 0.11823783553085768, 0.116689730803357, 0.11514840008332443, 0.11364515288353007, 0.1121143485337571, 0.11053609741156765, 0.10903131675833046, 0.10753283967346641, 0.10606962757130697, 0.10458173882165549, 0.10311617159984664, 0.10164565760444126, 0.1001856797078456, 0.09873375310283089, 0.09729548287868937, 0.09586534931933112, 0.09444899593985027, 0.09304351994871896, 0.09163101015163687, 0.09025010551228443, 0.08891835083163614, 0.08755364456161176, 0.08620212107064977, 0.08484307667248382, 0.08352045800263064, 0.0821930307332552, 0.08089669945912603, 0.07961178387662057, 0.0783644333923667, 0.07709998659477911, 0.07582988371332523, 0.07459536911920948, 0.07337356519913608, 0.07221635260859398, 0.07101402305694726, 0.06982269381350605, 0.06865309606144263, 0.0674988987485869, 0.06633928609351164, 0.06521809671052622, 0.06414179570047737, 0.06304453499773455, 0.061963067202527096, 0.06085975462983118, 0.05981412620736189, 0.05875720452320512, 0.057741387856840895, 0.056737824672216816, 0.055757206096378645, 0.0547778652148299, 0.05384201266645644, 0.05288661168236376, 0.0519469316869443, 0.05099700085432928, 0.05009164345459396, 0.04919631160700919, 0.04831934682018799, 0.04745624452717552, 0.04663551974703482, 0.04579680060658051, 0.044947909927632666, 0.044143597503630096, 0.043353120356948174, 0.042615270020954596, 0.04184764072946036, 0.041079270976560715, 0.040345548649737994, 0.03962630905411832, 0.03889298302043475, 0.03820586966655583, 0.037518295833696716, 0.03685782448523311, 0.036209239013979655, 0.035597227844127534, 0.03496969596759775, 0.03438029233779197, 0.033776662167514585, 0.033187677045458344, 0.03261685563403582, 0.032055620925456496, 0.03148886166224439, 0.03095745983489558, 0.030438189243185528, 0.029937374995458798, 0.02944114193268686, 0.028959571413101765, 0.028486971532495083, 0.028026203965717842, 0.027548632636683383, 0.027114491508101243, 0.026726139892013615, 0.02630668043414252, 0.02589889602109919, 0.025499891640233887, 0.02511486604066974, 0.02473918910351168, 0.024375358637420252, 0.02402160547767231, 0.02367512200678504, 0.023341184433721466, 0.023037195016250157, 0.022719007143786683, 0.022410878430269093, 0.02208015551299943, 0.021795189579339354, 0.02153039065091756, 0.021258248435799168, 0.020993987648950253, 0.020772318979698605, 0.02051888998583043, 0.02024764585582894, 0.02001582438768053, 0.019790918076205713, 0.019567585156142427, 0.019356641723918735, 0.019177643369621477, 0.018975512309867326, 0.018780670021103823, 0.018552716944694857, 0.018376494713311983, 0.01822888121393221, 0.01805771021193063, 0.017892020404277217, 0.017747106250991507, 0.01758979530184073, 0.017436930312425557, 0.017290938912728863, 0.017149993157004568, 0.017018989194325165, 0.01688668082248428, 0.016729220398988155, 0.016609524373150393, 0.016492195851504937, 0.01639790422798149, 0.016282673335069005, 0.016130863849913926, 0.01602743086047469, 0.015924807005804915, 0.015811490559127186, 0.015712301241139412, 0.015638100580820873, 0.015536820743150314, 0.01543758784806343, 0.015340270276458784, 0.015244733219711237, 0.015141795491790521, 0.015050549536122441, 0.014947240322760113, 0.01485927331238796, 0.014771292847221963, 0.014724661822178681, 0.014631465133479531, 0.01451473746394918, 0.01442906182685684, 0.014343545769139189, 0.014261964051596398, 0.01417597200010864, 0.014102969717157555, 0.014015349043846492, 0.013928258079775187, 0.01383629884622801, 0.013750247980561039, 0.013658629380064874, 0.013572292161152825, 0.013484993318775031, 0.013395359030368991, 0.013306057409785957, 0.013203856081527311, 0.0131134176367991, 0.013020929282559778, 0.0129664758866558, 0.012864913196329531, 0.012737779957716255, 0.012639708872587595, 0.012539862326372582, 0.012453702299378495, 0.012348221104265126, 0.012230087932517158, 0.012123869490647912, 0.012015673520898723, 0.011926140234988006, 0.011811283907019566, 0.011670977457705945, 0.011557232439485815, 0.01144085513562209, 0.011351615778229119, 0.011226374956878152, 0.01113003456915765, 0.010999208642705906, 0.010868867539026567, 0.01071407842351529, 0.010586707511494575, 0.01045743886864582, 0.010326225312951156, 0.010193033145149582, 0.010088848621462733, 0.009947724794598012, 0.009820541285855616, 0.009676835978679977, 0.009533212787052091, 0.009432025793461484, 0.009282376770402886, 0.009130614453162692, 0.008984480676316998, 0.008838967460995462, 0.008722173621629583, 0.008573389966576535, 0.008422137185705605, 0.008276258565251871, 0.008130841043402717, 0.00802440809929156, 0.007874354644403288, 0.007754801455734319, 0.007604897467809395, 0.0074579209234645165, 0.007319835566110174, 0.007176496382085034, 0.007057176817262724, 0.006914860392960368, 0.006775277730414503, 0.0066639101825596075, 0.006525528286184816, 0.006405978022662792, 0.00627192827272046, 0.006141428920881703, 0.006064528515318895, 0.005933818827435089, 0.0057957731870016595, 0.005677327455297988, 0.005562769106737236, 0.005500956075415804, 0.005387320575657423, 0.005286273435035416, 0.005183629167815973, 0.005086674182646143, 0.005039016627534486, 0.004947009099237895, 0.004890857433263569, 0.004809665788208575, 0.004736692835669534, 0.004699868617362735, 0.00463836478396783, 0.004593254419654633, 0.0045476173612723604, 0.0045102872097605015, 0.004524886788450405, 0.004497789541403925, 0.0045156874284823295, 0.004503978591086546, 0.004503595552662535, 0.004493358378090886, 0.004516832453316868, 0.004580290550349671, 0.004617764091099188, 0.004665948765361957, 0.004729842046702738, 0.00479835962086894, 0.004909884150592634, 0.0049957199189914914, 0.005094106925564851, 0.0052022935070218925, 0.005325680736799813, 0.00546635232046589, 0.00561336803599851, 0.005772935497657802, 0.005968405965796767, 0.006150462893087929, 0.006373910003958927, 0.006581066446873514, 0.006804079291040052, 0.007049294987785857, 0.007302927329487413, 0.007559702559599383, 0.007847098525538452, 0.008149890695390193, 0.008495412277579415, 0.00882619540896494, 0.009206872635160181, 0.0095688080471832, 0.009950288008393584, 0.010348595816527115, 0.010769157926099268, 0.011197279512617838, 0.011657746601113694, 0.012136910054551074, 0.012642753296824424, 0.01315904382725249, 0.013702969311738412, 0.014258266167461562, 0.014834341525309843, 0.015467565522145236, 0.016081228707009513, 0.01670801014525001, 0.017369848858764768, 0.01805453192601737, 0.018786744252817098, 0.01951445191450535, 0.020233282836284377, 0.02101468253256586, 0.021818984124768518, 0.022689188655245753, 0.023534998824420946, 0.02441365789475301, 0.025311448618496362, 0.026236069827016054, 0.027170768561290904, 0.02815134070534989, 0.029186461347126342, 0.030215966231359682, 0.031273754016297436, 0.0323262968497922, 0.03344512300673624, 0.03458805065650895, 0.03576099625116473, 0.03696131415171725, 0.03820621958131092, 0.03946040245674817, 0.04073119689232145, 0.04204632013860355, 0.043390741514920415, 0.04477902759916585, 0.046181301223408154, 0.047601781743637696, 0.049068150711896616, 0.050565341589876064, 0.05210917703083584, 0.05366699662510087, 0.055261307724811734, 0.05688403046728606, 0.05853991609666948, 0.06022652143474678, 0.06194948902637598, 0.06371108465360846, 0.06550049763992598, 0.06732401878355344, 0.06917532578137259, 0.07106829724170793, 0.0729838108198739, 0.07494679128499732, 0.07694368097895127, 0.07897863649533882, 0.08104367863377764, 0.0831591408561946, 0.08529225384051262, 0.08746153932266007, 0.08967609306461469, 0.09191674023884139, 0.09420327995539331, 0.0965164707255225, 0.09886700792294585, 0.10124319986426211, 0.10366972477315374, 0.1061392574401383, 0.10863813132067274, 0.1111559654265854, 0.11373123490428019, 0.11634256439487038, 0.11896169103460956, 0.12164919901699593, 0.12441682021515735, 0.1271687341013417, 0.1299587075650129, 0.13278145969898147, 0.13564787377054024, 0.13855173747324487, 0.14149299523830872, 0.14447158875610946, 0.14746807628601852, 0.15052360187579863, 0.15363584854583334, 0.15676093811985092, 0.15992337036841103, 0.16312430129642047, 0.1663608456105138, 0.1696305144495292, 0.17294139516453622, 0.17628874652790483, 0.17967114629851724, 0.18309120324522574, 0.18653819835622085, 0.1900312173210391, 0.19355940897781573, 0.1971278473170268, 0.2007254293715192, 0.2043439222310642, 0.20801335461474998, 0.21171671573251843, 0.2154461513178821, 0.21921801685884534, 0.22305399975017273, 0.22688804947526509, 0.23075669067613008, 0.23462720252330882, 0.2385678524333031, 0.24256587107699795, 0.2465661606411294, 0.2505990961715813, 0.2546474627929813, 0.2587465554851579, 0.2628864252417538, 0.26704480250078294, 0.2712335988968485, 0.2754420647609738, 0.2796917569336388, 0.2839777742742232, 0.28828327711832974, 0.2926170581532022, 0.2969696186788834, 0.3013597259186139, 0.30576458327320144, 0.3102085063793646, 0.31467731552046063, 0.31918745345494076, 0.32370282319271926, 0.3282196229842901, 0.332786737184297, 0.3373760900250149, 0.3419950394224478, 0.3466266772917977, 0.35130685084232804, 0.35597732600698173, 0.36066963181674216, 0.365359723075334, 0.3700962752710775, 0.3748807368979369, 0.3796493492082313, 0.3844366675224997, 0.3892328088762427, 0.39405618131414194, 0.39886814800951254, 0.4037256772469919, 0.40859595849880975, 0.41346814796640863, 0.41836368829859105, 0.42325170628573594, 0.4281701608208589, 0.43309712476354495, 0.4380567236591721, 0.44299628946394304, 0.4479210848664764, 0.45287981541886757, 0.45784422228529664, 0.46280984897575267, 0.4677843244318208, 0.4727766342457603, 0.47775591905197595, 0.4827383183400525, 0.4877036452691794, 0.49269229385753055, 0.49767147774216025, 0.5026597519028395, 0.5076457186054995, 0.5126455199923436, 0.5176227564374536, 0.5225487747453177, 0.5275243552735078, 0.5324920903706325, 0.5374760304282246, 0.5424234266257708, 0.547342040502464, 0.5522749945783506, 0.5571969952259613, 0.5621151014286069, 0.567012105842391, 0.5718460375946012, 0.576723206506708, 0.5815831760294956, 0.5864616652969113, 0.5912812319119428, 0.5960763335647764, 0.6008625454992006, 0.6056297856010396, 0.610350064618368, 0.6150802081792437, 0.619769165431316, 0.624454731712129, 0.6291148164066751, 0.633751419238617, 0.6383584179137806, 0.6429265744192887, 0.6474798948337435, 0.6520038818710733, 0.6564901076247831, 0.6609543491502603, 0.665399625416863, 0.6697977685717189, 0.6741633357025555, 0.6784437985324699, 0.6827481954631329, 0.6870093839903968, 0.6912379056064779, 0.6954271480225181, 0.6995649774901717, 0.7036755685883292, 0.7077303673562195, 0.7117590623405032, 0.7157442738364984, 0.7196583755189432, 0.7235585226427816, 0.7274017168055937, 0.731209544448944, 0.7349693354331044, 0.7387065177689405, 0.7423656814531997, 0.7459536204254424, 0.7495190340394752, 0.7530336618424577, 0.7564943444157833, 0.7599059770135005, 0.7632287091318369, 0.7665388526853322, 0.769792999520318, 0.7730101814054289, 0.7761487965068361, 0.7791783621288916, 0.7822109033761465, 0.7851831553047884, 0.788094917102162, 0.7909459339642639, 0.7937216926857895, 0.7964520731517106, 0.7991198946649007, 0.8017429574930448, 0.8042824746365184, 0.806762065502694, 0.809175710597318, 0.8115259391042343, 0.8137928248790142, 0.8160170379504831, 0.8181518724714395, 0.8202464140344893, 0.8222727865085874, 0.8242023733509223, 0.8260953981538419, 0.8279244695990929, 0.8296758250128421, 0.8313570373890645, 0.8329821665305152, 0.834520817944508, 0.8359818555070014, 0.8373814458007174, 0.8387101095717114, 0.8399637285054382, 0.8411503038873077, 0.8422637233924417, 0.843306534900788, 0.8442770152855933, 0.8451749859472014, 0.8460002751487555, 0.8467320478634175, 0.8474141086002188, 0.8480218701503989, 0.8485489099435957, 0.8490089952617881, 0.8493699655588065, 0.8496840975672901, 0.8499185577724907, 0.8500818546134441, 0.8501696462717474, 0.8501796016621366, 0.8501174487276562, 0.8499881015628776, 0.8497753031807337, 0.8494884371842689, 0.8491379864863671, 0.8487021229721442, 0.848148005995187, 0.8475718730984638, 0.8469203489336335, 0.8462042521746086, 0.8454020616070702, 0.8445290210854316, 0.8435799735487416, 0.8425583101932226, 0.8414850180019197, 0.8403164597991962, 0.8390541527240056, 0.8377477185752095, 0.8363698559508757, 0.8349145214501308, 0.8333958739378716, 0.8318273752483577, 0.8301655574720324, 0.8284353591122785, 0.8266345276407618, 0.8247689161324657, 0.8228074295627211, 0.8208109401956181, 0.8187462879164917, 0.81661288355579, 0.8144141700633362, 0.812150602263706, 0.8098201310517004, 0.8074249802759631, 0.804968419098123, 0.8024456404952804, 0.7998875235953724, 0.7972370501029264, 0.7945269897833889, 0.7917500668495051, 0.7889232786800215, 0.7860470504088626, 0.7831027942840416, 0.7801018723725897, 0.7770229374893827, 0.7739133414996434, 0.7707594142627339, 0.7675373085159376, 0.7642616570953378, 0.7609074126380155, 0.7575303304573942, 0.7541045530461646, 0.7506228843261071, 0.7470909420132038, 0.7435110111912714, 0.7398813333117669, 0.7361915019613364, 0.7324699637542293, 0.7287024133966781, 0.7249157687610073, 0.7210561496448974, 0.7171215784892216, 0.7131843276343884, 0.7092055333374482, 0.7051824681042844, 0.7011245056804943, 0.6970527275087909, 0.6929160697892677, 0.6887446829275057, 0.6844916742003384, 0.6802596197295417, 0.6760006776190824, 0.6716996966042093, 0.6673671398324165, 0.6630016240805134, 0.6586098231256485, 0.654215681040197, 0.6497654147469636, 0.6452907277751613, 0.6407912514333559, 0.6362706686071741, 0.6317258143540038, 0.6271631511448867, 0.6225805994094873, 0.6179714117461726, 0.613353081128547, 0.6087187452184873, 0.604066735253357, 0.5993996529395457, 0.594712097316323, 0.590018861148295, 0.5852720143736097, 0.5805605737809114, 0.5758367399672943, 0.5711109720316943, 0.566365403701992, 0.561643057414648, 0.5568792023557919, 0.5521116838256491, 0.5473284830737605, 0.5425579815448878, 0.5377819384520949, 0.5330096181987107, 0.5282374504689178, 0.5234716388619121, 0.5187022172378624, 0.5139156365071613, 0.5091568125701371, 0.5044022521808879, 0.49963627191296206, 0.4948956726934809, 0.4901862004686968, 0.48545682734923473, 0.48073771541547994, 0.4760194282364419, 0.4713248352461985, 0.46666972735858525, 0.46199736662598295, 0.457340775300167, 0.45264122260601847, 0.44802579677291926, 0.44346757008147636, 0.43887708165033146, 0.43430589712337236, 0.42974314123381524, 0.42521428812170226, 0.4206895338606239, 0.41620542407085565, 0.4117429084776963, 0.4072938722321064, 0.40287844174378296, 0.3984867849153968, 0.3941198070853927, 0.3897783759707341, 0.38546074006023107, 0.38117319344033507, 0.37691732467418043, 0.37268565149644817, 0.36848348699400085, 0.36431537698005306, 0.36017372616164683, 0.35607149476943917, 0.35199277118403627, 0.34794727860235347, 0.343931618743871, 0.3399545033277019, 0.33599243000605783, 0.33208709211930865, 0.3282160415095138, 0.3243773061012439, 0.3205769594832296, 0.3167892376676856, 0.31306413148589246, 0.30937464725174196, 0.3057679622028245, 0.3021457865964203, 0.2985223468984851, 0.294985707575947, 0.29148713193623393, 0.28804390651334577, 0.28462076714737683, 0.28123540651081236, 0.27789356427239986, 0.2745924140143641, 0.2712998904868264, 0.26808489395985113, 0.2649404350518046, 0.2618010193656431, 0.25870370854197483, 0.2556395570983603, 0.2526278836679427, 0.24965677712588266, 0.2467291219277738, 0.24384350674753846, 0.24098324274758404, 0.2381841320100287, 0.23545092720096433, 0.23273161182548294, 0.2300553632465218, 0.22739625955719572, 0.2248091592816126, 0.22224273810587866, 0.21974105851329595, 0.2172797460408748, 0.21487192643427033, 0.21249028179429374, 0.21014373979396864, 0.20784599936782733, 0.20558935653724633, 0.2033931532757823, 0.20121611150585741, 0.19907330130694706, 0.19698092912653586, 0.1949295452588041, 0.19294088816874963, 0.19096801448128478, 0.18902631072964032, 0.18713731591008917, 0.18528837763571696, 0.18344298206245366, 0.1816777132035215, 0.17997270124150846, 0.17827843463473717, 0.17663652654607173, 0.17501643143389364, 0.17343461952443753, 0.17188416941937948, 0.17037836002535497, 0.16888842494292822, 0.16745792004005156, 0.16606199232837976, 0.16469910296167603, 0.16337172597049743, 0.16209483161987495, 0.16083239441127942, 0.15960394427662938, 0.15839478155079026, 0.1572346370661344, 0.15609716806090101, 0.15500122520876566, 0.1539357158594041, 0.15290675940744872, 0.15190025512906896, 0.15090278494157225, 0.14995784927128966, 0.14904053376646215, 0.14818024127253454, 0.147313439693507, 0.14644518337454748, 0.14563802706180898, 0.1448562031219174, 0.14408511814755037, 0.14335458773572463, 0.14266675882489702, 0.14198008983568772, 0.14131713594675824, 0.14066959869921983, 0.1400534099262, 0.1394640133636717, 0.1388899208075436, 0.13833673382927905, 0.13779226347134882, 0.137280671644141, 0.1367747210074313, 0.1363014098919913, 0.13584497170099566, 0.13541405500139841, 0.13498901046320533, 0.13456846736337247, 0.13417662389595436, 0.13379919529625653, 0.13347966392119248, 0.13312415945285855, 0.13276994350364874, 0.13244639912557635, 0.13213591677422667, 0.13181845966225317, 0.1315345964287429, 0.13124398623867325, 0.13098188692218554, 0.13072797224638907, 0.13052841977532556, 0.1302839703109156, 0.13001307816957694, 0.1297919068572003, 0.12957694734806613, 0.12937812806448434, 0.12917305513815167, 0.12895415025496273, 0.1287621143617336, 0.128573527042579, 0.12840742825689808, 0.12822225558069325, 0.12801472440130524, 0.1278392546534507, 0.12766477466875994, 0.12749874170298497, 0.1273243630314949, 0.1271504854237, 0.12697671653213602, 0.126802663970514, 0.12663310428021188, 0.12645665851954221, 0.1263100591640477, 0.12612694523464144, 0.12594357011293708, 0.12571147516720604, 0.12553169774277717, 0.1253897660981921, 0.12519486032510105, 0.12499722704693796, 0.12477566619392924, 0.12457363896620152, 0.12435977305370878, 0.12414753239405822, 0.12392901013074865, 0.1237104561375683, 0.1234779230246999, 0.12325434371007206, 0.12300648911665105, 0.1227524411081303, 0.12246986732219904, 0.12220512820154729, 0.12190738042924187, 0.12162869935943041, 0.12133992945820858, 0.12109023658603596, 0.12077526737512419, 0.12041305314734391, 0.12008837318329724, 0.11975350889462959, 0.11940329033656429, 0.11904869393457465, 0.11871588617579674, 0.11833619599312772, 0.11794782181603332, 0.11754274551449453, 0.11713721050449237, 0.11669986911168655, 0.11627729443949295, 0.11584339470593963, 0.11540340933555766, 0.11494641119286156, 0.11450440641230054, 0.11402245567254156, 0.11353112461027064, 0.11301212783219738, 0.11250375888663301, 0.1119638129089339, 0.11143627435393141, 0.11089672928723018, 0.1103570087117118, 0.10979257433852437, 0.10922381164332105, 0.10863705425572454, 0.10804001429868702, 0.10742883973674631, 0.10681180650955523, 0.10619858667436625, 0.1055590439400933, 0.10491007482675636, 0.10424778497233414, 0.10358041810947999, 0.10293054310009248, 0.1022405352132452, 0.10154256179642725, 0.1008339153183082, 0.10012000558405079, 0.09937059552094492, 0.09864338296434733, 0.09790631347132585, 0.09715190835755359, 0.09639692036052402, 0.09563761504088297, 0.09486332674271514, 0.09408048012266046, 0.09327770966702516, 0.09248000091656237, 0.09166223217669464, 0.09084947794741846, 0.09002832270338086, 0.0892198553471276, 0.08838051357461384, 0.08753899492228812, 0.08668724988490394, 0.0858300600599486, 0.08492883775273775, 0.08406618420314643, 0.0832494246223871, 0.08236642653491681, 0.08148030949372886, 0.08058076119193885, 0.07968981188857276, 0.07878497970881859, 0.07788842657456857, 0.07698812353457224, 0.07608694136838641, 0.07517967079552094, 0.07427352772324633, 0.07336053252647251, 0.07244553285913453, 0.07152488718367539, 0.07060707719520443, 0.06964641978099126, 0.06873110931089353, 0.06781253322596166, 0.06695202596409427, 0.06602103145858085, 0.06508801450755457, 0.06416122651301302, 0.06323612317084226, 0.062321845920026785, 0.06139928140541302, 0.0604392092972045, 0.05952687739290245, 0.0586150257566892, 0.057722188864063655, 0.05681032916522682, 0.05587798643088763, 0.05497485499540829, 0.054073676891918734, 0.053192971339216584, 0.05229468416499356, 0.0514070532291469, 0.05051656528992516, 0.04961945576176955, 0.048740623124588885, 0.047866495405542, 0.047025774170164736, 0.04615828867947799, 0.04526561622417232, 0.04441646984659244, 0.043572704776016075, 0.0427630759128881, 0.04192745799687661, 0.04110493448328029, 0.04028457738246072, 0.03947257596422549, 0.038644433062742865, 0.03785241658100376, 0.03707404098356806, 0.036295864053858436, 0.0355258066189209, 0.034764085989028096, 0.03401091422840318, 0.033267790091795355, 0.03253216764552488, 0.031805770764559, 0.031106867601005863, 0.030397171506743353, 0.02967628052882472, 0.02899092163211067, 0.02831515682567173, 0.027646625847362057, 0.026991035058998712, 0.026379120823493498, 0.025739662405710736, 0.0251125814755976, 0.02444740543196174, 0.023851217655652533, 0.023297979650046357, 0.022716638388095674, 0.02214726039513413, 0.02158342506568992, 0.021038911751963735, 0.020493206256937173, 0.019973880555644984, 0.019465749016151505, 0.019002594721240648, 0.018513159632885315, 0.018043783906967353, 0.017580600897030608, 0.017131138783085274, 0.01668620713356049, 0.016264911794618444, 0.015816398692770246, 0.015425816762748623, 0.015045788306758802, 0.014680500648498674, 0.014321985669975335, 0.014003490341762992, 0.013664749963502983, 0.013339529237768526, 0.0130303125088166, 0.012731512668005969, 0.01240863130062256, 0.012141239327303153, 0.011884933481938344, 0.011670933018340393, 0.011433480450271148, 0.01117709337614897, 0.010970327548261969, 0.01077486444379093, 0.010632190381214365, 0.010454504963609768, 0.01029466480657856, 0.010144161598966233, 0.010007332816261623, 0.009864539338904845, 0.009756752012557844, 0.009672459325921916, 0.009586885121202647, 0.00951372465051749, 0.009428275848960806, 0.009382590526476017, 0.009361709091494863, 0.009335470508635613, 0.009320720352517542, 0.009317364590013862, 0.009325305974336527, 0.00930568420495603, 0.009340815792872463, 0.009384757865612037, 0.009475179410504563, 0.009532566872041206, 0.009600057667583648, 0.009680185177308244, 0.009771213885437767, 0.00989104013935351, 0.010001013453089087, 0.010105543722853246, 0.010240019893878783, 0.010384274023133844, 0.010526526002603434, 0.01069134967500734, 0.010881637782632113, 0.011061615590253421, 0.011251074036432203, 0.011458839988371118, 0.011665471841077198, 0.011837532705865256, 0.01206816076432368, 0.012305150971883977, 0.012604166538718075, 0.012847146451759562, 0.013084329856181518, 0.013348256745739655, 0.01362019596538016, 0.01387923162395192, 0.014169087209475184, 0.014447003962162103, 0.01475139361731766, 0.015060801456328956, 0.015402427659367165, 0.015718617120249377, 0.016010459712329506, 0.016343662423513376, 0.01668133292925575, 0.017041589757764052, 0.017385974544461974, 0.01772423028688602, 0.018080897517038477, 0.018442039121161814, 0.018828233584251477, 0.019195418249173216, 0.019557587393122057, 0.019936429022337707, 0.020319442221189157, 0.020672851858131946, 0.02106790596142139, 0.0215331736357762, 0.021923134420757658, 0.022318821309747133, 0.022689995735914986, 0.023099366435217688, 0.023490679297395397, 0.023907724326524986, 0.024325890529559004, 0.02474518092823213, 0.0251655799684439, 0.02562452334874528, 0.026042291319564533, 0.02646313203685277, 0.02685308132270733, 0.027283225006637424, 0.027707058522210858, 0.028138290902908234, 0.02856924223552349, 0.028990868308749747, 0.029422383538178314, 0.029889236893192922, 0.03031453051717018, 0.030741051709675254, 0.03114136688875638, 0.03157288847751494, 0.03202135591927549, 0.03244827795867941, 0.032875004704900825, 0.033284544859830754, 0.033712427697406226, 0.03411406551100909, 0.034541623047169276, 0.03496602678701852, 0.03541713743424459, 0.035831879332956514, 0.036257106235406615, 0.036667913242262394, 0.03707787975141407, 0.037480288212039956, 0.03788863628600591, 0.03827051482800246, 0.03867796903198036, 0.03908182328455926, 0.03949505606434055, 0.03989023510162561, 0.04032530062506746, 0.04070949893031723, 0.041093159227356284, 0.041451302351381156, 0.04183574078563698, 0.042231310420854366, 0.04260767776695472, 0.04298154546492289, 0.043332031775382425, 0.04370290603159612, 0.044099269932658315, 0.04445795031188438, 0.04481409942445401, 0.04513518633119665, 0.04548968977781346, 0.04586894812599979, 0.0462098726634212, 0.046547691690481466, 0.04688870254596806, 0.047219025370366416, 0.04753713004083202, 0.04786208659751238, 0.04819856356363253, 0.04851354412152807, 0.04882532205467825, 0.04916862353484161, 0.04946913496281417, 0.04976670145440408, 0.05006369324728153, 0.05035825675265857, 0.050685006906438825, 0.05096953722570401, 0.05126066034223445, 0.05154145335626788, 0.0518207090682843, 0.05211096881966181, 0.05238444049680678, 0.05266905774874448, 0.05293702665220466, 0.05320336131181942, 0.05349358342372929, 0.05375248564812085, 0.05403108820967925, 0.05428506317541129, 0.054538552651950095, 0.05483119843886835, 0.0550774968973141, 0.055331001801001777, 0.05557744374350885, 0.05582402178253064, 0.0561052102876806, 0.05634650179499954, 0.05661085476881814, 0.05685109006752338, 0.05709279825153416, 0.05735229703380286, 0.05759348700247191, 0.05785531023452874, 0.05809619618774173, 0.05833878516925019, 0.058609849210129926, 0.05885141864746974, 0.05912896979694545, 0.05937071942390598, 0.05961612511012755, 0.05987247794990381, 0.06012293357649015, 0.06037638814720349, 0.06063258744702293, 0.0608913547953563, 0.061222349690963275, 0.06147716786110621, 0.06174994699335821, 0.062015452121116116, 0.062287035192423394, 0.06258626584657938, 0.06286614357844728, 0.06316406174549984, 0.06345498695634472, 0.06375245281736219, 0.06409757240700668, 0.06440228215949838, 0.06470376956844491, 0.0650264162104965, 0.06535622401832286, 0.065717673094677, 0.06605856063332355, 0.06640538522221576, 0.06676354687372982, 0.06712996258040493, 0.06753698492784276, 0.06791603246911067, 0.06833257879130084, 0.06872885282756315, 0.06913692740485353, 0.06957600917640432, 0.07000479194018483, 0.07042936992142633, 0.07088533532763441, 0.07135277501654275, 0.0718486327695604, 0.07233738047799346, 0.0728804457893234, 0.07339003015297806, 0.07391518385341157, 0.07444285048377912, 0.07500044042140698, 0.07556234111238606, 0.07615069456342391, 0.07675347883902774, 0.07738134663531739, 0.0780126539650987, 0.07866643349422385, 0.0793292277256676, 0.08000897564335842, 0.08070077447010018, 0.08141589993035338, 0.08216534100726236, 0.08291374375809359, 0.0836813398159543, 0.08449808590418637, 0.0853010557992165, 0.08613859187769131, 0.08698328007372842