0.030288322135486122, 0.029821455902091117, 0.02936031816327397, 0.02894309620368675, 0.028561243399073347, 0.028174149157482533, 0.02780070453919527, 0.027447772953007574, 0.02709457738828807, 0.02678772562427393, 0.02644606607481396, 0.026112887349957523, 0.02571012184906827, 0.025400228880071044, 0.02509687820967295, 0.02478865711907311, 0.024481970108396377, 0.024212649353540873, 0.023904811706639988, 0.023556232929647553, 0.023261879691179654, 0.022968912719685704, 0.022704570087379264, 0.022412265225359336, 0.0221402252317768, 0.021854454264327094, 0.021574213708039938, 0.021283540719077478, 0.02101679979742707, 0.02073905731082018, 0.020484851267437987, 0.02023548469900064, 0.020020013242350393, 0.019778054635530215, 0.01945446938238319, 0.01923947836287596, 0.019027563676267397, 0.018873252887862804, 0.01866333097439574, 0.01843514226836316, 0.01824594359166577, 0.018064257162324612, 0.017936995406031237, 0.017765730899144908, 0.017600430649248204, 0.017452464464046944, 0.017315477660840316, 0.017164493285892875, 0.017052786816326368, 0.01694725974724733, 0.016855795938667737, 0.016774433372312388, 0.01668378935120646, 0.01662593997041722, 0.016617208371358043, 0.016574366002361906, 0.016544283209741818, 0.016475143427148765, 0.016477215700256422, 0.016494611956164685, 0.016516410455805982, 0.01652973211074831, 0.01657675296404044, 0.0166345585261378, 0.016692896751135142, 0.016775007551350456, 0.016924019470636875, 0.017022551693987652, 0.017136549211949625, 0.017230197075559117, 0.01737947847185075, 0.017504562535538004, 0.017685566251628784, 0.017878376782321726, 0.018133611871502957, 0.018345358377888463, 0.018535739858536293, 0.01878461119920546, 0.019047627941041267, 0.019351965732253982, 0.019640946388705522, 0.01993050673220794, 0.020254938541104037, 0.020595308692202365, 0.020935759453881393, 0.021310723164483642, 0.021696028109643967, 0.02210341663219896, 0.02252686480211624, 0.022997102405162353, 0.023449829925806975, 0.02393379481282587, 0.024422425894724143, 0.024930570792780434, 0.02542244131179325, 0.025974045712123202, 0.02653775163839713, 0.027125276378854188, 0.027730573466999486, 0.028357538832241968, 0.028998869706699636, 0.02964119808343723, 0.030322767533512176, 0.03102265862432617, 0.031775185169639494, 0.03250844759353195, 0.03325396606560534, 0.0340307427386748, 0.03482821620065587, 0.03561072514108093, 0.03645438023393236, 0.037359892750178, 0.038236410119737295, 0.03913500148707887, 0.039996634986256455, 0.040946714662498586, 0.04192261022617475, 0.042909576530882954, 0.04391647581925286, 0.044982935293673434, 0.046025595544947936, 0.04707689244033579, 0.048167118807558404, 0.04927925866156603, 0.050399030961648834, 0.051556857368353, 0.052712595425302676, 0.05391577439935518, 0.055139008297815505, 0.05638077131928927, 0.05764508497388199, 0.058974706472597706, 0.060274770819183844, 0.06159825365712244, 0.06288411751018755, 0.06426135462673663, 0.0656668002537328, 0.06708171875564588, 0.06851689907551982, 0.0699956810439122, 0.07146871919620895, 0.07296353229122085, 0.07447994416799374, 0.07601777630485819, 0.07753573411262109, 0.07912105861067982, 0.08072136830535426, 0.08234440493906149, 0.0839860355337223, 0.08569103115136369, 0.08736440607648888, 0.08905901134266608, 0.09077445790856448, 0.09251037017196881, 0.0942717469623529, 0.09604683150017869, 0.0978165951454571, 0.09963387281185543, 0.10146870136855969, 0.10329232206192426, 0.10516537731836535, 0.10706636690036739, 0.10896870682602185, 0.11088717500824856, 0.11279301163662334, 0.11474685125121337, 0.11674148003070943, 0.1187198860768379, 0.12071373451481862, 0.12268161005255485, 0.12471062296391504, 0.12676433992775052, 0.1288161452433625, 0.13088077619258742, 0.1330062889183939, 0.13508981625575464, 0.13715599182561858, 0.1392725570685764, 0.14140080927335472, 0.14354931427779416, 0.14569868275187398, 0.14783763850211676, 0.1500113172383161, 0.15219387415457292, 0.15438678963524477, 0.15658593256274675, 0.1588234540088097, 0.16103435085559534, 0.16325415858532896, 0.1654303793240369, 0.16767260226323144, 0.16993498522942427, 0.17218312024450153, 0.17443579363653391, 0.17668723810825623, 0.17894843468849034, 0.18120009054477218, 0.18346840307589884, 0.1857381458368249, 0.18803757327688117, 0.19030549337309172, 0.19256996519729236, 0.19484173858029197, 0.19711382586811954, 0.19938384322807726, 0.20165499604843173, 0.20390669976629386, 0.20617638463381938, 0.2084423295731098, 0.21070051917102006, 0.21295809585177503, 0.2152371676326708, 0.2174802536581189, 0.21971857970434666, 0.22192461876359465, 0.22415468555139492, 0.2263835315811626, 0.22859548750984507, 0.23079852627906894, 0.2330171176866673, 0.23519748375020136, 0.2373579246776236, 0.23952047182777506, 0.24167168714472614, 0.24376086937552027, 0.2458938050430996, 0.24801602981477922, 0.25011590924142973, 0.2521995085646776, 0.254268255192023, 0.2563179567917565, 0.2583592459729664, 0.26037265934481696, 0.26236828841138227, 0.2643366283176831, 0.266296111090169, 0.26824810168089813, 0.27016548193729956, 0.2720625267482558, 0.27395469137128764, 0.2758071377740317, 0.27761145423480793, 0.2794239093863912, 0.28121206871058796, 0.28299331672231665, 0.28472914376274583, 0.2864652091461611, 0.28814764419558253, 0.28980540419539086, 0.29140906234972414, 0.29301864833398183, 0.2946264009960494, 0.29617481443546106, 0.29769510925411796, 0.29918122248162493, 0.30064388697920474, 0.3020475178615659, 0.30345235890859346, 0.30482403315686624, 0.3061872586903411, 0.30748850096697566, 0.30878026323015473, 0.3100125932984422, 0.3111945769434475, 0.312363537111322, 0.31349768745252765, 0.3145429350784223, 0.315612862704124, 0.31667222060224126, 0.31766020330037487, 0.3186106059335154, 0.31949453700244035, 0.32037252178203174, 0.3212265338541039, 0.32202230197675646, 0.3227787632097387, 0.32349389033752046, 0.3241712417380548, 0.3248120345377682, 0.3254084370149714, 0.325964447198268, 0.32647980794474973, 0.32695426834927754, 0.32736613412083526, 0.32776078243556706, 0.32811261948329534, 0.3284376874729698, 0.3287017194692415, 0.32892546199591005, 0.32910491249140056, 0.32924199535344795, 0.32936333239424925, 0.3294117307784916, 0.32942231235176267, 0.3293871134809392, 0.32931004277406495, 0.3291943673194516, 0.3290322181297016, 0.328793631561958, 0.3285506078600806, 0.32826280069482483, 0.3279374858917525, 0.3275595842204771, 0.3271466148731365, 0.32667964306620584, 0.3261693192906752, 0.32560315086565217, 0.32500778557130144, 0.3243684858838349, 0.32368543086521406, 0.3229588055177723, 0.32219595172136706, 0.32138186425553666, 0.32051090548596867, 0.31961364248673785, 0.3186733388495077, 0.31774392640334337, 0.3167116797658152, 0.31559742449756645, 0.31449227019283404, 0.31334542573614566, 0.3121500816642232, 0.31092179031416184, 0.3096578145311426, 0.30834717240138637, 0.30699662835315866, 0.3055922642405196, 0.3041648797089272, 0.3027283519802499, 0.30121858689879855, 0.2996720402275323, 0.29804429623272627, 0.29643068375874576, 0.29481979811239023, 0.293124927716314, 0.2913953849516729, 0.2896118525559504, 0.2878165147692319, 0.2860026041665014, 0.2841364899907764, 0.2822377790287756, 0.28029977732503414, 0.2783381656912112, 0.276357497111333, 0.2743317354230501, 0.2722762595409072, 0.2702130114279594, 0.268096892077783, 0.26591447737874874, 0.2637497741178502, 0.2615566998261824, 0.25931815455290197, 0.25707291905961127, 0.2548077700233822, 0.25250840831316135, 0.25018417400810233, 0.24783408853665537, 0.24546275320935163, 0.2431224733226009, 0.24070001754981504, 0.23825959707317182, 0.23575509457864519, 0.23328574639279354, 0.2308417332196401, 0.22832889521917704, 0.2258009377730783, 0.22322975184719507, 0.220676684261193, 0.21809417628815211, 0.2155134610357972, 0.21291845130698797, 0.21031723540368358, 0.20769553226504392, 0.2050734324993869, 0.20242896980509256, 0.19977566378945286, 0.197116048624215, 0.1944470772866197, 0.19175732399451384, 0.18907794957956237, 0.18639280196368055, 0.18374029931988842, 0.18104148951633192, 0.1783148131703212, 0.1756178394773143, 0.17291944314426613, 0.17022938690049588, 0.1675294873070018, 0.1648096820372089, 0.16211632769441686, 0.1594248065110953, 0.156764644398059, 0.15407593096096023, 0.15138801561078824, 0.14871294587007097, 0.146045037861703, 0.1433671285323087, 0.1407179454591374, 0.1380895824794756, 0.13545629742594337, 0.132833736072569, 0.1302244180332529, 0.12762527144222383, 0.12502126051800438, 0.12245110348016028, 0.11989436602003913, 0.11739658122820348, 0.11486354449703949, 0.1123077911425449, 0.10981716925952816, 0.10734350838987469, 0.1048554338544791, 0.10242214400579872, 0.10000634637290466, 0.0976090361558471, 0.09523115659506268, 0.09287896542314517, 0.09054190986084927, 0.08825037870119781, 0.085955685446582, 0.08368600786882334, 0.08147579165535465, 0.07925329525291247, 0.07705379498785069, 0.07488889210575654, 0.07275247179013447, 0.07057868974894775, 0.06850849677684079, 0.06648009058764065, 0.06446012611840506, 0.062468434646168046, 0.060527089647717684, 0.05859106679296148, 0.05666662611197999, 0.054795933207427226, 0.052956081538545884, 0.051156504754007764, 0.0493786650214509, 0.04760675922637049, 0.04589814672828514, 0.044221446581279626, 0.04258969851276539, 0.040976779517974675, 0.03940150684573267, 0.037856585717536397, 0.036346528947784416, 0.034842970685328815, 0.03340694592189565, 0.03206203463170878, 0.03068701589688293, 0.02934990303190438, 0.02801838834321238, 0.02676077765236394, 0.025551435272299777, 0.02436392565606945, 0.023213195601168763, 0.02210999782839931, 0.02103154479598483, 0.019976229350924534, 0.018974374316474075, 0.0180089833201629, 0.017135498775992273, 0.016236099099227356, 0.015335196945707934, 0.014519751974581678, 0.013740718867814233, 0.013023061343435886, 0.012313490450903498, 0.011630789279734722, 0.01099746477054478, 0.010430934356317803, 0.009866387607094828, 0.009339564849264247, 0.008860746811176528, 0.008406706934415977, 0.008039780326948744, 0.007653068288919286, 0.007305316053842321, 0.006972461114263812, 0.006703160455416772, 0.006512136689857478, 0.006307704206504768, 0.006140158516534606, 0.006010523038477808, 0.005914289938748779, 0.005917267983558294, 0.005881990586130855, 0.005883969394334516, 0.005914983192237316, 0.0059892582718792204, 0.006122468788436079, 0.00626063329813455, 0.0064326360578729515, 0.006673365584764814, 0.006906004812849087, 0.007182819820425196, 0.007480031035589336, 0.007809428288690025, 0.008223728143452241, 0.0086080600998951, 0.009030428182824811, 0.009478278185709038, 0.009956901752862122, 0.01050998351599579, 0.011041576174194658, 0.011644793752443806, 0.01223107038807002, 0.012847985332688694, 0.013526433233534687, 0.014196832858954692, 0.014878302753789466, 0.015607632844192655, 0.01636257755469494, 0.01720126345939031, 0.01799746341318422, 0.01883450654621414, 0.01968083501254389, 0.020552316158956502, 0.02149078565695647, 0.022404048498650703, 0.023377704866431155, 0.02433457961295809, 0.025315905546154007, 0.026352622706623533, 0.027375196502311717, 0.028413518704359913, 0.029481622144415316, 0.030569995565655844, 0.031734944669887855, 0.03285402271940233, 0.03402809905507409, 0.035183820420749364, 0.03636033203155792, 0.037531418369702155, 0.038749228447859344, 0.04003862557432591, 0.041281118555186604, 0.04254164181293734, 0.043829933752399484, 0.045122303637460094, 0.04644851721085335, 0.04776976548984043, 0.04910647163330336, 0.05050075061828684, 0.05186067300764632, 0.053259580178751466, 0.05464714897276982, 0.056050051599476194, 0.057460233023491784, 0.0588920961706146, 0.06036328963857495, 0.061816227992806165, 0.06328211669140947, 0.06473705858912784, 0.06622988784828636, 0.06777909076397211, 0.06928557934140064, 0.07080408775015504, 0.07233940782086437, 0.07387963772179698, 0.07542353510797237, 0.0769858854630565, 0.07855787172263647, 0.08018214220913589, 0.08176725718090336, 0.08333338294934813, 0.08494464631959277, 0.08656469075293616, 0.08819697893064114, 0.08983382374611781, 0.09147224260654674, 0.0931273733133809, 0.0947907176133815, 0.09649985026613658, 0.0981749975179661, 0.09987312457654651, 0.10156739441543959, 0.10327242282607214, 0.10497724660057424, 0.10670448695911838, 0.10843774826170291, 0.11018462538508128, 0.11194091260442665, 0.11370668761332926, 0.11548204934043406, 0.11726711638064645, 0.11906202560040897, 0.12086693089921569, 0.12267485193396298, 0.12450117781871471, 0.1263519522106045, 0.1281970360013907, 0.13005361535531518, 0.13190576829154782, 0.13378789048884593, 0.13568294914632031, 0.13758749446242335, 0.1395039919631373, 0.1414023916293454, 0.14334765332166258, 0.14530239833725117, 0.1472710202865424, 0.14925197135302126, 0.15128334708498561, 0.15328585973395384, 0.15527939108578953, 0.15731735417729242, 0.1593703757203427, 0.16142102398097508, 0.16350774872402857, 0.16560269610331652, 0.16772164630334213, 0.16985669974363724, 0.17201023988939168, 0.17417903921546735, 0.17639972884444183, 0.17860061058186041, 0.18082235755795253, 0.1830276567773348, 0.18529658070406696, 0.187597522586626, 0.18990446872899366, 0.19223279151914757, 0.19454362306409587, 0.19692104286423548, 0.19935296232721458, 0.20176792830223014, 0.2042068312196378, 0.20664327506410693, 0.20913469393683354, 0.21165694818468736, 0.21419546765319206, 0.21675931559807882, 0.2193347179264993, 0.22195259479069984, 0.22459653301136762, 0.2272671327609578, 0.2299649683058897, 0.23268165246187528, 0.23543671938097188, 0.23818614493518175, 0.24100271145353286, 0.2438467905295675, 0.24674776658942058, 0.2496455495684253, 0.2525549744338966, 0.25551825226402786, 0.2585125150361533, 0.26153829171736137, 0.2645960787461148, 0.26767382973277115, 0.27079859088318, 0.2739559777894222, 0.2772018934818278, 0.28041895860940247, 0.28360698652517646, 0.2869065646031074, 0.2902394537872434, 0.2936347842244924, 0.2970322223992997, 0.30042849360617024, 0.3039035932397435, 0.3074132942233427, 0.31094017843689575, 0.3145226675274122, 0.3181721659101352, 0.3218207246575146, 0.32550680871505694, 0.3292376735543209, 0.332998204640137, 0.33677369402562596, 0.34061355792667297, 0.3444831599432143, 0.34839787671496053, 0.3523493925807925, 0.3563182110119057, 0.36034627381585094, 0.36440684841312493, 0.3685077571654706, 0.3726449415136798, 0.37683285206304074, 0.38104118221619776, 0.3852600869126919, 0.38954648235639117, 0.3938685347308451, 0.39822094650445505, 0.40261513539210375, 0.4070393642116068, 0.411505001987355, 0.41600562579699807, 0.42054115335977804, 0.42511145567783465, 0.4297270852790714, 0.43436502191153975, 0.43903769660520126, 0.4437536724114072, 0.4484935457145886, 0.45322277641645453, 0.4580358768302501, 0.46287947236922466, 0.46774623105553187, 0.4726511172666436, 0.4776104069249547, 0.48257059758426496, 0.4875609420849968, 0.49257190975667314, 0.49762189100968773, 0.5027247056616883, 0.5078265532185153, 0.5129564137381957, 0.5180866312187459, 0.5232733776964577, 0.5284572847799146, 0.5336947329962923, 0.5389533463112808, 0.5442254915280252, 0.5495258340456237, 0.55483281455617, 0.5601724586322325, 0.565529334744506, 0.5709207358587254, 0.5763080110378036, 0.5817062432061575, 0.5871259496823078, 0.5925598753256628, 0.5980106989211712, 0.6034698923269538, 0.6089407296235334, 0.6144222025036636, 0.619913281969576, 0.6254164945976686, 0.6309231712876636, 0.6364007045849421, 0.6419239865788491, 0.647449597790657, 0.6529730965659852, 0.6585011713775721, 0.664026849943465, 0.6695529653730673, 0.6750763958269878, 0.6805585726945633, 0.6860782532572637, 0.691591735692577, 0.6970943929792289, 0.7025874486437953, 0.7080449140045254, 0.7135189901499316, 0.7189682972467869, 0.7244147409663433, 0.7298446747898193, 0.7352535904497125, 0.7406480959515488, 0.7460247023149336, 0.7513785396972661, 0.7567106063665652, 0.7620358187259069, 0.7673187607176624, 0.7725575575742094, 0.7777926288345082, 0.7829993225882664, 0.7881817551122818, 0.7933272537452182, 0.7984158454680984, 0.80349939677929, 0.8085469562131118, 0.813543060913338, 0.8185169275914167, 0.8234683033550909, 0.8283580534929288, 0.8332061608508137, 0.8379576721423393, 0.8427252875129282, 0.8474335294444679, 0.8521042978201124, 0.8567239494701083, 0.8613058646130108, 0.8658186637022859, 0.870244279759122, 0.874653766277453, 0.8790057747899462, 0.8832582661163093, 0.8874976954079797, 0.891708399250611, 0.8958174481374576, 0.8998642299046483, 0.9038780262237641, 0.9077930965052133, 0.9115763167952179, 0.915370743739864, 0.9190946917694838, 0.9227527377460328, 0.9263326518777446, 0.9298381277911216, 0.9332720353445078, 0.9366313128225149, 0.9398685387100811, 0.9430815863643311, 0.9462234722157071, 0.9492746019017662, 0.9522449110798796, 0.9551318694743249, 0.9579385141229378, 0.9606315630326517, 0.963274858274714, 0.9658316793287676, 0.9682925441303878, 0.9706758834749245, 0.9730044928852459, 0.9752056073864717, 0.9773188252610873, 0.9793254176181878, 0.9812625658414749, 0.9830815139779101, 0.9848386446578166, 0.9865016260605405, 0.9880879381661857, 0.9895591632420935, 0.9909467519826483, 0.9922273389187988, 0.9934130682909829, 0.9944729485275752, 0.9954710289808586, 0.9963243630641698, 0.9971315234651892, 0.9978372984496099, 0.9984543310902717, 0.9989561083742793, 0.9993485557988471, 0.9996506223088859, 0.999851678394556, 1.0, 0.9999929656784817, 0.9998340318219987, 0.9996368552117094, 0.9993376991685529, 0.9989671163868088, 0.9984606519679952, 0.9978222326733991, 0.997120207009552, 0.9963164939442611, 0.9953988476134198, 0.9943941499230821, 0.9933254266745324, 0.9921132530530493, 0.9908024214447626, 0.989334048575715, 0.987833722562922, 0.9862694215819384, 0.9845620390509602, 0.9827566675822166, 0.980841183759385, 0.9788426161839258, 0.9767198074504819, 0.9745303593384688, 0.9722431688054586, 0.9698769527534935, 0.967394537138469, 0.9648429221856848, 0.9621695872638818, 0.9594048444622227, 0.9565349343281799, 0.953590856312618, 0.9505402502889291, 0.9474181259778524, 0.9442062887198739, 0.940895002837104, 0.9375080782059009, 0.9340338499345773, 0.9304734386947003, 0.9268279715575072, 0.9230735582497259, 0.9192645591780587, 0.9153743240283129, 0.911400421702258, 0.9073463247140546, 0.9032312448160017, 0.8990185043881996, 0.8947663259037424, 0.8903998788442363, 0.8858929397737518, 0.8813946989670378, 0.8768237204265972, 0.8722066488078934, 0.8674918688139018, 0.8627159218320029, 0.8578687758505356, 0.852958159500253, 0.84798900772979, 0.8429550996374562, 0.8378638527144638, 0.8327128597348324, 0.8275056518315519, 0.8222293539956833, 0.8169158235028066, 0.8115460449000357, 0.806129226852906, 0.8006627536739154, 0.7951589973057895, 0.7895968004877041, 0.784003011656507, 0.7783525929408573, 0.7726619257929762, 0.7669432330050644, 0.7611752310203457, 0.7553185231630793, 0.7494886235318726, 0.7436236272398505, 0.7377487417045651, 0.7318164930999694, 0.7258509132131081, 0.7198651087444733, 0.7138544429700456, 0.7078153023986418, 0.7017608348562314, 0.6956989516247574, 0.689604823927046, 0.6834950180600438, 0.6773157795684062, 0.6711866049856275, 0.6650436292532846, 0.6588889640202065, 0.6527246659945765, 0.6465581040171309, 0.640379834587239, 0.6342463800120629, 0.6280569455533562, 0.6218704097010199, 0.6156899474396443, 0.6095131666226202, 0.6033024950833035, 0.5971467864965737, 0.5909988649144352, 0.5848676658767927, 0.5787397386579123, 0.5725895113560765, 0.5664946428485357, 0.5604144720846257, 0.5543884209142287, 0.5483384943731446, 0.5423215852380208, 0.5363163131154092, 0.5303367795443568, 0.5243431943566135, 0.5184243067870516, 0.5125399708953887, 0.506676632683294, 0.5008443522183894, 0.4950750213972204, 0.4893054912617642, 0.4835767094934805, 0.4778822347040469, 0.4722274549526818, 0.46659562376626906, 0.46102587985808136, 0.45547497079917404, 0.4499935731143375, 0.4445554432577027, 0.43917627945417864, 0.4338270219019825, 0.428486557690947, 0.423239652791586, 0.41804091473057287, 0.41294000687781734, 0.40783563151098173, 0.40278613093678967, 0.39779232462198616, 0.39285502307839504, 0.3879142496668174, 0.38310002873511195, 0.37833053641976916, 0.37362982509118414, 0.36898637963691094, 0.36442104429345573, 0.3598931089101857, 0.35544294139982774, 0.35103713154093275, 0.346695457796675, 0.34239883741886284, 0.338189636235023, 0.3340558543080861, 0.3299753441176506, 0.3259614018680219, 0.3219966346789189, 0.3181195040862411, 0.3143021403427528, 0.31056027953514626, 0.30688594932751695, 0.30328143137373925, 0.2997433669445355, 0.29626353768220587, 0.29286508162743663, 0.2895356036666721, 0.2862843741469529, 0.28309266943720185, 0.279973079927203, 0.27692192010185956, 0.273941384322603, 0.2709993288601679, 0.268164173891857, 0.26544789060779234, 0.26274424674374186, 0.26011256757302725, 0.25749175341578995, 0.2550107133803905, 0.2526472924231546, 0.2502952058651675, 0.2480137179585792, 0.2457577481744568, 0.24362192024951582, 0.2415797843475776, 0.23957425367093324, 0.2376369070866411, 0.23573516890231805, 0.23393703357277493, 0.23222187680957282, 0.2305514719802379, 0.22894668614406832, 0.22742135193204455, 0.22594456171254262, 0.22451660981767593, 0.22317103368144572, 0.22188812276948333, 0.22064049392649376, 0.2194845634382609, 0.21837369400190446, 0.2173378533499081, 0.21635963627564003, 0.21550832817484278, 0.21463519773212597, 0.213730977191151, 0.21298836634956736, 0.21229842374269906, 0.2116714920697601, 0.2110843071559542, 0.2105901392919492, 0.21010088790622394, 0.20966444985721644, 0.20922610337243308, 0.20889878724166785, 0.20863050495304544, 0.20839398697008762, 0.20820331472364662, 0.20807192328222693, 0.2079685065419544, 0.20793228695203744, 0.2079127823517565, 0.20793639541891948, 0.20796788960556023, 0.20807822747952265, 0.20819561259373787, 0.2083837038458095, 0.2086055826134264, 0.208874789723628, 0.2091601077579574, 0.2094418438267049, 0.2097950118225245, 0.21017630474448992, 0.2106099868087825, 0.21104202891439897, 0.2115315528924737, 0.21201283698616524, 0.21252070216475302, 0.21299121564264756, 0.21355606900940777, 0.21419536482314097, 0.21479046629240658, 0.21540605706090765, 0.21597466794221684, 0.21663563059643864, 0.21736664470906158, 0.21804533813273655, 0.21873857043612033, 0.21945041874700866, 0.22016821521355132, 0.22086130621955868, 0.221604445511581, 0.22235411166744978, 0.22310579599053942, 0.22386615343580402, 0.2246478734496327, 0.22541200710078055, 0.22618589546275403, 0.2269532353546258, 0.227721396228809, 0.22850176053568588, 0.229266610981146, 0.23001356747520035, 0.2307756699208526, 0.23153275568647713, 0.23223558326803084, 0.23298581730256024, 0.23374866976027425, 0.23447417652109512, 0.23518923388655613, 0.23584656579608498, 0.2365441991153479, 0.23724782254455917, 0.2379113976803864, 0.23855982333627138, 0.23921744882069335, 0.239830373456149, 0.24042034990111127, 0.24100168684189108, 0.24156505751588342, 0.242098947217539, 0.24262539017146986, 0.24311486066375285, 0.2436009183377476, 0.2440638961578689, 0.24451044089248952, 0.24492483959473535, 0.24530967417161523, 0.24567577964705734, 0.24601625579477968, 0.24635026117665337, 0.24663548653323908, 0.24684643240903392, 0.2470850920388641, 0.24729378577625036, 0.24749198987581522, 0.24763768739872422, 0.24773603645716782, 0.2478246604164567, 0.24788204554825027, 0.2479061867061018, 0.24790066433989918, 0.2478577809486033, 0.24778873522682415, 0.2476869834489075, 0.24755952141997273, 0.24739099169195303, 0.2472254511358851, 0.2469866768303258, 0.24671676003611623, 0.24642596841893877, 0.2460910903644015, 0.24571551615832798, 0.24531785708655854, 0.2448872051926041, 0.24441083321028034, 0.24391517458486278, 0.24334597032107855, 0.2427868452516306, 0.24219131691929593, 0.24158119612029136, 0.24091121196448698, 0.2402177837567008, 0.2394782486835751, 0.23870544653994702, 0.23790482366876264, 0.23706508503637877, 0.23619091682846888, 0.23528623237042945, 0.2343490579691417, 0.2333366739236198, 0.2323405114716673, 0.2313493914861743, 0.23028028478069656, 0.22918026999372837, 0.22804601147189507, 0.22688537522042357, 0.2256819079154385, 0.22446255555008957, 0.2232128772821545, 0.22196194803283215, 0.22064942911800137, 0.21930247639601555, 0.2179365543424526, 0.2165435025553821, 0.21508616782717596, 0.21364478143022098, 0.21218431988051978, 0.2106865300562964, 0.20916271551827367, 0.20759028492284406, 0.2060192945954681, 0.2044675915124008, 0.2028409717644009, 0.20119308122360358, 0.19948322507404365, 0.1977992730648776, 0.19614312613777776, 0.19440917564592589, 0.19265741205150036, 0.1908506793262503, 0.18906921737145896, 0.1872672960256258, 0.1854494958097883, 0.1836144713565433, 0.18176657100286486, 0.17989895559459623, 0.17801660689751522, 0.17612024227076384, 0.17421057566549986, 0.1722615049529538, 0.17033075486313667, 0.1684248617340298, 0.16646492225976683, 0.16449621897266464, 0.1624996527757252, 0.1605176137726832, 0.1585131399232892, 0.15651740028818814, 0.1545142347078279, 0.1525223755552348, 0.15050464647166975, 0.14846512483760155, 0.1464424731595704, 0.14441620482982787, 0.14237996560833638, 0.14034973769607706, 0.13835179001818687, 0.13631470502921197, 0.13427942810981489, 0.1321981846871989, 0.1301741086941378, 0.12817924407411477, 0.12615369065663307, 0.12413214939411228, 0.12214562241044115, 0.12013010125599168, 0.11812927803787615, 0.11612830604804611, 0.11413602427489718, 0.11212060556842687, 0.11015084475542845, 0.10817478997263151, 0.10622352639216591, 0.10428080398438488, 0.10238492187619862, 0.10045678890952284, 0.09854328844091458, 0.0966409964425951, 0.094752416957633, 0.09284218563153543, 0.09098672089562457, 0.08913342445808198, 0.08730580028073848, 0.08549183060322647, 0.08373156281909987, 0.0819420551904572, 0.08018654644377773, 0.07843112210514135, 0.07669510951699055, 0.07494114872261413, 0.07324926047705663, 0.07159314290429587, 0.06993531411900482, 0.06829741506044411, 0.06663151494055644, 0.06504056909398793, 0.06349463417080596, 0.06193739136001916, 0.060401189155105374, 0.05889891224306067, 0.05740430245621395, 0.05591997206759653, 0.05447273538935927, 0.053047994489760754, 0.05161922792953311, 0.05024372265638276, 0.04889717094059193, 0.04756481443290249, 0.04625550887850734, 0.04499636767518369, 0.04373064238871702, 0.042452740367368465, 0.04124247812744042, 0.04005545779228689, 0.03887767294353958, 0.037739786533925485, 0.03665906816998489, 0.03556359505300543, 0.03449378254532437, 0.033438841609791346, 0.032421509507826275, 0.03146299123352033, 0.030491071235092322, 0.029545901429176496, 0.028564617117260466, 0.02767997404585536, 0.02685704571742449, 0.026012457302899538, 0.025194699365914227, 0.024399805266504898, 0.02362971896661105, 0.0228610133608181, 0.022142910130178006, 0.02152102174100675, 0.02083948969804209, 0.020184941480177333, 0.019512032575315866, 0.018915183401702115, 0.018321320837867115, 0.017772091085727935, 0.017244064865888878, 0.016696099202758986, 0.016215559149655466, 0.015798425590262094, 0.015349886538808706, 0.014922938393389715, 0.014528036792076478, 0.014142095383992939, 0.013772145292751801, 0.013429204878766794, 0.013106549515746361, 0.01274306407155121, 0.01246764200798071, 0.012242026298223558, 0.011994131090403797, 0.011764189374837499, 0.011596626692868432, 0.011396132844190833, 0.011150902099463225, 0.010997096882469458, 0.010857970233425964, 0.010813857627061099, 0.010693565873201387, 0.010577738574539029, 0.01049592490524741, 0.010430405070943768, 0.010360868134002877, 0.010328505266177814, 0.010261203767049304, 0.010261176374659866, 0.01027093153672605, 0.010322615489501573, 0.010347730481175205, 0.010398504526905864, 0.01044410868584862, 0.010501030221231092, 0.010606265950365432, 0.010679463395425295, 0.010730532161914084, 0.010830883096752623, 0.01093958961589071, 0.01107050458465013, 0.01119277658573492, 0.011285339970105878, 0.011427468506477844, 0.011574239709580958, 0.011777279271200841, 0.011926120257150567, 0.012001370386922746, 0.012173388962648829, 0.01234639752462106, 0.01254544639986542, 0.012717294434398832, 0.012887889477583092, 0.01306452067777487, 0.013242636022702516, 0.013416567772021744, 0.013597402455975236, 0.013769534120930665, 0.013951676410227971, 0.014132955997583557, 0.014331005944599675, 0.014507555659123109, 0.014715645187140533, 0.014886424457218102, 0.015057520439985535, 0.015210384295199662, 0.015382393663389343, 0.015580414419880142, 0.015743211273650377, 0.015904202647436434, 0.016086006956347924, 0.01623863226273609, 0.016351481417521175, 0.01650368699995087, 0.016650223255570838, 0.016805108911784824, 0.016937662965076983, 0.01705917046978752, 0.017180665098016298, 0.017295458232495304, 0.01746761853286917, 0.017560038319609058, 0.017666437833284226, 0.01774804757549203, 0.017825324507917316, 0.01786176236211902, 0.017932709004423453, 0.018011374863812823, 0.018063304606865938, 0.018107302824493608, 0.018187731559571246, 0.018209274262482877, 0.018233460152465887, 0.018240700274502697, 0.018241053306373028, 0.01825009062049593, 0.01823315464088172, 0.018253573297912416, 0.018215861020132236, 0.01817247351995584, 0.018162047227586537, 0.01810036823726273, 0.018049529720765782, 0.017974587115846125, 0.017893942956938143, 0.017840910235027388, 0.017742725203356353, 0.01764625511626632, 0.017535662829661663, 0.01741888262925989, 0.01729901103297016, 0.017168064081186644, 0.01709968854862769, 0.016945395682765266, 0.01678745326435124, 0.01660195470762544, 0.016437772938059654, 0.016327776823510148, 0.01614259097684727, 0.015954016896352216, 0.015763343931001674, 0.015566386918984418, 0.015423966585586911, 0.01521044172118745, 0.014995448000496403, 0.014774887986105663, 0.014555965846770203, 0.014386005663703334, 0.014154616870418406, 0.013923027670616928, 0.01371048559443428, 0.013474881641859334, 0.01328932829170246, 0.013047139903525748, 0.0128073532222123, 0.012585594163324831, 0.012347322540944613, 0.01212743812045784, 0.011891493328762383, 0.011658384104867355, 0.011452974487714972, 0.01122198938493622, 0.010987903225510577, 0.010765829322131522, 0.010547316301661858, 0.01034502273395806, 0.010132553913878855, 0.009983967732863695, 0.009774051244048138, 0.009572842957034169, 0.009399862972068707, 0.009213259415606665, 0.00903633654553597, 0.008869069095742204, 0.008711523070145732, 0.0085870833583868, 0.008446554066437925, 0.00829088359129468, 0.008177237787232748, 0.008074129267385996, 0.008041045848856173, 0.00795307892955589, 0.00789662585358474, 0.007837574876942843, 0.007795124910614253, 0.007781900787385847, 0.007771482373083025, 0.007807521757331631, 0.007829414236403742, 0.00787125892778537, 0.007886683713101113, 0.007974699026692905, 0.008132433945492267, 0.008250342296140084, 0.008390419008872545, 0.00855652009560204, 0.008741379005060692, 0.008946032007590468, 0.009178478031130168, 0.009434925985750348, 0.009712300743148454, 0.010018730606383018, 0.01031836030650111, 0.010680204834803206, 0.011066821339724964, 0.011529135428339068, 0.011961565749525623, 0.012420550818716035, 0.012914092789979553, 0.01343839195133953, 0.013965328600046536, 0.014556218219487252, 0.015199201582966665, 0.015849419404346657, 0.016509734798632887, 0.017230105736833957, 0.017983599170995672, 0.018758438403641227, 0.019581944665387027, 0.02047933895062726, 0.02136776972477707, 0.022294482928583735, 0.023209822405214537, 0.024220625071825944, 0.02527884334340257, 0.0263624958980886, 0.027485046918301885, 0.028665025580942197, 0.02986504750796877, 0.031090764595229695, 0.032376820085472144, 0.03370461781966486, 0.0350747106167317, 0.03648762964551726, 0.0379385229392077, 0.03943928493528841, 0.04098404660107163, 0.042587606221221444, 0.04422003071849857, 0.04588081019189964, 0.04760827504358856, 0.049381601092836604, 0.051181578052873426, 0.05305044661422026, 0.05496893512179811, 0.05692998352639691, 0.05893832129082017, 0.061022984449016264, 0.06312355946353256, 0.06524206697936784, 0.06744704338471505, 0.06970055793678069, 0.07200656411984227, 0.07435780560732666, 0.0767767008010072, 0.07922549645882697, 0.08172556530203798, 0.08421977363886722, 0.08682981992387831, 0.08954889512632676, 0.09224827457696583, 0.09500027883917139, 0.09776190855409342, 0.10062429762485255, 0.10353662489450008, 0.1064991491953875, 0.10951208712361038, 0.11258991597867397, 0.11570236677727454, 0.11886645521681391, 0.12208213802942258, 0.12534935495463911, 0.12864121581680574, 0.1320146432505144, 0.13541100567959738, 0.13888740798561175, 0.14241218723412666, 0.14596768790533837, 0.1495920756573224, 0.15327860647647512, 0.156997053750263, 0.16076444088286848, 0.16456461321228055, 0.16843166868360732, 0.1723517912388004, 0.17631351400630751, 0.18032306251915384, 0.18441597993550773, 0.18851599733608626, 0.19265617078890684, 0.19685490068179623, 0.20110101646445977, 0.20534930266196688, 0.20969425165842887, 0.21406459784969514, 0.21849815898067487, 0.2229735491790668, 0.22751921562667482, 0.23207412325291893, 0.23666466722086846, 0.24130549101067117, 0.2459875566284745, 0.25071925625040486, 0.25548101229088477, 0.26024168348201476, 0.2650880021851617, 0.26997064298652895, 0.27490709208147207, 0.2798588953238648, 0.2848449108970468, 0.289868257329163, 0.2949261136631496, 0.30001776417247694, 0.30514246971461384, 0.3102744435352812, 0.31546611892186677, 0.3206870999642032, 0.3259385549835432, 0.3312160210090591, 0.33651018541471805, 0.3418431027601537, 0.3472013059885624, 0.352609093631035, 0.35801248548809267, 0.36345100134595065, 0.3689008019372797, 0.37437353343356045, 0.3798770058903047, 0.38539109247198045, 0.3908573196670046, 0.3964189446563495, 0.4019944676360997, 0.407629747869625, 0.4132252808207639, 0.41877630792051185, 0.42440711160487216, 0.43004678142718517, 0.43571608974051595, 0.4413686864606654, 0.4470398728392112, 0.4527058309251602, 0.45837820995876194, 0.4640415688937759, 0.46972516780444507, 0.4753823391004162, 0.4810728525048973, 0.4867618178706682, 0.4924573160743834, 0.49813943960594964, 0.5037910018408613, 0.5094679676473689, 0.5151375532513048, 0.5208042394901461, 0.5264556953552637, 0.5321008686813461, 0.5377311086245374, 0.5433495670016912, 0.5489193642264171, 0.5545153756865415, 0.5601138250813884, 0.5656720127679647, 0.5712122569040897, 0.576699460181696, 0.5822046921467036, 0.5877688503814732, 0.5932161799319092, 0.5986429706782957, 0.6040207621859109, 0.6094049721489704, 0.6146890495665985, 0.6200275424328116, 0.6253324967486192, 0.6306568539234957, 0.6358858346076659, 0.6410177020744087, 0.6461880146525278, 0.6513194026821846, 0.6564075489133843, 0.6614592602218243, 0.6664515913766421, 0.6714216990309596, 0.6763475510942704, 0.6812766277749064, 0.6861054697017925, 0.6908741934877155, 0.695615716539738, 0.7003097405327452, 0.7048890012368528, 0.7094930166557538, 0.7140531806840623, 0.7185461060197819, 0.7229838362517361, 0.7273334184644636, 0.7316624614009265, 0.7359821272604326, 0.7401853815306282, 0.7443307579128123, 0.7483742548664714, 0.7524060109423106, 0.7563634943312745, 0.7602687978053431, 0.7641084975283242, 0.7678711920059694, 0.7715789835372979, 0.7752381248145753, 0.7788061450493815, 0.7823056138041259, 0.7856748942882389, 0.7890423679190952, 0.7923120760792375, 0.795533081189188, 0.7986775009364544, 0.8017754656612174, 0.8047620400740267, 0.8076441923100222, 0.8104820860268248, 0.8132358777011902, 0.8159165399454135, 0.8185172735784637, 0.8210447930997339, 0.8234834371296865, 0.8258590634892407, 0.8281331194684717, 0.8303262022513256, 0.8324036667889302, 0.8344370761396819, 0.8364088720073577, 0.8382693061228824, 0.8400455172468938, 0.8417083726525499, 0.8433181805748823, 0.8448245455717891, 0.8462614460091935, 0.8476096219143128, 0.8488761172598812, 0.8500456080682451, 0.8511174833520193, 0.8521105570244164, 0.853014073503204, 0.8538243511242741, 0.8545488866089633, 0.8551690503888582, 0.8557151849576712, 0.8561703183597261, 0.8565202118972538, 0.8567953314980524, 0.8569627343696821, 0.857056803168548, 0.8570586761531959, 0.8569543395009804, 0.8567744699474173, 0.8565363740413096, 0.8561681908479185, 0.8557104240833363, 0.8551595511197398, 0.8545232502331889, 0.853822419792517, 0.8530039989497041, 0.8520977585432069, 0.8510590084537112, 0.8499828227993238, 0.8488003601368, 0.8475463272219763, 0.8462021943175739, 0.8447650116154694, 0.8432429938036529, 0.841623578895656, 0.8399263988823668, 0.8381415047660861, 0.8362981864085615, 0.834336306551782, 0.8322778490444563, 0.8301498638956779, 0.8279380252301924, 0.8256768967836899, 0.823294874244714, 0.8208166666584744, 0.818276861876851, 0.815656865230828, 0.8129805236677963, 0.8101990627652417, 0.8072923689723646, 0.8043635836870713, 0.80135619549128, 0.7982926540492236, 0.7951283425899611, 0.7918878355593894, 0.788575758165568, 0.7851908446687661, 0.7817250432336456, 0.7781982661285515, 0.7746008712807749, 0.7709338778376018, 0.7671983156006812, 0.7634220386007532, 0.7595490829118117, 0.7556122209453797, 0.7516123136518182, 0.7475502610333897, 0.7433823110595776, 0.7392044615552645, 0.7349469925499903, 0.7306493059443243, 0.7262916369935583, 0.7219166023488508, 0.7174382502320007, 0.7128691086291126, 0.70829009466375, 0.7036579326560902, 0.6990026609350453, 0.6942648815732451, 0.6894458572502139, 0.6846189695716193, 0.6797452331236746, 0.6748815292880811, 0.6699114737151157, 0.664848404069828, 0.6598073280482643, 0.6547258480368061, 0.6496036660068372, 0.6444460556137515, 0.6392809613265843, 0.6340490247481867, 0.6287855138318336, 0.6234969959115518, 0.618173291005753, 0.6128076807724876, 0.6074317868219287, 0.6020299306041752, 0.5965945394616265, 0.5911459855430365, 0.5856857927914725, 0.5801925956421001, 0.5746805101930302, 0.5691133370935275, 0.5635722416588886, 0.5580302654640752, 0.5524548473766843, 0.546866624810506, 0.541313524034043, 0.5356981526931024, 0.5300322057176269, 0.5244117470717332, 0.5187850009904161, 0.5131319775439431, 0.5074997324032204, 0.5018786248677064, 0.49623982770748004, 0.49060179636640877, 0.4849802263591676, 0.479346086512345, 0.47374267418189303, 0.46811800396881226, 0.46250289890812035, 0.45685905879551003, 0.45127115536147955, 0.44573307576711113, 0.44016259428443116, 0.4346075881732867, 0.42904942542548685, 0.4235309641662913, 0.4180264350768032, 0.4125446662611442, 0.4070826432880346, 0.40161478200069006, 0.3961993105788894, 0.39080929054698393, 0.3854385123725316, 0.3800925522216925, 0.37477090049234985, 0.3694786002926901, 0.36421295801266984, 0.35897896425051234, 0.35377566159671003, 0.3485952515574859, 0.3434578466761951, 0.3383700417700945, 0.33329874562988643, 0.3282640644001452, 0.3232490391634382, 0.3182925794983921, 0.31336548969533845, 0.30848778153130363, 0.3036498559289475, 0.298836632668458, 0.29408328723799143, 0.2893860209495319, 0.2847154423746364, 0.2800894277337397, 0.2755105660068074, 0.27097582584861074, 0.2664934230803086, 0.26205265011082, 0.2576605177725798, 0.2533212015342237, 0.24902767987548455, 0.2447400529292069, 0.2405538603056762, 0.23641675109756657, 0.23235637668858966, 0.22831649726785377, 0.22430987681242984, 0.2203787765474999, 0.21650036900216882, 0.21270023928596016, 0.20892568886083399, 0.2051656746756481, 0.20150785826602635, 0.19790384511400122, 0.19437741562287045, 0.1908796437015337, 0.18740627110368252, 0.1840259198909335, 0.18070072070471377, 0.1774668415782748, 0.17424862441324204, 0.17107078489953256, 0.16797131324246248, 0.1649308289720045, 0.16194563590547195, 0.15901792468938605, 0.156160243362198, 0.15334599506897822, 0.15056493827250927, 0.14787015127139796, 0.1452318924647024, 0.1426305414443165, 0.1401079158397619, 0.13764073349446987, 0.13522908932784913, 0.1328730266006204, 0.13060471601563325, 0.12835568773379477, 0.1261424484757056, 0.12401022051624377, 0.1219332412806525, 0.11995596945747625, 0.11798311967283666, 0.11600468977966696, 0.1141530479393741, 0.112353558288416, 0.11065256585080666, 0.10895106233018181, 0.10727339477187507, 0.1056835402428468, 0.104144928040356, 0.10263750924773239, 0.1012026824745398, 0.09982748087961225, 0.09848879165386071, 0.09719894857055912, 0.09596105089241376, 0.09476699398218617, 0.09360617772033238, 0.09250843091353105, 0.09145624389685247, 0.09044911507123028, 0.08948651158922076, 0.08854284593840493, 0.08767074434692984, 0.08683999826954368, 0.08605195851517794, 0.08530234039568078, 0.08459273127438306, 0.08392255101703378, 0.0832911853927508, 0.08273910254194648, 0.08217820383037952, 0.08161887077093699, 0.08113987327084549, 0.08069578670266943, 0.08031628540253265, 0.0799360155011368, 0.07954189441419879, 0.07923553479686356, 0.07895885940249713, 0.07875416720973982, 0.07852959350411108, 0.07833341229329875, 0.07816837892275598, 0.07803135006804107, 0.07788557471619384, 0.07780608629424719, 0.07777823041932976, 0.07774050938099865, 0.0777260385348237, 0.07769989452156466, 0.07773334542336305, 0.0777942196989604, 0.07786284584511113, 0.0779490996864675, 0.07808079212950582, 0.07819630341853054, 0.07828216637361503, 0.07843615720240919, 0.078602283779785, 0.07882638369436151, 0.07900896204963588, 0.07919892585380965, 0.07940659244391966, 0.0796245622077852, 0.07978391972084002, 0.08002813644481885, 0.08030274607380654, 0.08055034276661563, 0.08080219348101003, 0.08109334668986797, 0.08134706477107345, 0.08153697175898722, 0.08180648595455522, 0.08207428561010675, 0.08233816147701235, 0.0826014506620409, 0.08291695215253006, 0.08316631364562076, 0.08341451763566206, 0.08361585787212118, 0.08386437825252245, 0.08410270599110459, 0.08433788239332901, 0.08456510359706038, 0.08480883554893137, 0.08501529031907844, 0.08522062954175712, 0.085408857544328, 0.08558765848387284, 0.08572225999155786, 0.08588410026141442, 0.08603225873717704, 0.08616627610138512, 0.08628568305649797, 0.08640609078247054, 0.08649280777314758, 0.08659118757090639, 0.0866435994126424, 0.08668115427539695, 0.08667624380737639, 0.0866851332957295, 0.08669685566135671, 0.08666534312169967, 0.0866155178978069, 0.08654856194373328, 0.08646010160687274, 0.08632847158395185, 0.08620256045912592, 0.0860543925721901, 0.08586760032484297, 0.08567611809281725, 0.08545528822858045, 0.08521637934004722, 0.08495290616306005, 0.08470408750587917, 0.08438618265165065, 0.08401697239676852, 0.08365682963760286, 0.08327152438840145, 0.08283052488987284, 0.08239831037227745, 0.08198171205399918, 0.08148962056957586, 0.08097286295722156, 0.08040078138372109, 0.07983775205735227, 0.07926013586762813, 0.07864137872538401, 0.077996325523025, 0.07731240704752233, 0.07661618526523059, 0.07591964183500403, 0.07516583847816963, 0.07438656125898668, 0.07358882432272887, 0.07275731700107067, 0.07188075393047327, 0.07100083887587365, 0.07009424405583689, 0.06915035830784326, 0.06819211217595769, 0.06720695664455137, 0.06619512263649847, 0.06515684111901879, 0.06411915750695306, 0.06302529025510546, 0.06189288552932825, 0.06075237944140887, 0.0595869203962742, 0.058398500370031504, 0.057183536798841667, 0.05598906452352709, 0.054720288111257884, 0.05343030164062641, 0.05209398261400352, 0.050764508470927915, 0.04939263844969674, 0.0480204518686086, 0.04662498412391203, 0.04520133792704568, 0.0437613803032392, 0.042318895509752846, 0.04083257745135073, 0.03932617982303774, 0.03778931668940771, 0.03624515071040655, 0.03465276979204926, 0.03307346401524545, 0.031473886960255056, 0.02987977271477971, 0.028238589280478035, 0.02656450396244528, 0.024892166695896098, 0.023203000358482714, 0.021535127772637903, 0.01980930171151973, 0.018061544102320918, 0.016311120831647947, 0.014547755298148491, 0.012732515773773984, 0.01094943850192623, 0.009166747365603594, 0.007354793591367787, 0.0055312227555636626, 0.0037073570290900703, 0.0018609807162098106, 0.0