0.04046953387351943, 0.03983299734177324, 0.03923347929428302, 0.03864999688365155, 0.038111311436093434, 0.037520270376233365, 0.03703208459348773, 0.03655569215167782, 0.036073536434410025, 0.0356174463572164, 0.035214672253360946, 0.034764156116101355, 0.03432087753711293, 0.03393494003448252, 0.03349713734067072, 0.03304371805086888, 0.03262396257196406, 0.03220941880579607, 0.0317645128987761, 0.03136422153066792, 0.03094712262823201, 0.030555286819625656, 0.030165892011427258, 0.02982268186404281, 0.02943443402924421, 0.02893896442503264, 0.02857851830789821, 0.0282187664518951, 0.027978653634482296, 0.027608931726370294, 0.027116427332071712, 0.026784891129137824, 0.026456574004240598, 0.026207201213274148, 0.025879264804890643, 0.025530510828859078, 0.025227979837121467, 0.024934815455446433, 0.02464761280785337, 0.02437520046906127, 0.024140859123175377, 0.023886620707645027, 0.023645391044601425, 0.023436961606094216, 0.023219774754468334, 0.022923015861408543, 0.02274699000133212, 0.02258034538284695, 0.022416042881270304, 0.02227150648882271, 0.022240158070944323, 0.022105680900154336, 0.021989345871371187, 0.02187125626987375, 0.021792917993423335, 0.021676007456354195, 0.021637389438696083, 0.021612137792050075, 0.021691029217781533, 0.02168259233405958, 0.02167439148404242, 0.021707842633798453, 0.021759494426471213, 0.021750825994392778, 0.021848752841005223, 0.022035059028076075, 0.02215187914938072, 0.02228804093863773, 0.022345430200489184, 0.022532717471565277, 0.02271824059885406, 0.022936260612131228, 0.023169018779490277, 0.023554742569377906, 0.023802131836555624, 0.024031178001412412, 0.024333240945964833, 0.02459019303838563, 0.024943972458443823, 0.025315771150800206, 0.025733711136118664, 0.02613997803879928, 0.026555848107268645, 0.027006661974256777, 0.027478794273157546, 0.027937310207122517, 0.028457688657704965, 0.028963192328381453, 0.029529554090954313, 0.030115579441167533, 0.03073778224217644, 0.03136352106952263, 0.03197671128057434, 0.03265294701474065, 0.03335090358636787, 0.03411836965174575, 0.03485582544972202, 0.03563915228478959, 0.036426754823152135, 0.03724196847011949, 0.03809261310684193, 0.03896198680842452, 0.03981620653572995, 0.040747029741887764, 0.041703382846326034, 0.04268561006545384, 0.04369402915942971, 0.04473285821662331, 0.04579402290125188, 0.04688241483670276, 0.04804532952312432, 0.04918280799505726, 0.05036641592903566, 0.05156255536265316, 0.05278961060578632, 0.05404730750119518, 0.05533541594647317, 0.0565674030923813, 0.05792671194378248, 0.05931111093007674, 0.06078398619673279, 0.062212338670792275, 0.06371406627745034, 0.06519727991364646, 0.06671295567794817, 0.0681193949724978, 0.06971667348630473, 0.07133347134271109, 0.07297899303485698, 0.0746493496125769, 0.07638839771748768, 0.0781049296609116, 0.07981910744386558, 0.08159777653684008, 0.0834038615931053, 0.0853004360538168, 0.08715419648545485, 0.08903564896712979, 0.09095276107074866, 0.09290053407410966, 0.09485118729230341, 0.09686284206488552, 0.09897336681241219, 0.10103248528442217, 0.10312365872915168, 0.1052030507970977, 0.10736184827918378, 0.10952095981036072, 0.11173862442235878, 0.11398216796089577, 0.11633010960100458, 0.11861553177888416, 0.12082132579160283, 0.12318046150915737, 0.12556233445394185, 0.12799468974836617, 0.130419310391415, 0.13288059339071798, 0.13535335666098267, 0.13785134973764918, 0.14035073028204498, 0.1429012635948026, 0.1454590846564234, 0.14805743240831137, 0.15067756418240139, 0.15339003837156945, 0.1560445061508641, 0.1587282594103408, 0.16143217407062727, 0.16416014788268626, 0.1668329447107083, 0.1696167612565684, 0.17248088449269305, 0.1752917569348974, 0.17812354863338786, 0.1809599162838468, 0.1838336111946249, 0.18676862153086674, 0.18967266554112386, 0.19259630664468586, 0.1954131141082491, 0.1983893351812911, 0.2014345476695758, 0.20442382972052695, 0.20742695608921666, 0.21040819748394515, 0.21344222930349707, 0.21651037146777163, 0.2195623546886263, 0.222625772908415, 0.22566481137605887, 0.22875406269629922, 0.23190616370293735, 0.23500400420304338, 0.23811223256120698, 0.2411436900676235, 0.24428117039798736, 0.2475277372290708, 0.25065796863393003, 0.25379700119665194, 0.2568495481884232, 0.26001484597503743, 0.26320403834900974, 0.2663668252416001, 0.26953076182634345, 0.27264036453458185, 0.2758119015558675, 0.2790111996298493, 0.28217131771896353, 0.2853291307104042, 0.28854685742514385, 0.2916903648800232, 0.2947901069514201, 0.2979367219489935, 0.3010780371821655, 0.3042250903744517, 0.3073521001743373, 0.310503634243912, 0.313612075192668, 0.31671370434290924, 0.31976425702129885, 0.32285447635366454, 0.3258773420970271, 0.328949044373185, 0.33200394574688324, 0.33515170110713316, 0.33815833603478324, 0.34107102233411846, 0.34406371543361863, 0.3470377141531211, 0.3499807244365776, 0.3529172308010227, 0.3559072977781623, 0.35879185152068105, 0.36165852929969433, 0.36445513857534423, 0.3672890461023759, 0.3700949129976533, 0.3728804552730655, 0.3756403886299317, 0.3783269939744426, 0.38103977889422985, 0.38379304325272134, 0.3864362868826909, 0.3890527122296251, 0.39162959121394975, 0.3941910330072921, 0.3966790416006695, 0.3991846335195055, 0.401655983735191, 0.40403773185431846, 0.4064462655979454, 0.4088514535601116, 0.41117812544068955, 0.4134679135607132, 0.4156850070433332, 0.4179040009160881, 0.4200865147802228, 0.42222393434665667, 0.4243205823034526, 0.42632504532155957, 0.42834538744570677, 0.43034044185610393, 0.43226841144497796, 0.4341523609838618, 0.43611751806321375, 0.4378964338052471, 0.4395273113358719, 0.44124236807526035, 0.44291030407501175, 0.4445739222620975, 0.4461410358603411, 0.44763089820915003, 0.44910951265086746, 0.4505390246417182, 0.4519386171053555, 0.4532661232922261, 0.454634578342262, 0.455851447154028, 0.45690909728822393, 0.45804828315939167, 0.4591332636806965, 0.4600932662451936, 0.4610783625380831, 0.462157912648707, 0.46300684045738505, 0.4638064674353634, 0.4645361904276378, 0.46523684938796184, 0.4658491155975625, 0.4664475334541863, 0.46698982200672506, 0.46742478394732534, 0.46786074432828495, 0.46831963181757597, 0.46862646004511366, 0.46887892226752315, 0.46898628720400803, 0.4691400894838316, 0.4693195651970618, 0.4693415268447612, 0.46930844576003045, 0.46914146336891605, 0.4690071747910768, 0.4688988345590741, 0.4686332542162161, 0.468312914603218, 0.46785112690081154, 0.4674312047240683, 0.46704500499078533, 0.4664927537580007, 0.4658863179842586, 0.46509980201471557, 0.46440001979887185, 0.463685373099566, 0.4628566048915843, 0.46197022525161635, 0.4610383833926514, 0.46003641002697127, 0.4590610071012198, 0.45793718409541057, 0.45676267939366394, 0.45548217334973123, 0.45421222240647047, 0.4528837341630521, 0.4515053839787015, 0.4500728803126502, 0.44854345255441214, 0.4470093156547016, 0.44542377165963576, 0.44377926608365276, 0.44208120240467536, 0.4403342116390191, 0.43853063800498643, 0.43667579867031353, 0.4347703274010526, 0.4328148537083933, 0.43088457278343767, 0.428821548168839, 0.42663217241173884, 0.4244917324399086, 0.4223028759210549, 0.42006252357377677, 0.4177798505711567, 0.41546280655345336, 0.4130871932677977, 0.41066776023715484, 0.4082601744593838, 0.4057483266362073, 0.40308803545530203, 0.40051327105247436, 0.3978944414295096, 0.3953191868520174, 0.39260514865520185, 0.38978890323350135, 0.38701277558757485, 0.3841983660720594, 0.3814527182368094, 0.378551557565376, 0.3755545056730293, 0.3726035951243457, 0.36962017639505035, 0.36661689034783096, 0.36356957561772923, 0.36046164138927506, 0.3573606472049028, 0.35423027930424145, 0.35111086909135286, 0.3479200325044615, 0.344693464399125, 0.34145693237962166, 0.33819727391762344, 0.33482510498729023, 0.3315332659736407, 0.32825123948633667, 0.3249055585052273, 0.3215395544288786, 0.31813873366656137, 0.3147376525729224, 0.31140916048704664, 0.3079625614523212, 0.30450581338691207, 0.30098050113862085, 0.2975123211375323, 0.29402437691206224, 0.2905344511238211, 0.287034339099752, 0.2835565654331022, 0.2800354743982914, 0.2764543399839243, 0.27293081956166426, 0.26940077466682355, 0.2658929702127257, 0.26235023812238223, 0.25890831785889695, 0.2553511834776958, 0.2518004553088919, 0.2481620700403811, 0.2446365438170415, 0.24114027532464086, 0.23761599436585565, 0.23409731256563668, 0.2306047334855699, 0.2270974162412324, 0.22355236158425923, 0.22007045076203263, 0.21659674718374988, 0.21313240349973586, 0.20967853996536134, 0.20622054773562898, 0.2027928692854806, 0.19937797334577276, 0.1959612945212327, 0.19257730707885154, 0.18926344583042914, 0.18590401964209927, 0.1825651004401229, 0.17922375032063048, 0.17593066471799398, 0.17269787647315843, 0.16944276185919369, 0.16621254562994145, 0.16296453856659598, 0.15979104495215707, 0.15667685761997996, 0.15354775354674108, 0.15044635849767218, 0.147279024588554, 0.14424659311901475, 0.14126962986439248, 0.13828268597338259, 0.135324111800548, 0.1324418862242571, 0.12953669951268362, 0.12670428247716048, 0.1238615521624311, 0.12105529959314817, 0.11816000759627919, 0.11544284446401029, 0.11279861659363996, 0.11013671570169742, 0.10750928725610004, 0.10488559002368791, 0.10233300277511374, 0.09984244585518773, 0.09735629398207249, 0.09490776224139313, 0.09254046748370708, 0.09016302702850429, 0.0877758629572468, 0.08548748326553135, 0.08323758874074579, 0.08109335796444207, 0.07891333940632916, 0.07666300234496863, 0.07458417871015552, 0.07254212371136634, 0.07063181866468246, 0.06865367387093797, 0.0666843733456202, 0.06479881287839989, 0.0629550334655698, 0.061078582354463125, 0.05932811972565281, 0.05772543230326516, 0.05603750681467674, 0.054394861639322126, 0.05281672002961825, 0.05126098703379913, 0.04967203576850982, 0.048216301253282204, 0.04680052658217144, 0.045413167486560636, 0.04407944036223317, 0.04284050020882547, 0.0415796953640327, 0.040362133481378966, 0.03917568256563183, 0.03804503013914508, 0.0368931169839269, 0.03585322768507149, 0.034850852746446066, 0.0339254812998058, 0.03299382874329421, 0.03210633339036512, 0.03125437504414133, 0.030403055680815753, 0.029635487775904017, 0.02890490498363337, 0.028309369913450625, 0.02764014144728193, 0.026985622384902635, 0.02640324619841897, 0.025859597810703024, 0.025291227489688164, 0.024831024146428654, 0.02444727721695087, 0.02404807959235677, 0.023684323520897374, 0.023331905745685468, 0.023040341481058747, 0.02280084696602331, 0.022571320498616747, 0.02237456574646748, 0.022304188677949643, 0.02215930943480313, 0.022035022949269217, 0.021963356896891936, 0.021924482261349527, 0.02190949156599707, 0.02193407352362195, 0.02200369198686325, 0.022084119829829624, 0.0221931071855375, 0.02232974069399274, 0.022493146113518683, 0.02270995594670559, 0.022920942274362567, 0.023157809350580316, 0.023380329458355005, 0.023671022542151664, 0.024088549259184324, 0.024407041242250144, 0.024751260430253913, 0.025166896252509934, 0.025552496226823224, 0.025990007823044517, 0.026419495987957363, 0.026872049802817797, 0.027306909564731037, 0.027806138366780378, 0.02836521370094692, 0.028891466014313624, 0.029435125550404662, 0.02996759295818316, 0.030546238955264673, 0.031204317612461174, 0.03179926288130986, 0.03240930838643999, 0.03305682510133761, 0.03369065124472222, 0.03442396454586313, 0.03507203536737988, 0.03573592450401923, 0.036468916608844416, 0.03715267043630501, 0.03784687138191424, 0.03855818308834319, 0.03928044946851124, 0.039973090383409286, 0.04071835631274699, 0.04158648691333582, 0.042326449606232955, 0.04307686195432565, 0.04374986765908171, 0.044527710690493, 0.0454248115095857, 0.04619041352714407, 0.04696338459537208, 0.04776990977355086, 0.04855042175984106, 0.04930891067514536, 0.050102659584706936, 0.050898172125051135, 0.051694773549320804, 0.05249186280651078, 0.05330067821603002, 0.054095706040852926, 0.05489044385341949, 0.05569619101054201, 0.056487489066088414, 0.05726611209682711, 0.05805666812655583, 0.0588448543653821, 0.059732470032863694, 0.060502320200616994, 0.06125918716244226, 0.06203546780566616, 0.06281173538485117, 0.06358736461635875, 0.06436181484869369, 0.06515424509930692, 0.06592253327410974, 0.06668955278152153, 0.06743524749375769, 0.06820098264151661, 0.06897895342476339, 0.06973569616546468, 0.0704897266721325, 0.07133116697181008, 0.07206797102328728, 0.07272440650362416, 0.07347497855533522, 0.07422159802301802, 0.07505860410770705, 0.0757858736743003, 0.07646788361952521, 0.07720422530041617, 0.07793876103958808, 0.07870292138292555, 0.07943001971963591, 0.0801298292125651, 0.0808606686862739, 0.08159001548708292, 0.08237305881912817, 0.0830932329103317, 0.08379618476040213, 0.08452351705937616, 0.08525197508680145, 0.08596603735345273, 0.08669930538343365, 0.08753551373784184, 0.08825810140744382, 0.08898817525819433, 0.08962332948897511, 0.09038029694764024, 0.0912246073808627, 0.09197343320652204, 0.09272963609487497, 0.09354821112135064, 0.09431244678500714, 0.09508751106709082, 0.09587321641218698, 0.09666948569573683, 0.09741747215588441, 0.09824247000373389, 0.09902011101283194, 0.09986796984042452, 0.10072181516553524, 0.10163778198114941, 0.1025001731125412, 0.10336328276992664, 0.10425275609225773, 0.10515529483992826, 0.10607555784292257, 0.10700593504859723, 0.10789685904459462, 0.10886587126472609, 0.10984870527974976, 0.11085043947247761, 0.1118638299995649, 0.11298483870201483, 0.11402250044406666, 0.11508450654779163, 0.11608078031737402, 0.11720351878850206, 0.11842870119243039, 0.11958215630203137, 0.12076238606395856, 0.1219618773690304, 0.12319770278807804, 0.12436681157027664, 0.12567001631427527, 0.126996476409966, 0.12850057617425112, 0.1298580918159515, 0.13129045341077164, 0.13271409564072997, 0.13417541547174883, 0.13562707498706067, 0.13716909424403534, 0.13863979444108196, 0.1402649536498752, 0.14191974841387997, 0.14372328575668675, 0.1454264908484131, 0.14709131977029313, 0.14888488320999244, 0.15071461539174844, 0.1525579034153883, 0.15446571810689552, 0.1564189253046432, 0.15840185334999607, 0.1604247486261425, 0.1624295914678332, 0.16454237305118646, 0.16680021308380774, 0.16897899314693146, 0.17120513970145076, 0.1734788334468905, 0.17580028320084015, 0.17811870175873815, 0.18054283318046388, 0.18301261297147903, 0.18554835747823667, 0.18810899220819868, 0.190718337195753, 0.19337681300677886, 0.19598670956074568, 0.1987570531017052, 0.2015721897820837, 0.20451175765564697, 0.20740987862018972, 0.21030535564158848, 0.21331522304046807, 0.2163746923059212, 0.21954324964965324, 0.22269626331217843, 0.22589206410344587, 0.2291556459838863, 0.23247304843897884, 0.23592674917156084, 0.23934154395404125, 0.24276391525622273, 0.24630171954844057, 0.24989405792915503, 0.2534152488200967, 0.2571322548466495, 0.2609710357169581, 0.26477394086664036, 0.26862993377021827, 0.27254692677753783, 0.276508255675258, 0.2804015308831482, 0.2844853557660651, 0.2886157249248854, 0.29289549969436107, 0.2971083731583147, 0.30141480113841057, 0.3057309273601842, 0.3101027504718517, 0.31453738083217503, 0.3190174161237486, 0.32351220399727243, 0.32810446655876735, 0.3327470832904088, 0.33748284963101766, 0.34221956590010993, 0.34699608667982434, 0.35183665397602853, 0.3567265695675831, 0.36164162077934636, 0.3666312152590448, 0.37163151718975523, 0.37671715257475136, 0.38184583821263646, 0.38695844551847325, 0.39217983241036686, 0.39745569608899, 0.4027526857522989, 0.408089284197554, 0.4133788380359957, 0.4188045552506604, 0.42428741278222654, 0.4297774960597068, 0.4353026596972459, 0.4408979070349167, 0.4464877092448078, 0.452105474621486, 0.45776701329970243, 0.4634621203533211, 0.4692448423357105, 0.4749974015515627, 0.4807249231798724, 0.4865511302178344, 0.4924049685541726, 0.4983796832815141, 0.504273995322276, 0.5101590180125609, 0.5161163866023784, 0.5220979320454062, 0.5279609797746555, 0.534004587030896, 0.5401623423086928, 0.5462170326246323, 0.5522889587813823, 0.558353261003017, 0.5644586889296551, 0.570505419060938, 0.5766425149078801, 0.5827852485938559, 0.5889329690315406, 0.5950849264626292, 0.6013226988589196, 0.607470111890851, 0.6136236362699035, 0.6197344564249937, 0.6259010211091826, 0.6320777356932994, 0.6382382866358675, 0.6443952911390332, 0.6504884532204492, 0.6566415165830811, 0.6627245469934814, 0.668861741844987, 0.6749824334030499, 0.6810899081212677, 0.6871750699172245, 0.693163215740282, 0.6992202807968722, 0.7052523919754478, 0.7113179296560739, 0.7172910841067585, 0.7231857751646485, 0.7291175036994324, 0.7350199194608434, 0.7409313018165048, 0.7467671463384843, 0.7525217211907133, 0.7583020154906629, 0.7640461769845784, 0.7698041056489988, 0.775466131061895, 0.7810364121415476, 0.7866301008279637, 0.7921805511191669, 0.7976394534592632, 0.8031057003568605, 0.80853801144966, 0.8139020707387848, 0.8192154397055561, 0.8244808544849154, 0.8296887459141434, 0.8347757837476921, 0.8398825329207847, 0.8449287723488967, 0.8499921980697661, 0.8549050319040495, 0.8597238426919696, 0.8645221238959598, 0.8692565233205608, 0.8738708310839307, 0.8784806162806535, 0.8830431850861384, 0.887507644286726, 0.891900972084394, 0.8962652416541226, 0.9005075459955316, 0.9046464282108293, 0.9087471917886116, 0.9127712930558164, 0.9168118047787635, 0.9206673301505722, 0.9243147269478708, 0.928035908360992, 0.9316713561452445, 0.9351695052991364, 0.9386382651030842, 0.9420166891422687, 0.945304550642885, 0.9485015526297432, 0.9515955639127558, 0.9546112122302872, 0.9576322383714512, 0.9604496141093651, 0.9631789356333974, 0.9657483080351779, 0.9683067705581097, 0.9707304275355707, 0.9731022577220493, 0.9753753670325244, 0.9775770570380509, 0.9796487003941448, 0.9816696401810512, 0.983539245958799, 0.9853127354958031, 0.9868597546559996, 0.9884549235108923, 0.9900464052637373, 0.9914175954753326, 0.9926894665042053, 0.9937515496504614, 0.9948369867683314, 0.9959134590779011, 0.9967727763267812, 0.9975313484622373, 0.9981337708792674, 0.9986964729774768, 0.9991815962789865, 0.9995308590136751, 0.9997768796485562, 0.9999666622747477, 1.0, 0.9997794949241113, 0.9996302414737385, 0.9993709365106295, 0.9990418299045243, 0.9985603880867532, 0.9980248918792322, 0.9973273239058174, 0.9965284799566475, 0.9955852334385575, 0.9945894765918792, 0.9934667486652904, 0.99226765417807, 0.9909648799710291, 0.9895552289267027, 0.9880477582137314, 0.9863914319626175, 0.9846871211587521, 0.9830054394808821, 0.9810804274484558, 0.9790616499517378, 0.9768823912858942, 0.9746846217975664, 0.9724406494277816, 0.9700427896198623, 0.9675521952409276, 0.964918268714345, 0.9622499897974859, 0.959420856948488, 0.956573763172348, 0.9536308346693539, 0.950605412885411, 0.9474739707080411, 0.9442950612965819, 0.9409782062022469, 0.9375757547685806, 0.9340729394428926, 0.9305041011046308, 0.9268202652931982, 0.9230893362536275, 0.9192753372505806, 0.9154660270740669, 0.9114792053684202, 0.9073477193354991, 0.9032224694784675, 0.8990206773657169, 0.8947084238155442, 0.8903622178839848, 0.8860476539965422, 0.8815410897156746, 0.8769694876343342, 0.8722904510767342, 0.867596637009197, 0.8628850221364301, 0.8580568117465979, 0.8531690717686908, 0.8482581391567857, 0.8432499873659346, 0.8381325858272398, 0.8330236877794149, 0.8278593214749282, 0.8226017646695666, 0.8173360124455177, 0.8120172093209966, 0.8066472397769477, 0.8012279614027665, 0.7957572828415536, 0.7902453608231758, 0.7847442904541058, 0.7791390406597566, 0.7734963723838512, 0.7676724005997381, 0.7619772714035395, 0.7562916826041813, 0.7505097392339747, 0.7446942540488614, 0.7388157919971564, 0.7329430330394596, 0.7270485725380379, 0.7211178092737242, 0.7151620497945128, 0.7092302917881405, 0.7032242465486169, 0.6971621767808016, 0.691128937180331, 0.6850795302194009, 0.6789450533466748, 0.6728774365057761, 0.6668222974032197, 0.6607234462598202, 0.6546155062264087, 0.6485120814602524, 0.6423899167082299, 0.6363588627456572, 0.6302202301970908, 0.6240869822306262, 0.6178892727440318, 0.6117781899519752, 0.6056868277646913, 0.5995833653861488, 0.5934879092970902, 0.5873037414587804, 0.5812408933745584, 0.5752828446486862, 0.5692231343989972, 0.5631798624209686, 0.5571463686744231, 0.5511405443335079, 0.5451817885065644, 0.5392129615055814, 0.5332678260871646, 0.527249316113817, 0.5213671384804826, 0.515576996485176, 0.5097305615293762, 0.5039131754444136, 0.4980710466280819, 0.4923221595521033, 0.4866497757901592, 0.4809553249505397, 0.47529601126231164, 0.46960226400691, 0.46402536430820485, 0.45852599525861015, 0.45301396458341164, 0.44754184862164875, 0.44201263130668, 0.43663601886263737, 0.4314343864010584, 0.42611744406451096, 0.4208493061720619, 0.4155833339678724, 0.4104201605021393, 0.40526143506490403, 0.40019987048037853, 0.3951852970863973, 0.39021106515303694, 0.38529499266323575, 0.3804288566495192, 0.3756137158094104, 0.3708505612692549, 0.3661167731106365, 0.36146329244743547, 0.35681598959991023, 0.3522759587905497, 0.34778838205016505, 0.34347218334379004, 0.33907807372241366, 0.33473056084502967, 0.33046296005801806, 0.3262566718393126, 0.32213536165856504, 0.31804908125401915, 0.3139787104148488, 0.31002433576874233, 0.30613022818199376, 0.30228497480892674, 0.29851394047376484, 0.2947210813660671, 0.2910820118809218, 0.28749958611771176, 0.2840846322437486, 0.2806042950957974, 0.27712251298785223, 0.27378087887798513, 0.27050022902808285, 0.26728084598512036, 0.26412295411873266, 0.26098747699655583, 0.257957987661693, 0.25498814528437636, 0.25209398840990654, 0.24924239323441352, 0.24651882505928974, 0.24378139747857105, 0.24110894678763847, 0.2385086783161728, 0.23596328152733514, 0.2334539672240201, 0.23103850860309416, 0.22868379471575623, 0.22631879780949626, 0.2240933384976703, 0.22189206868612318, 0.21978189410589183, 0.21772574278489648, 0.21580626228617386, 0.2138483247679614, 0.21187093252377504, 0.21004027675488815, 0.20826281968396254, 0.20663266821063758, 0.20494936906523933, 0.2032966024044609, 0.20173173013625847, 0.20022124232588454, 0.19874866902219998, 0.19734661945118362, 0.19601930248497532, 0.19471599459018543, 0.1934638728668187, 0.19221888996992553, 0.19107197596443426, 0.1899751384535518, 0.18891951768287954, 0.18790919989716623, 0.18695533515928156, 0.18603223273611116, 0.1851963042721683, 0.18435494678639872, 0.1835583974469604, 0.18273091528251897, 0.18202992314007935, 0.18143284664707132, 0.18079732586794592, 0.18020172076730326, 0.17962921103107352, 0.17911208052604022, 0.1786503113591566, 0.1782012448996741, 0.17778715670781672, 0.1774069602402048, 0.17705958935266364, 0.1767047498959315, 0.176424864718186, 0.17619212865610417, 0.17596412544008525, 0.17576334398434315, 0.17551431706818132, 0.17537470566987357, 0.17529466940140845, 0.1751904445900747, 0.17510805655100561, 0.1750663584605678, 0.1750228305306475, 0.17490959950793059, 0.1749176231741344, 0.1749391726898884, 0.17508388387818474, 0.1751177453912889, 0.17509965045214068, 0.1751784523305436, 0.17526929602709207, 0.17545389737016837, 0.17555627324641784, 0.1755632453527174, 0.17570705211025447, 0.17585637358312498, 0.17610105029586617, 0.1762486571985623, 0.17635046809452615, 0.1765220258849797, 0.17669711581511768, 0.17687891506446154, 0.17705832286070558, 0.17716072671125713, 0.1773522390305043, 0.17753924265307156, 0.1777882946277035, 0.17795728654993165, 0.17808556991556682, 0.17825570481890884, 0.1784204023382008, 0.17863013692993335, 0.1787758501577757, 0.1789643866426324, 0.1790945920048662, 0.17922119121262237, 0.17928008241003682, 0.1794035689335401, 0.17955156851393966, 0.17964840239797208, 0.1797352749878917, 0.17982311624772201, 0.17988608776658696, 0.17994127494629367, 0.17997951255501848, 0.1800046690276471, 0.1800356074343827, 0.18002988583731838, 0.17985697707261228, 0.17984156307941282, 0.17980190610866184, 0.17985236720427208, 0.17975137065872282, 0.17960638559119127, 0.17947518272917706, 0.1793246676616597, 0.17921336246961025, 0.17901574749468233, 0.1787422423937176, 0.17851723942001213, 0.17827040279837034, 0.17800155150133862, 0.17771050622588425, 0.1774127892845767, 0.1770748471074046, 0.17671507798108313, 0.17639991505531236, 0.17598722380480653, 0.1755203426990625, 0.17507362862563414, 0.17460464801481113, 0.17411702722144254, 0.17360216241350368, 0.17307624760754958, 0.17251402911123606, 0.17192924990272496, 0.17132559437577533, 0.17069452119176728, 0.16993455184596923, 0.16927086528748675, 0.16857804246781014, 0.16786471092492306, 0.16711488581608844, 0.16645622997081874, 0.1656389020700793, 0.1648026157999565, 0.16380950757797993, 0.1629512524103737, 0.1621710395252541, 0.16124438104512429, 0.16029735607857243, 0.1592748756966693, 0.15829368289475207, 0.15730837915454424, 0.15627767632751402, 0.15522520498873657, 0.15409627613551818, 0.15300799188071199, 0.15196237127288206, 0.1508182693077911, 0.14965526816027497, 0.14848132557560073, 0.14727989185290408, 0.14609966746644507, 0.14485733593950914, 0.1435994816722153, 0.14230637252277945, 0.14101969660381464, 0.13970449930503823, 0.1383860578772938, 0.13705072368773383, 0.13568712314408252, 0.1343207095440687, 0.13290267025224237, 0.13150865534084794, 0.13009743705523727, 0.12869731506260984, 0.1272506647256093, 0.12581036026669318, 0.12433519020989392, 0.12284887944808918, 0.1212811500143997, 0.11978260831199396, 0.11835254081936539, 0.11681668920184264, 0.11527346015123029, 0.11374271082294678, 0.11218298790136101, 0.11053931470042598, 0.10897878574214492, 0.10740881359199766, 0.1058224586382851, 0.10423728294304202, 0.10261736805745215, 0.10102199944920312, 0.09941951981733009, 0.09787766555150003, 0.09625552423355106, 0.09464467699554738, 0.09302041328434413, 0.09139700687590142, 0.08982968088691172, 0.08820190967696845, 0.0865083654337703, 0.08489919105612867, 0.08329084964026459, 0.08163688649664876, 0.0800380801668509, 0.07845898595548373, 0.07685887283702923, 0.07526188806412615, 0.07360204711865678, 0.07202193045062176, 0.0705335889590625, 0.06894627410161233, 0.06736784086487688, 0.06579074506186441, 0.06423200077309141, 0.06271013739468899, 0.06116715323620119, 0.05963595708848093, 0.05812460219816159, 0.056616631868014654, 0.055133363108500755, 0.053649980913727566, 0.05218065826982572, 0.050702027237412364, 0.04926437345727218, 0.047804770424329, 0.04639878296240272, 0.04500509450813184, 0.04364798656452405, 0.0422780806050956, 0.04088855882403141, 0.039554963568153634, 0.038235949043477095, 0.03696361076883042, 0.03567183877616413, 0.0343434291215711, 0.033095538955599496, 0.03186350863294581, 0.03073050699675379, 0.029521970538175277, 0.028355620873054266, 0.027189652743793355, 0.026047229004127273, 0.024920331196221817, 0.023825527813577115, 0.022773078658214305, 0.02172127469242557, 0.020693363474029267, 0.019591133939776947, 0.018623163203196024, 0.0177558127786527, 0.01681461531943485, 0.015846725939153202, 0.014960615932372714, 0.014095949379206692, 0.013370888413728485, 0.012535454457796606, 0.011650737328292403, 0.010883015580283543, 0.010138922370962474, 0.009450016808193526, 0.008749686583721342, 0.008106597744723424, 0.0074538633057622365, 0.0068285085688500596, 0.006241968235162367, 0.005668911813979704, 0.00511123393341694, 0.004593655600243883, 0.004101979147303997, 0.0036713819599735, 0.0032266295693396795, 0.0028093820175119576, 0.002419258051301865, 0.0020559213323765014, 0.0018799843054064258, 0.0015490204815764533, 0.0012373834374548088, 0.000976954388039879, 0.0007478504254719705, 0.0005294189756406169, 0.00036248745884270937, 0.00030548270993838183, 0.0001826251043953266, 9.092316045667748e-05, 5.286918187047401e-05, 1.7470502675559594e-05, 0.0, 2.4610928441324035e-05, 7.661348793178792e-05, 0.00020645862868257463, 0.0003051647249265474, 0.0004797391347359363, 0.0006292630850587311, 0.0008087581949760064, 0.0009937159106296412, 0.0012333729813557616, 0.0014952321510895894, 0.0017871985279539133, 0.0021042514008896146, 0.0025088887336178556, 0.0028673276898026614, 0.0032732274257327196, 0.0036841626797501684, 0.004122726639526084, 0.004658867610576605, 0.005141757695024312, 0.005579833826841932, 0.006130621917763482, 0.006705030013061634, 0.007330330716963942, 0.007947930549908905, 0.008601935558170353, 0.009266948710070022, 0.009956572046718681, 0.010686121780859783, 0.011421873999712876, 0.01227235196443052, 0.013045206350145184, 0.013846819754584046, 0.014625119647622906, 0.015487665235624032, 0.016428242808063934, 0.017329697627906267, 0.018256720916712994, 0.019208616353666174, 0.020184767565734736, 0.02121210142410849, 0.022231716976655106, 0.023275674532221204, 0.024374771687653018, 0.025461715698882177, 0.02653784694599726, 0.02767761039350166, 0.028838651721264243, 0.030001117984173854, 0.031206534003222174, 0.032510007864721475, 0.0337446296436259, 0.03500321851292877, 0.036265515090678165, 0.03757268549147912, 0.038869633120509554, 0.040222844935101934, 0.04159494897928572, 0.043099798139393616, 0.04449540808617366, 0.04589285203906911, 0.04734131240384607, 0.04881216113364719, 0.05029705478574197, 0.05181225468397217, 0.05345014725581644, 0.054993494346672576, 0.05656274733441246, 0.05798814492565896, 0.05962767152790549, 0.061402671780507935, 0.06305514813623314, 0.06472961381112463, 0.06647275966121412, 0.06818409696140394, 0.06982483973503203, 0.07159466133896858, 0.0733816484883135, 0.07532347456458519, 0.07712833963687318, 0.07891970812634365, 0.08078018548024771, 0.08266263257146289, 0.08448825306440784, 0.08642371072628423, 0.08843878439287309, 0.09040043104845268, 0.0923833558722571, 0.09438746814643, 0.09641270894322285, 0.09854931416270442, 0.10060533354541781, 0.1026875306980458, 0.10470102813129967, 0.10684553838471038, 0.10900134456111676, 0.11118550039764784, 0.11338907059749702, 0.11562422394322412, 0.11786629695605218, 0.12007069598539735, 0.12236284152316883, 0.12467334965459011, 0.12700684475642854, 0.12935561670268506, 0.1317759036306004, 0.13415970727309603, 0.13656781097801943, 0.13903553623073178, 0.14148778965691294, 0.14392712526869347, 0.146436757500057, 0.1489700826862202, 0.15158613596849366, 0.1541599012802046, 0.1567611610307144, 0.15938960828341775, 0.1620449951144792, 0.16468788063589357, 0.1674015726556847, 0.17008853621446945, 0.17285751199160565, 0.1756484102466919, 0.17852467434374503, 0.181353370464764, 0.1842603190311391, 0.1871370212466715, 0.19004382456898838, 0.1929293308581995, 0.19590172054031024, 0.19886901236467475, 0.20189818407871138, 0.20495231821427098, 0.2081182170023715, 0.21121270631996278, 0.21422054565134957, 0.21739176910287783, 0.22058687257484128, 0.22385760334109941, 0.22709612657631884, 0.2303515938721939, 0.2336491634033358, 0.23697503033798503, 0.2403725750891974, 0.24375019180880714, 0.2471041675650818, 0.25055115774166437, 0.254026035864505, 0.2575369679818011, 0.2610675482165282, 0.26467048524803566, 0.26825414441301615, 0.2718697258027018, 0.2754502954561613, 0.27913753809744757, 0.28284454153255717, 0.28658838909495676, 0.29036014196769594, 0.294222955358128, 0.29804361375402016, 0.30182599779952984, 0.30572004526791857, 0.30964195962999547, 0.31363916791696056, 0.31761180353217766, 0.32156084531800455, 0.3256029367514311, 0.3296729150726226, 0.3337867370653938, 0.3379112271927009, 0.34208080676222397, 0.3462620821311648, 0.3505167518332326, 0.3547528298115186, 0.3590211761633199, 0.3632584517630029, 0.3675976751926933, 0.3719248657139199, 0.3763235330890557, 0.38074728241572536, 0.3852278055785865, 0.389698560468224, 0.3941968300384711, 0.3987224542140718, 0.40327524731590225, 0.40780790403238026, 0.41242033707981346, 0.41708799573716315, 0.42174421969514114, 0.4264261745202224, 0.43113358357474385, 0.43586614544945435, 0.4405803645672419, 0.44536769415254274, 0.45017671437387435, 0.455023083040968, 0.45987331570038653, 0.4647772142910521, 0.4696676774824452, 0.47458146428353376, 0.4794786765857817, 0.48444212065376546, 0.48940119180296904, 0.494405633384043, 0.49942723035087616, 0.5044893150132005, 0.5095415421481825, 0.5145447148128576, 0.5196401432055207, 0.5247483449443995, 0.5299045742274219, 0.5350335693038859, 0.5400983771669773, 0.5452653215292692, 0.5504409652373488, 0.5556841658397802, 0.5608696262175276, 0.5660589044934698, 0.5712679242994532, 0.5764866178347339, 0.5816946227359362, 0.5869329038778678, 0.5921107535127714, 0.597369398808213, 0.6026292577702489, 0.6079725660533645, 0.6132237900688954, 0.6184878750170583, 0.6237470210165762, 0.6290094118603312, 0.6342111017320152, 0.6394844825519657, 0.6447267037077311, 0.6499955804417784, 0.6552579710429065, 0.6605251698114649, 0.6657715914468568, 0.6709948491067336, 0.6762275616984853, 0.6814503625609837, 0.6866468416866859, 0.6918496218957226, 0.6970236385784542, 0.7022015596397476, 0.7073640567398595, 0.7124868994861902, 0.7176194221190975, 0.7227604619262568, 0.7278509569223037, 0.7329226879414859, 0.7379746710889262, 0.7430058998445588, 0.7479682525409442, 0.7529608314023701, 0.7579268853083038, 0.7629285163916416, 0.7678314483569288, 0.7726541943874404, 0.7775122416642432, 0.7823392886339902, 0.7870913015946216, 0.7918591834136068, 0.796657673412793, 0.8013442926216634, 0.80599726819172, 0.8105525405647082, 0.8151423868294595, 0.8196873896160701, 0.8241951786272796, 0.8286603488903673, 0.8330154071108167, 0.8374014102381828, 0.841809251151895, 0.8460883653150625, 0.850321853373928, 0.8545204001765794, 0.8586578784041634, 0.8626490048422603, 0.8667012319504107, 0.8706973631093188, 0.8746448819864756, 0.8785266495542123, 0.8824024472970711, 0.8861631368029983, 0.8898683574688144, 0.8934698682698462, 0.8970666854927017, 0.9006098530117279, 0.9040819638239336, 0.9074915552135463, 0.9107946244769419, 0.9140821282290331, 0.9173139366429852, 0.9204645035902923, 0.9235471972997314, 0.9264828369653476, 0.9294376224224644, 0.9324161215186998, 0.9352095907577024, 0.9379338640382057, 0.9405682607913625, 0.9431534834572937, 0.9456260877593874, 0.9480687253080567, 0.9504341940946888, 0.9527495043786044, 0.9549557517097318, 0.9571398633119014, 0.959184262719628, 0.9611532029259576, 0.9629238754373504, 0.9647539185522281, 0.9665455525788017, 0.9681986743537022, 0.9697689599497353, 0.9712716611802722, 0.9726729531070372, 0.9739124704551871, 0.9751565668734437, 0.9763118902726218, 0.977378566900792, 0.9783566704483324, 0.9793011746289216, 0.9800952346443805, 0.9808037867486202, 0.9813674561564963, 0.9819109546814286, 0.9823956278052801, 0.9827547846664259, 0.9830256025228642, 0.9832157078286848, 0.9833082041798045, 0.9833200362781235, 0.9832342834343825, 0.9830600270911618, 0.9828166558242283, 0.9824622451775517, 0.9819099506320899, 0.9813931623765373, 0.9807817014362736, 0.9801272946493689, 0.9793220977630662, 0.9784231156109827, 0.9774388350866384, 0.9763647708350274, 0.9752285984194621, 0.9739721163348112, 0.9726201948886857, 0.9711895527165025, 0.9696709806881068, 0.9680371863798486, 0.9663468023674522, 0.9645440413390085, 0.9626794779671157, 0.9607257725565077, 0.9586993267661408, 0.9565674473761803, 0.9543336783068102, 0.9520319462316322, 0.9496442435068223, 0.947226211195665, 0.9446617084686882, 0.9420595792097783, 0.939328284180106, 0.9365191980725106, 0.9335577871241878, 0.930602747224548, 0.9275661205628026, 0.9244488136239849, 0.9212517364952841, 0.9179718797712645, 0.9146185106319322, 0.9112467868866418, 0.9077324969255333, 0.9041226860579813, 0.9004679380956229, 0.8967409849795381, 0.8928563154048987, 0.8889983943385508, 0.8851131106367334, 0.8811019412654839, 0.8770221452342855, 0.8728316892873706, 0.8686235144939657, 0.8643555636494324, 0.8600126440635772, 0.8556054996844566, 0.8511708193897172, 0.8466348424497613, 0.8420681441292497, 0.8374133432268591, 0.8327039903736047, 0.8278977818763857, 0.8230874363102328, 0.8182464156589437, 0.8133260049216146, 0.8083554067305888, 0.8033279381960572, 0.7982614807174947, 0.7931008698223178, 0.7879475485602498, 0.7827471334318397, 0.7774973996033983, 0.7722083564735397, 0.7668181256781545, 0.7614535243531129, 0.7560465422753574, 0.7506541779232406, 0.7451615675384831, 0.739600264943663, 0.7340467728376466, 0.7284607118327867, 0.7228908498061363, 0.7172386775255315, 0.7115654171882323, 0.7058639212254205, 0.7001400510081547, 0.6943439959562754, 0.6885854795802346, 0.6828171951475831, 0.6770157892828095, 0.6711968349348565, 0.6653226107736413, 0.6594780806903628, 0.6536458012357187, 0.647769151956504, 0.6418823674395574, 0.6360300986357186, 0.6301220114368714, 0.6242184602317703, 0.6183038484794127, 0.6123885849959771, 0.6064109680677157, 0.6005056503668317, 0.5945485086368819, 0.5886497181016801, 0.5827505878021728, 0.5769277008984088, 0.5710244229147853, 0.5651033128505814, 0.5592239680667368, 0.553355088412496, 0.5475569583013457, 0.5417057888303843, 0.5357548296615964, 0.5299553228503358, 0.5241689526705355, 0.5184721842330129, 0.5127082629832093, 0.5069357009171095, 0.501222315923126, 0.49553203905652976, 0.4898858093301333, 0.4842431860249368, 0.478589386953207, 0.4730089405953299, 0.467456503469239, 0.4620080189764262, 0.45650625173980053, 0.45102496817840604, 0.44559819326049444, 0.4402080408398378, 0.4348121743971466, 0.4295032376724808, 0.42422710405909403, 0.41899331967816733, 0.41379840209727464, 0.40872199393207215, 0.40359829414012366, 0.39838775540800864, 0.3933745215773399, 0.388401234435339, 0.3835361586741774, 0.3786388635148232, 0.3737542716114885, 0.3689582120592461, 0.364209618497567, 0.3594819888739903, 0.3548346587497384, 0.350247781584606, 0.3456973616438895, 0.3411982904567851, 0.3368102435477321, 0.3324087942001729, 0.32804856754607903, 0.323763134175386, 0.31953413435299505, 0.3153344389078592, 0.3112228026212815, 0.30723378493862225, 0.3032260531743971, 0.29927900828772114, 0.2953611830979059, 0.2915393026161262, 0.2877605271597337, 0.2840584998163161, 0.2804149029787252, 0.2767947723903883, 0.27327354217888494, 0.2698646805125762, 0.26645189724219864, 0.2631006484884388, 0.2597952134377375, 0.25656894856421847, 0.25340718376571464, 0.2503016626753894, 0.24725709147750025, 0.24422638422520057, 0.24130967575734544, 0.23849441259354281, 0.23568912135415007, 0.2329451129580267, 0.23023868814653745, 0.22761975181073316, 0.22509559437944093, 0.22259109437888577, 0.22014796858152796, 0.21776976594450637, 0.21544776380586475, 0.21312735343107927, 0.21093329967627977, 0.2087955665125199, 0.20672205250544862, 0.20469605162161222, 0.2027777910647541, 0.20085858597523337, 0.19899853268752635, 0.19719301738395395, 0.19544970857297458, 0.19376329789048208, 0.19213315695729058, 0.19055865869969255, 0.18894106007087325, 0.187488367921515, 0.1861310171846584, 0.18476901318742028, 0.18345809646150746, 0.1821782179159461, 0.18097063892146378, 0.17981950015379278, 0.17870773076646562, 0.177644181321096, 0.17654196771618905, 0.17558411133661653, 0.1746757449298554, 0.1738002279673901, 0.17296677807418342, 0.17227327892821248, 0.1715107758336016, 0.17077135226109447, 0.17010382582381034, 0.16947912928372136, 0.1689237350082662, 0.16837822993745652, 0.16787411172412364, 0.16741017406378178, 0.16698524226953265, 0.16653537625444906, 0.16619298286571332, 0.16592980262718218, 0.1656451181836171, 0.16539400702773024, 0.16521860630368962, 0.16502609373817337, 0.1647919417919127, 0.16467336481764797, 0.164580884144846, 0.16448637538460012, 0.164447572209634, 0.16440772517182242, 0.1644163870602884, 0.1644451398298257, 0.164521027299012, 0.1645851377533686, 0.16466940715392453, 0.16477301100332234, 0.1648990305878195, 0.16503826090799847, 0.16519446974271865, 0.16539028846814877, 0.16557472253070535, 0.16573937117257095, 0.1659582259184689, 0.16618842141289397, 0.16644879018909153, 0.1666967992131113, 0.1669469863491616, 0.1672150561081477, 0.16749075127907667, 0.16768290491316817, 0.1679825651702455, 0.16836058591049652, 0.16864989499422403, 0.16894306707384515, 0.1692430738192516, 0.16954062900821673, 0.1698119731511105, 0.1701145774824325, 0.17041502431724972, 0.17071654590291613, 0.17101009373166512, 0.17133099477489075, 0.17161173712049113, 0.1718887018475062, 0.17212164483073186, 0.17239305757781254, 0.17267129762303035, 0.17292240009942544, 0.17316433731024658, 0.17341208295154187, 0.17363154184446927, 0.17386412486023295, 0.1740589445445541, 0.1742430616925973, 0.17444300154583434, 0.17459944930809237, 0.17469694792109686, 0.17483461709768836, 0.1749558067901121, 0.17508747473246775, 0.17517070020760023, 0.17523748077430168, 0.17528711816306655, 0.17531895439376774, 0.1753716156357128, 0.17536106307741256, 0.17526643864477917, 0.17522878100349404, 0.17516842648869937, 0.1750812853679896, 0.1749755301841921, 0.1748816627413484, 0.17472442291761633, 0.1745454236277401, 0.1742892752979494, 0.17407240239311694, 0.1738137501824552, 0.173546790594867, 0.17325302242403903, 0.17294831060514104, 0.17259940492290102, 0.17228776558377187, 0.171879815949302, 0.17144975925279457, 0.17102450630630484, 0.170545139705849, 0.1700201584527074, 0.16949902796683158, 0.16895337259589652, 0.16836722632334108, 0.1677737467369037, 0.16718950735861618, 0.16653937964583365, 0.16586513422613117, 0.16510371349415434, 0.1643884350919734, 0.16371552497942723, 0.16293515639132697, 0.16213124118275812, 0.16116620539195023, 0.1603319841947329, 0.1595092059913801, 0.15860711847330705, 0.15767772857951315, 0.15670193817597522, 0.15572196875964325, 0.15473863024033713, 0.15370245261660928, 0.15264184660261867, 0.15156500288324426, 0.15045556676713762, 0.1493427766337716, 0.1481851739131071, 0.14700624104538682, 0.14577078456598833, 0.14455407069620546, 0.1432988156276474, 0.1420388956470893, 0.14075623026568787, 0.13954561225848813, 0.13820733082745212, 0.13673559547350328, 0.13538055915927993, 0.1340028590335747, 0.1326779533882046, 0.13124811963139343, 0.12977878836442022, 0.12832019206144682, 0.12684468446001937, 0.12531737109142171, 0.12381379939169786, 0.12234759338613296, 0.12080266037319953, 0.11924469456841003, 0.11771712240811377, 0.11612843549479081, 0.11447506605843417, 0.11287385890450535, 0.11125991803884731, 0.10960243178685514, 0.1079687525023399, 0.10629094610306222, 0.10463662282627176, 0.10296947133110536, 0.10142004771259704, 0.09971394075132176, 0.0979228292700094, 0.09622182226069481, 0.09451340017058016, 0.09278647553336389, 0.09106676151997631, 0.08939202289574934, 0.08765452323727282, 0.08591533219280402, 0.08423362708543228, 0.08248456926136413, 0.08069105460893261, 0.07895315867292593, 0.07721520217539057, 0.07540308477002076, 0.07367585758034581, 0.07201648753705879, 0.0702758750039232, 0.0685386164634466, 0.06682084268323606, 0.06508962263401169, 0.06334043976179618, 0.06162372103876847, 0.05991200116626023, 0.05831183919093829, 0.05659849928516465, 0.05469379872825988, 0.05303143308116241, 0.05136989712615617, 0.049777470619978566, 0.048113717673884164, 0.04655697600982894, 0.044899293241234164, 0.043257353453142584, 0.04154073286257199, 0.039941293328126966, 0.038344422356248714, 0.03676757652402236, 0.03520220064645335, 0.03375108902225861, 0.032197972681064675, 0.03067596892565602, 0.029159861023512465, 0.027663461086423844, 0.026139529388626626, 0.02468813335594792, 0.02330458045954801, 0.02188079055599183, 0.020477507197813587, 0.01907902834928609, 0.01771877920970816, 0.016327259473920257, 0.015013205583475148, 0.013716543102077166, 0.01251644568156449, 0.011246643215573431, 0.009937763052458878, 0.0087232635140558, 0.007528860830869162, 0.006488507956967961, 0.005318945048182521