0.032552464577281705, 0.0322937605363989, 0.03204678515832237, 0.03179683759783265, 0.031586062838474184, 0.031339372988428364, 0.03109765471958915, 0.030844847611716818, 0.030612898508533513, 0.030367820171293722, 0.030141856034764325, 0.029916604765923206, 0.029729172212535647, 0.029500352915485716, 0.029208434778925686, 0.028992733347543986, 0.02877532339501187, 0.02861123930386097, 0.02838440367574505, 0.028177312773401398, 0.027952541155229958, 0.027730646746817397, 0.027467591864197748, 0.027256258096064592, 0.027070970473865714, 0.02685608999842032, 0.02664288517545827, 0.026422583390221747, 0.026213801882043756, 0.02597336349538199, 0.025771181426694652, 0.02556852046982181, 0.02536135975514306, 0.025159332085656322, 0.024926907309798838, 0.024729550072432466, 0.02457725700856574, 0.02437276674291492, 0.02417087050353835, 0.023962823635082914, 0.023767256262147308, 0.023613227077669816, 0.023417034335047174, 0.023225346869777824, 0.0230007030123989, 0.022822015965459387, 0.022677927815447148, 0.022498757985028626, 0.022323462328507206, 0.022180349576039753, 0.022008784007358013, 0.02180728974859516, 0.02165002792860647, 0.021495312962529288, 0.021323498283295692, 0.021176532077535424, 0.02102460790965361, 0.020881907057178847, 0.020740862376067048, 0.02056668483478646, 0.02043406160107195, 0.02032365723162705, 0.020189380383028054, 0.020057521031779872, 0.019952339861083464, 0.019822797815660015, 0.019717214904514703, 0.01959363510811917, 0.01947530221416757, 0.019394848774488514, 0.01928228163993854, 0.01908215759971845, 0.018994241425322623, 0.018906891915594665, 0.018888439808797664, 0.018795013293496008, 0.01867221342254117, 0.01859430787630278, 0.01851970331521152, 0.01840475396052559, 0.018342677236245674, 0.018332162669509988, 0.0182666114063948, 0.018205968804813347, 0.018143625709822895, 0.018093512863289286, 0.01801062706593362, 0.017974132941222472, 0.01794005978903315, 0.017906552842212275, 0.017878563882516556, 0.017869090667460535, 0.01784580145341642, 0.017827038016859358, 0.017830384374611367, 0.01781866717706069, 0.017766683725136408, 0.017772092047329383, 0.017780453438050934, 0.01786649415312487, 0.017872220734825944, 0.017866177787741078, 0.0178898642373917, 0.01791963811978415, 0.01795535693284017, 0.01799689833240798, 0.017989434099325033, 0.01804924331150656, 0.01811153796648769, 0.018211720447908072, 0.01827565170795889, 0.018331911975375325, 0.018408409214002504, 0.018489594654706402, 0.018597448667290087, 0.018685504361443995, 0.018718426651139198, 0.0188264316697776, 0.018936937660751385, 0.019153228768543896, 0.01925688775725929, 0.019295460651591847, 0.019426646535082658, 0.019561939210360958, 0.01971682406882158, 0.01985886012302351, 0.02001504605664848, 0.02016674555079612, 0.020324294929492497, 0.020456959902550063, 0.02062982528629304, 0.02084816768909917, 0.021023727215129538, 0.021205841004666548, 0.021330826454151165, 0.02153348731548027, 0.021773614641062675, 0.021977096509072126, 0.02218566451801728, 0.02239274056722503, 0.02261227238607393, 0.022818961481373818, 0.02305007254380207, 0.023284913434879914, 0.02352582045137143, 0.023768259741436776, 0.024001782877530044, 0.02425437527219986, 0.024510545139140784, 0.02479887824299939, 0.02505896553385306, 0.025324535621701453, 0.025595414712715096, 0.025871437421296502, 0.026134934346499, 0.026422992187702048, 0.026721324732174524, 0.027015969843615106, 0.027314682799734185, 0.02761738917593073, 0.027924010953772806, 0.02825197855833928, 0.02856397035630023, 0.028880608177211706, 0.02923011868576367, 0.029551776616656786, 0.029839631710625508, 0.03017705157754611, 0.03051706462024003, 0.030920936702216642, 0.03125830440472288, 0.031542506882178384, 0.031898682590987416, 0.032256457018261325, 0.03268154049019734, 0.03303431959638879, 0.03329833999506061, 0.033673226397266935, 0.034047196955347865, 0.03444028363075494, 0.03481087458713255, 0.0351628001221842, 0.035537985348341725, 0.035913146982373474, 0.03635410868918841, 0.036721349442466786, 0.03706415752475839, 0.037442574634923814, 0.037822519437715627, 0.03817318079575167, 0.038559562089726655, 0.03900436607765232, 0.03938200624534976, 0.03976243602672998, 0.04007954806221392, 0.04047258008326518, 0.040940117927465394, 0.041319434087290725, 0.041701275993927846, 0.04199539230107385, 0.042392165115294415, 0.04286384516271403, 0.04324320064367925, 0.04362369985901145, 0.04397210283479958, 0.04435785590879027, 0.04473740711028741, 0.04512000988898255, 0.045500421423348744, 0.04591800361930638, 0.04628892037751661, 0.04669034856922791, 0.047056733083323435, 0.04742395486356745, 0.04769293269270996, 0.04807260439665761, 0.04845695537829938, 0.048823074707534386, 0.049184209247728476, 0.04960619079752971, 0.04994950483269553, 0.05024374405795677, 0.05059084612157167, 0.05093343519852265, 0.05128901744795014, 0.05162033318787337, 0.05195680965084333, 0.052279636715393714, 0.052598982760720926, 0.05291240761661795, 0.05322432821535116, 0.05354068637276336, 0.053842666748320306, 0.05414043514938191, 0.05441185051393561, 0.05470322368616166, 0.05502565931729004, 0.055299994638449486, 0.05553516878069196, 0.05580530519901098, 0.056068664099667966, 0.056331797421335796, 0.056580714937951734, 0.05684941367959879, 0.057081939530305575, 0.05730925616833481, 0.05752010744619168, 0.057737480881059004, 0.05791971429799504, 0.0581271646366397, 0.058326034462269326, 0.05855581512962574, 0.05873279080140885, 0.05883355812811797, 0.059006781804614036, 0.059169365712880444, 0.059350088933354354, 0.05948871278680074, 0.05965632805707178, 0.0597737629469389, 0.05988497337835283, 0.05996771434403872, 0.060068208976078515, 0.06010555276213095, 0.0601960203469421, 0.06027480708372613, 0.06035102054762633, 0.060406341399558576, 0.06047983290087778, 0.06051112436328985, 0.06053397890074814, 0.060500097031330045, 0.0605117454685282, 0.06057313617232877, 0.06055420092166296, 0.06052764100133648, 0.06050628176779904, 0.06046191517723731, 0.060381362682861595, 0.06032480059372475, 0.060258278624015754, 0.06014673606622434, 0.0600646120978006, 0.05997045550177024, 0.059864515667122885, 0.05974700915074497, 0.05964439080506067, 0.05950096586350832, 0.05930634552033421, 0.059148875970028776, 0.05897928988671507, 0.058863514156416455, 0.058662132987026355, 0.05841140861998702, 0.0581994214641336, 0.057976672572350896, 0.057725707525544595, 0.05748381532668169, 0.05728724725110965, 0.05701516562062333, 0.05673503746544291, 0.05641590648364957, 0.05612266883678218, 0.055882332959370326, 0.055559962946119715, 0.05523067902201488, 0.05488089071691284, 0.054538134886841616, 0.05413839110803027, 0.05378388990427173, 0.05341754559460321, 0.053085608476006, 0.05269059339809005, 0.052247705287308106, 0.051840589704711955, 0.05142254544559538, 0.05101570080523799, 0.05057373449859227, 0.050151202560847256, 0.049687621525943, 0.049216682872048355, 0.04880168940386381, 0.048307517493428334, 0.04778067725114555, 0.04728109968756192, 0.04677464605568288, 0.0462895979545363, 0.04576531675596494, 0.04520034519669998, 0.0446688820713505, 0.04412929627692924, 0.04361016772831598, 0.04305112409085649, 0.04250129138005858, 0.0419280215109939, 0.04134940766819402, 0.04081349141096215, 0.040217800201925474, 0.039628010349876126, 0.0390251248383845, 0.03841920065334674, 0.037827454471440834, 0.03721242766233705, 0.0366056185765781, 0.035983517045732584, 0.03535889925500861, 0.03477316335395213, 0.03413774492812117, 0.03355648502047635, 0.03291266944151025, 0.03227075410907039, 0.031680466129046195, 0.031034254166478044, 0.030356250738977235, 0.029720245020238546, 0.02908427342682728, 0.028524809279016607, 0.02787887464371308, 0.02724364003483531, 0.026604588654056557, 0.025969062081013135, 0.025371721386254154, 0.024737837812156993, 0.024134938601617053, 0.0235068138818723, 0.022884283078647632, 0.022284500998970398, 0.021669985868482212, 0.021109458937678363, 0.02050032023331378, 0.0198994167632191, 0.019277887383069015, 0.018695960106970184, 0.018172343548161905, 0.01759547443738627, 0.017027683405898938, 0.016503824646491628, 0.01594934797043899, 0.015385977489628527, 0.014855404113122389, 0.01433422786694401, 0.013857614508551818, 0.013351288248780081, 0.012900693954408408, 0.012412747565462191, 0.01193930178031156, 0.011499849419435422, 0.011052389104327728, 0.010600495343982623, 0.010185956764049887, 0.009785459734582662, 0.009449568993490757, 0.009071493326591691, 0.008724211673742885, 0.008379734908830408, 0.008053614128099422, 0.007811503483393996, 0.007513823691999587, 0.0072164705675645605, 0.006965650090869315, 0.00673525247811667, 0.006516577532244658, 0.00632836966023757, 0.006230508439240454, 0.00607435533439612, 0.00594309430673337, 0.005819033047173206, 0.005739326113935452, 0.005659189896945573, 0.005630046442452228, 0.005623691430642585, 0.005690977354780731, 0.005725365885793488, 0.00577378992136616, 0.005864309752422785, 0.005981581365345499, 0.006099678502989099, 0.006274827481565977, 0.0064916826580926155, 0.006718287393883818, 0.006973378673242512, 0.007268385362502755, 0.007580523228643187, 0.00793417249443624, 0.008306466146246425, 0.008710764858466075, 0.009149596586477642, 0.009618663721035332, 0.010173462297134424, 0.010702647649539456, 0.011268726273728482, 0.011825699145554735, 0.012471344706674761, 0.013140442060771043, 0.013856765541082002, 0.014607868997322849, 0.015440300332225413, 0.016256874455970505, 0.017165033952935657, 0.0180532292814095, 0.018983780435516764, 0.0199499199114393, 0.020965487326357356, 0.021959180345564343, 0.023066040616574614, 0.024261447490152185, 0.025438995706552326, 0.026658846750588057, 0.027923382348774818, 0.029228165189902552, 0.030538809739196843, 0.03193468361448579, 0.03337203541835084, 0.0348601877821551, 0.03638106224366309, 0.03795647280708817, 0.03956356630856007, 0.04121569136669775, 0.042913151366433776, 0.044656246335741785, 0.04644089408603812, 0.04827669456879092, 0.050158755300135804, 0.05206987780912406, 0.054047601103769306, 0.0561021517684198, 0.058168782858603406, 0.060284123708085294, 0.062408888257647704, 0.06462698025274502, 0.06692476177207281, 0.06923285241329297, 0.07159048123889394, 0.073997747998289, 0.07645475078500219, 0.07896815194355823, 0.08152407936187014, 0.08413038635330762, 0.08675426814192314, 0.08946557517447648, 0.09225615368888089, 0.09506112948141093, 0.09791699823078749, 0.10079090125357211, 0.10375263339093256, 0.10681149545298588, 0.10986531734485433, 0.11297124379293384, 0.11611372655004883, 0.11932513842466642, 0.12262218561953823, 0.12593032959840336, 0.12929091683228636, 0.13269045357932194, 0.1361565345065224, 0.139618593192642, 0.14319281000394649, 0.14681428592959347, 0.15052267772409555, 0.15423440068080232, 0.15803559812565773, 0.16184226852495007, 0.16570078341905553, 0.16951428256015633, 0.1734870578423127, 0.17755069308616736, 0.1816077499652419, 0.18571282178537224, 0.18985256762406943, 0.1940546886942395, 0.19829246259334188, 0.2025890033213341, 0.206931177075181, 0.21132760691047076, 0.21575950214440806, 0.2202939215574861, 0.22480953044147642, 0.2293732957542209, 0.23390559950886805, 0.23857323050064694, 0.24336105375339995, 0.24810141200899488, 0.2528873498807827, 0.257612968378717, 0.26250089406327004, 0.2675070949563276, 0.27245944288902907, 0.2774537246884847, 0.28246733078978126, 0.28754609664735065, 0.2926546758678282, 0.2978111630678862, 0.3030046610923324, 0.30823467933283916, 0.31350070090504734, 0.3187781054371128, 0.3241175289486357, 0.3294899090583556, 0.3349101525057272, 0.34034521612035107, 0.3457952067530829, 0.3512966991344873, 0.3568283018718768, 0.3623500525796056, 0.36794513884700353, 0.37359917097260975, 0.37924198502346007, 0.3849119983467494, 0.39057563960810887, 0.39630196844238813, 0.40204480671743675, 0.4078175793116268, 0.4136119295942969, 0.4194491618709969, 0.4252820945058277, 0.4311665789647078, 0.4370365532954635, 0.44292734612525664, 0.4488246522756661, 0.4547552464902703, 0.4606586808287987, 0.46662703143735246, 0.47260750864569834, 0.47865416930849775, 0.48464993457572414, 0.49063031009218633, 0.4966545778986908, 0.5026878788381554, 0.508727063945667, 0.5147758164803679, 0.5207780307891117, 0.526844444937207, 0.532911947328076, 0.5389909086132434, 0.5450574191016512, 0.5511171622763155, 0.5571832708825046, 0.5632471129476891, 0.569305654619081, 0.5753626709532885, 0.5814212295203885, 0.5874664453589608, 0.5935051364060503, 0.5995297113521768, 0.6055530952640041, 0.6115730376588485, 0.6175745647255326, 0.6235644165919025, 0.6295546349386304, 0.6355161943901727, 0.6413737775613797, 0.6473170160892361, 0.6532385784387641, 0.6591248620654583, 0.6650032461769402, 0.670864145482607, 0.6766930165900285, 0.6824969756582566, 0.6882730689062548, 0.6940251373845153, 0.6997716256095657, 0.7054651104127678, 0.7111305666306633, 0.7167274762630713, 0.7223385031124835, 0.727896229604977, 0.7334417414690156, 0.738950896723173, 0.7444645659686112, 0.7498935425719854, 0.7552621215461873, 0.7606203247941935, 0.7659385090292555, 0.7712507336165455, 0.7764815477808417, 0.7816079040771007, 0.7867635156112702, 0.791872071726616, 0.7969700824674759, 0.8019776810456467, 0.8068636815522064, 0.8117852517416807, 0.8166533043720301, 0.8214586220266451, 0.8262193037631558, 0.8309112910693347, 0.835561967918567, 0.8401552121187629, 0.844679553564957, 0.849157693102326, 0.8535476181906463, 0.8579092799720843, 0.8622084273380675, 0.8664446556376003, 0.8706175037640399, 0.8747374068938861, 0.8787805407353724, 0.8827592626857824, 0.886631280427332, 0.8904843185566953, 0.8942334478352347, 0.8979527493721889, 0.9016003686094124, 0.9051870578284454, 0.9086892858236111, 0.9120956029587369, 0.9154567609674624, 0.9187175387520652, 0.9219334830907481, 0.9250731791841286, 0.9281211281329993, 0.9311096814014852, 0.9340379526122671, 0.9368685104115478, 0.9396218222660124, 0.9423303013730845, 0.9449236916257988, 0.947394407768584, 0.9498394829208667, 0.9522038726521641, 0.9545354503858027, 0.9567315150159377, 0.9588049281301404, 0.9608480827476418, 0.9628085525766816, 0.9646795122429802, 0.9664746667175758, 0.9681378363110954, 0.9697712247427862, 0.9713176844493202, 0.9727511390596151, 0.9741275932748773, 0.9754576871270271, 0.9766532759230879, 0.9777637869574562, 0.9788022219525934, 0.979740527184226, 0.9805875504190337, 0.981357044285557, 0.9820410575365106, 0.9825935154534222, 0.9831120796404077, 0.9835313789474844, 0.9838750110455889, 0.9841303330582759, 0.9842845797977506, 0.984366022053467, 0.9843703950658129, 0.984274836712692, 0.9840926761478187, 0.9838154359075395, 0.9834620086803326, 0.9830442024406172, 0.9825158149665315, 0.9819030720352921, 0.9811864356088179, 0.9804079835287799, 0.9795949739020585, 0.9786407404312635, 0.9776052163399164, 0.9764730769104517, 0.9752769615834013, 0.9739682168402665, 0.9726122954857102, 0.9711732785877236, 0.9696320655079043, 0.9680311491877972, 0.9663434578837964, 0.9645790668289216, 0.9627335507278967, 0.960787985152191, 0.958785026152515, 0.9567765559465612, 0.9546052221721231, 0.9523599201346323, 0.9499599249199147, 0.947577785324666, 0.945181584472133, 0.942637419626189, 0.9400214102372152, 0.9373559590776115, 0.9345950728298826, 0.9317345835126807, 0.9288401085912488, 0.9258759158626387, 0.9227858983884082, 0.9196919014696033, 0.916518706724167, 0.9132862470462808, 0.909985441372238, 0.9066438650044681, 0.9032069296502417, 0.8997113093287921, 0.8961486867314967, 0.8925252314955175, 0.8888222019899703, 0.885082456563838, 0.8812595933521686, 0.8774059541600598, 0.8734941936958008, 0.8695453261221104, 0.8655187417829142, 0.8614696389846147, 0.8573339265344747, 0.8531489190090492, 0.8489504694071864, 0.8446649655070603, 0.840284372126888, 0.8359163881244986, 0.8315021792440935, 0.8269794297056489, 0.822484290628544, 0.8179494269392886, 0.8133625531423226, 0.8087330520504047, 0.8040646217694982, 0.7993540739087875, 0.7946273147475452, 0.7898391740251961, 0.7850168861902586, 0.7801637883713319, 0.7752763742247638, 0.770364948251197, 0.7654166789861034, 0.7604404683907969, 0.7554286477391485, 0.7504009330192192, 0.7453327538083317, 0.7402578784135697, 0.735159371360485, 0.7300845077125041, 0.7249368300805793, 0.719695361421376, 0.7145239093961931, 0.7093328011161153, 0.7041454991642344, 0.6989169800589191, 0.6936833635798302, 0.6884272921351106, 0.6831603655521731, 0.6778706107824694, 0.6725871119403672, 0.667286733053718, 0.6619893450001639, 0.6566858277101242, 0.6513884138553578, 0.6460750934805719, 0.6407775620107246, 0.6354597139121243, 0.6301433811183538, 0.6247813806111652, 0.6194770985259359, 0.6142402454646665, 0.6089325643100622, 0.6036330522675242, 0.5983118359296221, 0.5930348811971174, 0.5877645839535854, 0.5825066911958886, 0.5772596940302924, 0.5720093543604111, 0.5667893247107801, 0.5615912958965918, 0.5563978127264334, 0.5512203632684929, 0.5460446599534913, 0.540904302574688, 0.5357843593133695, 0.5306812804667935, 0.5255987272007194, 0.5205596135110845, 0.5155183901739091, 0.5104143564823308, 0.5054344710548102, 0.5004759600040557, 0.4956103394968851, 0.49069003734939787, 0.48574226839350515, 0.4808887072552528, 0.4760627022108269, 0.47130476046879416, 0.46653214320316394, 0.46177273373918076, 0.45706904544445043, 0.4523983936600308, 0.4477221387814951, 0.44312479747956557, 0.4385429681453946, 0.4340148826573198, 0.4295207619867317, 0.4251557419404473, 0.42072060908099196, 0.41633411046790353, 0.41198233595042166, 0.4076731428811235, 0.4034175479951262, 0.399192385128202, 0.3949209875498248, 0.3907942730488304, 0.3867062184242101, 0.38268175966879275, 0.3786704865226629, 0.3746994140927723, 0.37077367602212663, 0.3668911333470283, 0.3630150127786839, 0.3592248536676193, 0.3555208110973399, 0.3518104452560834, 0.348146118664861, 0.34449298883189916, 0.3409257010590065, 0.33741394234173244, 0.33393486878235207, 0.33048867235927126, 0.32710353245122975, 0.32376413894978157, 0.32052113649407643, 0.3172677259793709, 0.3140461542787933, 0.31089344062695873, 0.3077886755956588, 0.30472962461772335, 0.3017208910874006, 0.2986810259545846, 0.29577754997074485, 0.29291721596074477, 0.2901596896954672, 0.2873797686806583, 0.2846061456434969, 0.2819271001861084, 0.2792932792208533, 0.27676612700105896, 0.2742154136501591, 0.27164581470288157, 0.2692011414823911, 0.26680068418130176, 0.2644445411723561, 0.26213275748470893, 0.2598784627403877, 0.25765367938650957, 0.2554738476660443, 0.2533212206010989, 0.2512327778710679, 0.24915469754505432, 0.2471566417859778, 0.24519958762816646, 0.24334924006647923, 0.24146593139866285, 0.23959658852506802, 0.23780571172743167, 0.23605641320652737, 0.23433955111488103, 0.2326733411253761, 0.23108203342944225, 0.2294907899561916, 0.2279406425094236, 0.22635866794320242, 0.22489779917564645, 0.22346538842341304, 0.2220753342191315, 0.2207197434454965, 0.21947290988166002, 0.21817638586139695, 0.21683476182335495, 0.21562402954457874, 0.2144449680880977, 0.21337403258384385, 0.21224809306740403, 0.21115310377715682, 0.2100974435356378, 0.2090750388696797, 0.208008445946325, 0.20705977189465305, 0.20621424448333667, 0.20530879889598228, 0.2044338252756342, 0.2035709328297589, 0.20275650815471696, 0.20199966287252447, 0.20123457025275046, 0.20049681292497565, 0.1997833016755419, 0.1990978247071649, 0.19839755618067445, 0.19776548948756556, 0.19715426187053245, 0.19653279631534942, 0.1959658055610401, 0.1954297111311432, 0.19489634150986931, 0.19438093838471165, 0.1939180881096683, 0.19343285448379047, 0.1929530381631352, 0.19250578394834686, 0.19207479526221202, 0.19161127221796975, 0.1912169775250077, 0.1908452695453044, 0.1904726268331432, 0.19011169914183337, 0.18981241134858876, 0.1894672599459056, 0.18904337853340406, 0.18873537307553936, 0.1884336664799444, 0.18813598297677586, 0.1878468276714791, 0.1876028078006746, 0.1873199016574865, 0.18704442037254362, 0.18677572382303192, 0.18651317605705525, 0.18628241372714274, 0.18602695568362795, 0.18577724657382202, 0.18553684231521872, 0.18529564568549187, 0.18500554295885754, 0.18477748552957884, 0.18454861905220968, 0.18438433647557986, 0.18414469773115644, 0.18380853691401589, 0.18358444956838524, 0.18335513517760715, 0.18318628637545625, 0.1829382316541999, 0.18265133652650728, 0.18240408080033685, 0.1821518370388359, 0.18187898656717114, 0.18161780432743363, 0.1813804983569748, 0.18110170151315158, 0.18081743168405315, 0.18050531348588117, 0.1802114241730236, 0.17990723536567652, 0.17959713965433194, 0.17927827993726636, 0.178963534510952, 0.17862471484129513, 0.17823112053598494, 0.17788012898335911, 0.17751702184729057, 0.17718560229660968, 0.17679276766203686, 0.1764602989061814, 0.17603883307795987, 0.17561081516434196, 0.17514685919409131, 0.17470663851609292, 0.17423166987521027, 0.17377270755926258, 0.17330087241372621, 0.17277659097221632, 0.1722834874294935, 0.1718010864876875, 0.17127371145276174, 0.17073257648164722, 0.17022794319864826, 0.16965267440131496, 0.16899399758623945, 0.16840504437292855, 0.1677999749958142, 0.16718994956741282, 0.16655188527859957, 0.16591859474041207, 0.16524824835594604, 0.16456420090489154, 0.1638291357151041, 0.16312209526473942, 0.1624537270880218, 0.16170790830069878, 0.16094957566080764, 0.16020038260103672, 0.15941358478217202, 0.15855361539739427, 0.15775050111920766, 0.15693150979432052, 0.15612100857751335, 0.1552680674871863, 0.15441455141746555, 0.15353258294564928, 0.1526377575485331, 0.1517256685428116, 0.15080562184269933, 0.1498658934630042, 0.14892052450609505, 0.14796184219890154, 0.14696373959519415, 0.1459822407763114, 0.14504993768953278, 0.14403223766086956, 0.14300458331691276, 0.14194493201486644, 0.14089972620472505, 0.1398123746945666, 0.13874819942840833, 0.13767113170149115, 0.1365859808604084, 0.13548385110603695, 0.13434623867631804, 0.13322469339752765, 0.13209108106017795, 0.13094155024967308, 0.12978590667226503, 0.1287026232196186, 0.12751530304406009, 0.12632276810259316, 0.12504379230616627, 0.1238504277166525, 0.12265553918365782, 0.12144109742254126, 0.12022020177120496, 0.11898865327446127, 0.11774947809930265, 0.11649870217444755, 0.11524602655458849, 0.1139954108994201, 0.1127286432287683, 0.11145647202779574, 0.11024925689222913, 0.10895836012604662, 0.10761877096563995, 0.10633264151053307, 0.10504284226920389, 0.10376496567069174, 0.10246670806156309, 0.10117085504054582, 0.09986826940659435, 0.09856432260904592, 0.09721979228504224, 0.09591866364506009, 0.0946386413662671, 0.0933290784472487, 0.09201897984497015, 0.09076119590671654, 0.0894443336740622, 0.08808268479797511, 0.0867785559188748, 0.0854749565519803, 0.08415258010737177, 0.08285370834747409, 0.08158826355466828, 0.08028696425849098, 0.07898915360112288, 0.07769943773874105, 0.07640874761336656, 0.07506778704522951, 0.07379314735737476, 0.07252034999172953, 0.07126978108171027, 0.07000018770225155, 0.06875954250867383, 0.06749704389902106, 0.06624155045591189, 0.06494070326011081, 0.0637064011483523, 0.062454823868306496, 0.061233142925333946, 0.06001605083461039, 0.05886992823631385, 0.0576557860530598, 0.05645187820113826, 0.055258223904203534, 0.05407486286578175, 0.05284712903964716, 0.051691463611131167, 0.050584830755935, 0.04943933212804119, 0.048304647708435094, 0.04720497915985636, 0.046089253418213405, 0.04495762132655494, 0.043870536981670705, 0.042794319065757216, 0.04174451308423103, 0.04068875180410634, 0.039612529315336736, 0.03858574419054183, 0.0375696544495994, 0.03657775132505378, 0.03558243711693479, 0.0345623362474995, 0.033596754731077386, 0.03264185452741939, 0.0317440622651128, 0.030806042930729576, 0.02987377290608834, 0.028965835980839544, 0.028071854340450692, 0.02721158545700107, 0.026343193915093897, 0.025474710403432996, 0.0246386146841599, 0.023816702017930593, 0.023013404790690514, 0.022219466757568196, 0.02139633712237157, 0.02063712324320329, 0.019890068779835374, 0.019223399274632937, 0.018493143836713747, 0.017736053593319732, 0.01704492483310334, 0.016367722801646924, 0.015702377453413092, 0.01505364554407511, 0.014390568226210881, 0.01377374521430324, 0.013169597508874262, 0.012655024680727423, 0.012067356295447886, 0.011462373911954782, 0.010914106187698587, 0.010380733755360711, 0.009892820933509848, 0.009385121501427144, 0.00884782667299515, 0.008378357286263804, 0.00792205524440978, 0.0075118525356508755, 0.007078003791045362, 0.006626557072741761, 0.006227103011190589, 0.005840597863802153, 0.005486803673574153, 0.0051238678833561225, 0.004744461614554724, 0.004413592724087133, 0.0040948656367149, 0.0037489712922258184, 0.003459756418797048, 0.003215685051672009, 0.002942608836092506, 0.002682209309187213, 0.0024628693951188074, 0.0022239885469331412, 0.0019794133646534456, 0.0017706898414907436, 0.0015741910162236615, 0.0014072718927253692, 0.0012325319949839238, 0.0010661332353040722, 0.0009170702089514724, 0.0007798636393568957, 0.0006652027615770124, 0.0005495644396640775, 0.00045440289731734864, 0.0003607715928728729, 0.0002787120525365422, 0.00016626428451714938, 0.00011151811689082732, 7.15266589930518e-05, 3.234555760919972e-05, 1.7332028609647805e-06, 4.5273733549909236e-05, 2.32263160877974e-05, 0.0, 2.867897236244833e-06, 1.5697498277803664e-05, 1.3963375657353713e-05, 4.845084335485586e-05, 0.00010561956217080008, 0.0001527161211375488, 0.00020768788314393718, 0.0003205831178201011, 0.0003840596523769797, 0.00046176019719407717, 0.0005437090573011861, 0.0006344768320464708, 0.0007619321456583754, 0.0008650291108080998, 0.0009813096489939286, 0.0011007908365780934, 0.00122804278137868, 0.001377805659596584, 0.0015169719544046003, 0.0016982120938615517, 0.0018465013047820349, 0.002002763513973437, 0.0022275654630178267, 0.0023899320275508843, 0.0025924167272210743, 0.002768853806603733, 0.0029546018224458808, 0.0031552063330461, 0.0033558078164970307, 0.003626869165782909, 0.0038326700137701984, 0.004047641154566891, 0.004253208923816089, 0.004485688540983625, 0.004749841513106533, 0.004989266249562524, 0.0052345617710614755, 0.0055070147152118075, 0.005759564932013892, 0.00606582144054388, 0.0063228416618567465, 0.006587118465869094, 0.0069191741139227264, 0.00718802244334347, 0.007472156604458513, 0.007756655980082504, 0.008048470419938137, 0.008349045652826452, 0.00865310184472597, 0.009010864466261634, 0.009319485680009055, 0.009635553798204643, 0.009969340749613838, 0.010297013783822497, 0.01065732478951866, 0.010993960402342238, 0.011363883757345655, 0.011710739711297748, 0.012065188484061224, 0.012446402177323016, 0.012812061605634693, 0.013202638626133543, 0.013580480085939019, 0.013965968826889101, 0.01440249718707832, 0.014796672465640098, 0.015173777380390796, 0.015589163632439638, 0.016011367810524035, 0.016470938340383733, 0.016902668348072823, 0.01739534054468185, 0.017837046693910556, 0.01828978478219685, 0.018728986341436965, 0.019205468373191516, 0.0196970327892538, 0.02018970188456672, 0.02069127778238962, 0.021223677633133018, 0.021740427162373562, 0.022326626229339175, 0.02285656946543959, 0.02340017190358032, 0.023961406433986258, 0.024530658695113543, 0.025147913752691854, 0.02573852607680777, 0.026343818074940066, 0.026915323794101984, 0.02755523220288683, 0.02821522087970189, 0.028877003681862048, 0.029551286236206436, 0.03022523150802068, 0.03092708620973304, 0.0316920024169951, 0.032413381592965855, 0.03315122094876355, 0.0339011979208163, 0.03467272678160672, 0.03546077941809384, 0.036265579285109685, 0.03708738027624124, 0.03798118725929137, 0.03883093790281757, 0.039642570472607684, 0.04054166582555719, 0.04145830737547399, 0.042414897815315884, 0.04336540090692352, 0.04433621015109056, 0.04532765423339487, 0.04634008030833817, 0.047411064109529284, 0.04846185371890797, 0.049519333447788125, 0.05062084276508228, 0.051745821524242716, 0.05289678937890229, 0.054069441850623914, 0.055231711372043295, 0.056458437226016164, 0.05770858135072321, 0.059052863934181694, 0.0603429847756135, 0.061609870920036766, 0.06296527906860544, 0.0643471785326536, 0.06577802165246037, 0.06721181240393512, 0.0687143773630569, 0.07020228519399563, 0.07172249499315983, 0.07327287602944878, 0.07485818914644046, 0.07640594777838831, 0.078065305720037, 0.07975366327671032, 0.08149592355944933, 0.08324166307983484, 0.08505073675051034, 0.08685848109180924, 0.08870162582110504, 0.09057602443257706, 0.0924912367247774, 0.0943876282781475, 0.09638188186241654, 0.09840960579736313, 0.10053066994198773, 0.1026201152200021, 0.10475507093647571, 0.10692172613595802, 0.10912801913503947, 0.1113718976034991, 0.11365817373054812, 0.11594065508857461, 0.11831264330276321, 0.12072258500635086, 0.12319732575716774, 0.12568154984643964, 0.12822214836497672, 0.1307868001528354, 0.133393882424527, 0.13604790206499567, 0.13873968827029248, 0.14145267465110206, 0.14423352445149823, 0.14705647638899402, 0.1498999471737752, 0.15281077205385063, 0.1557677139991227, 0.15876189304623642, 0.16179887687031655, 0.16492933048043165, 0.16804648533006575, 0.171210139783863, 0.1744201238179128, 0.1776762924362528, 0.18092817582729478, 0.18428272573827068, 0.18765842379944347, 0.19110214134719233, 0.19458827555779795, 0.19819167085873138, 0.20175442926054726, 0.2053210901054036, 0.2089844054577385, 0.2126922894182049, 0.21640540126388616, 0.22020756150213533, 0.22410910142071683, 0.22798930590692987, 0.23191572342205294, 0.23590559714714468, 0.23992142543847766, 0.24397489949485685, 0.24808423674540545, 0.2522386985313666, 0.2564226619655351, 0.2606684118646904, 0.2649225071793802, 0.2692592468907843, 0.2736370194948255, 0.27811718486443304, 0.28256942794163975, 0.28705525082511824, 0.2915973551131295, 0.29618224418183997, 0.3007459871430397, 0.3054231194935635, 0.31017971143269185, 0.31492738024594324, 0.31971529795559284, 0.3245452460964739, 0.3294121462958098, 0.3343050135178806, 0.3392513023469898, 0.344234993998122, 0.34924474792901816, 0.3543034146249758, 0.35940854706463365, 0.3645364859439488, 0.3696997534765508, 0.3748999972431536, 0.3801320012047445, 0.38536056087021775, 0.3906641886513531, 0.3959982453288539, 0.4013820812346233, 0.40677340116259936, 0.41217534973011255, 0.41762916351914453, 0.423110867357378, 0.4285980306115872, 0.43413661903754747, 0.43975923058589855, 0.4453397121068987, 0.4509474247819432, 0.4565068892534216, 0.46217532348735885, 0.4679315437479254, 0.4736308325616036, 0.47935294717266613, 0.4850136123704814, 0.4907886233112987, 0.49663107633237336, 0.5024288630083061, 0.5082436370327879, 0.5140197105732086, 0.5198724757957848, 0.5257734450982245, 0.5316429330255036, 0.5375243253732425, 0.5433597316340552, 0.5492691798141891, 0.5552106256376046, 0.561127647520936, 0.5670506733709755, 0.572952526398286, 0.5788881224811552, 0.5848341860623004, 0.5907713155355926, 0.5966805765944823, 0.6026215331281265, 0.6085595552392373, 0.6145201325326423, 0.6204465773001815, 0.6263843956234146, 0.6322998711125845, 0.6382099780941257, 0.6440806028674989, 0.6499802926825866, 0.6558207948123794, 0.6617035149748933, 0.6675704799575904, 0.6734275948879732, 0.679260164501204, 0.6850861059218284, 0.6908812440582387, 0.6966575773233631, 0.7023855789716479, 0.7081246672191799, 0.7138357006438344, 0.7195270887563056, 0.7251927122256734, 0.7308360047980402, 0.736446676113329, 0.7420070006275625, 0.7475624491024115, 0.7530860402084413, 0.758592160731018, 0.7640472568011599, 0.769391833305892, 0.7747876532697051, 0.7801429585447034, 0.7854681466466176, 0.7907393174265728, 0.7959555830377953, 0.8011440248689531, 0.80628822161638, 0.8113676512035896, 0.8164233395952986, 0.821455163559584, 0.8264111426853467, 0.8313189254965511, 0.8361643187416089, 0.8409741810156954, 0.8456771804990098, 0.8503887094450053, 0.8550430640519414, 0.8596374947869506, 0.8641760335412493, 0.8686794936659296, 0.8730959684466965, 0.8774531857302467, 0.8817195253613462, 0.8859591734571195, 0.890084562671282, 0.8942020167398282, 0.8982512372210211, 0.902301892358376, 0.9062045866250967, 0.9099737931345914, 0.9137526910956519, 0.9174599466445567, 0.9210775335398649, 0.9246421352235059, 0.9281477789715018, 0.9315614091762612, 0.934900634433193, 0.9381013083502728, 0.9412977395134062, 0.94444700971479, 0.9474791219719045, 0.9504326652979351, 0.953278625974918, 0.9560769449917021, 0.9588152823482047, 0.9614467376206906, 0.9639968141226177, 0.9664868203583206, 0.9688696330594131, 0.9711027112570556, 0.9733296151816538, 0.9754693979244136, 0.9774737802825505, 0.9794450088745635, 0.9813609739471435, 0.9831473809152144, 0.9848457624292256, 0.9864121177662633, 0.9879393070758351, 0.98943660871204, 0.9907737990140163, 0.9920234223742591, 0.9931237239231465, 0.9942046030207825, 0.9952063139322105, 0.9961010543098258, 0.9969044529033112, 0.9976252348346922, 0.998244746736292, 0.9987776859639445, 0.9992146409955496, 0.9995607016136153, 0.9998048170415669, 0.9999701772304006, 1.0, 0.9999874309487217, 0.9998807642097172, 0.9996935663281625, 0.9993983150562626, 0.9990065483607018, 0.9985278380713705, 0.9979572707131465, 0.9972688816245249, 0.9965188319863649, 0.9956916913741027, 0.9947554050720421, 0.9937286043705262, 0.9926247988525551, 0.9914164433154928, 0.9901107055454442, 0.9887265021104503, 0.9872538025577118, 0.9856908383880737, 0.9840427024035092, 0.9822700503309388, 0.9804525052079516, 0.9785465722468827, 0.9765837252899204, 0.9744996090782285, 0.9722918587359262, 0.9700447983546663, 0.9677123969545129, 0.9652955581967136, 0.9627951700618227, 0.9602361872167956, 0.9575682758341082, 0.954820772657774, 0.9519921551481759, 0.9490877684386607, 0.9461495176084282, 0.9430850649734591, 0.9399469596920013, 0.9366677913575824, 0.9333923674939184, 0.930084794289938, 0.9266531526532491, 0.9231503736285916, 0.9195553632639996, 0.9159154983399024, 0.9122232672088779, 0.908442501544327, 0.9045949864767242, 0.9006794768307501, 0.8967015970426957, 0.8926356743725028, 0.8885339456958703, 0.8843689919971015, 0.880139892163055, 0.8758525628390534, 0.8714750275080883, 0.8670737236255658, 0.8626136787344003, 0.8580832698690863, 0.8535119033345075, 0.8489599219880747, 0.8442705970237686, 0.8395334360131458, 0.8347230391670364, 0.8298961783384805, 0.8250205614518802, 0.8201020547095031, 0.8151392922008414, 0.8101400917059454, 0.8050917480273053, 0.7999573251501667, 0.7948357922033821, 0.7896740230781676, 0.784447365734585, 0.7792132570048529, 0.7740166079669576, 0.7687008918475378, 0.7633558015614181, 0.7579232724209286, 0.7525300509571169, 0.7471839592095104, 0.7417236854503374, 0.7362413978755097, 0.7306395146597159, 0.7251284661786954, 0.7196256138618983, 0.7140629808541101, 0.7084811756749572, 0.7028772786171772, 0.6972620374178707, 0.6915944826123238, 0.6859551819446102, 0.6803015474448141, 0.6746462219471779, 0.668967575436403, 0.6633195457115147, 0.6576198088321088, 0.6518988774583552, 0.6461950745319054, 0.6404887906029204, 0.6347856553539899, 0.6290776038710137, 0.6233732394773679, 0.6176691022809689, 0.6119689727254303, 0.6062280533828722, 0.6005452613299652, 0.5949221264108162, 0.5892438134109881, 0.5835765186324287, 0.577857758059056, 0.5722235248997036, 0.566678569736603, 0.5610568581660008, 0.5554530553213523, 0.5497650695907801, 0.5442124893357837, 0.5386766830998845, 0.5331546861273516, 0.5276506911907756, 0.5221574499666828, 0.5166950178840986, 0.5112719235799393, 0.5058523107170063, 0.5004582043262803, 0.4950863424218342, 0.48974711251046177, 0.48445170292307266, 0.4791685756289036, 0.4739168598256817, 0.46873024259446144, 0.46353974032224415, 0.45838938051135003, 0.4532703954164914, 0.4481885212702312, 0.4430436039771152, 0.4380503124474755, 0.43312297213167905, 0.42819314659065827, 0.4233009541920841, 0.4184626566987221, 0.4136465629664188, 0.4088628843339227, 0.4041309216838885, 0.399440978667925, 0.39481346077287627, 0.39020714913430027, 0.38560220480568896, 0.3810921771602955, 0.37662574200742527, 0.3722277677656368, 0.36784778897759784, 0.36352372157956736, 0.35923739198151944, 0.3549995794418977, 0.3507734062749138, 0.3466383256829858, 0.34254626574561076, 0.33850713420700634, 0.3345163020946682, 0.33060714008092124, 0.32671031560081254, 0.3228738553293321, 0.31907927618266385, 0.3153370607548429, 0.31157502293859524, 0.3079468162745916, 0.3043933319358635, 0.30085933702759904, 0.29737644048608325, 0.2939317719177392, 0.29055348267444736, 0.28720871499033185, 0.2839349614237572, 0.28071172141473943, 0.2775699452194805, 0.2744447135136784, 0.2713396239119234, 0.2683243919384761, 0.2653600679320055, 0.2624336449546931, 0.25957312940175203, 0.25675207816645396, 0.2539938613291523, 0.25128558039669646, 0.2486273193429467, 0.24601910644911157, 0.24350907587962792, 0.24099475451931296, 0.23853297763577988, 0.23612539389981618, 0.23376681962598517, 0.23145932385873566, 0.22920237725300358, 0.22699545885144046, 0.2247811413415505, 0.22267993707118208, 0.22069408385730643, 0.21867458552897825, 0.21670417463887381, 0.21474930085137617, 0.2128790912601893, 0.21110001200136946, 0.20931392227107615, 0.20757477158775475, 0.20584017243608543, 0.2041977958466827, 0.2026239840326142, 0.20106249488888758, 0.19954398313028723, 0.19800870639346863, 0.1965817067798549, 0.1952493759563455, 0.1938905407299607, 0.19257229600006698, 0.19126546789415158, 0.19002985905711084, 0.18880922774045195, 0.1876496549775217, 0.18652476573836804, 0.18542984692793846, 0.18437383065333687, 0.18338614744960832, 0.18239190691180515, 0.1814320746531583, 0.18042708214582975, 0.17954373699284823, 0.17868371577297304, 0.1778562080149091, 0.17705584128607812, 0.17627144246677598, 0.17552599073446853, 0.1748477799465765, 0.17414805247677645, 0.17347561432995035, 0.1727946788970257, 0.1721789529551491, 0.17166067216810868, 0.17108108464947658, 0.170527673253253, 0.1699357995422499, 0.1694393370978412, 0.1690081158814329, 0.168543867664181, 0.16810040585820032, 0.16765052338732134, 0.16724916233649925, 0.1668840701120123, 0.1665126976411698, 0.16615767994321798, 0.16575252365789864, 0.16543606134071775, 0.16520426816804934, 0.16489863553050418, 0.16460687466066554, 0.16427112887745554, 0.1640115103933229, 0.16381675143057156, 0.16356543951586894, 0.16332445796254616, 0.16305131421988237, 0.16283357980047614, 0.16260153597456975, 0.16239660402155132, 0.16219500235451856, 0.16204673968449415, 0.16184439209719312, 0.161585814714434, 0.16140052118934894, 0.1612152455719784, 0.1610866373202118, 0.1608933781069021, 0.16064553266151818, 0.16046331527898702, 0.16027865099781252, 0.1601569273865793, 0.15995819744034429, 0.1597269560326989, 0.1595321495628645, 0.15933412599586394, 0.15914988443149264, 0.15894168580036833, 0.15872755935567043, 0.1585115400550476, 0.15829044862472771, 0.1580681173597343, 0.15783471514258113, 0.15754238500839646, 0.1573023266400534, 0.15705192632539386, 0.15684586593440478, 0.1565677063145467, 0.15624704056030908, 0.155957783681424, 0.15565799426052143, 0.15538467545096474, 0.1550584851608729, 0.15467943574434198, 0.15434010718318086, 0.15403422044836962, 0.1536639389899977, 0.15328352454523306, 0.15287061177905226, 0.15247131166825678, 0.1520155605280605, 0.15159626380937424, 0.1511614721804162, 0.1507091810882939, 0.15024419636148728, 0.14977061846393855, 0.1492745980517237, 0.148763991956679, 0.14832637701297657, 0.1477755744068446, 0.14714727045266207, 0.14658505233614794, 0.14600804997422548, 0.14544471797249778, 0.14483454672098098, 0.1441871144172281, 0.1435534038867048, 0.14290475583509377, 0.14225215517534678, 0.1415723741603759, 0.14088278532255374, 0.14017404957799795, 0.13945133217638855, 0.13873430380339638, 0.1379810632119735, 0.1371689500792972, 0.13639558376493252, 0.1356065124658226, 0.13479329246951896, 0.1339748405742436, 0.13312357679482237, 0.13227708472625693, 0.1314149845866749, 0.13056180962643557, 0.12966678293394499, 0.12879380056459436, 0.12786856970198066, 0.12693269417356098, 0.1259423048982249, 0.12499044592986747, 0.12402533327454833, 0.12304734055037594, 0.1220568293261274, 0.12106290677112941, 0.12004729688970725, 0.1190185006666455, 0.11798143230554982, 0.11693376693035883, 0.11587579024077307, 0.11480779034422746, 0.11375851464365029, 0.11266774635263457, 0.11156943455093542, 0.11049648634297828, 0.10937918661563693, 0.10824774317790864, 0.10712067335448436, 0.10598757935553038, 0.10477192692609923, 0.10363674798663992, 0.10248502825711894, 0.10133153146247, 0.10016924312683609, 0.0990251909058013, 0.09784423248079194, 0.09663402428821725, 0.09544619109460177, 0.09425267396361112, 0.09307596443644665, 0.09187008745765216, 0.09067022934242164, 0.08945811591054731, 0.08824444616024428, 0.08702073889224364, 0.08580589664211141, 0.08460518003799916, 0.08338637657541106, 0.08216797486708843, 0.08092614024471403, 0.0797123319405312, 0.07852461327982266, 0.07730760285369918, 0.07609282432313326, 0.07489145933737591, 0.07368048583409824, 0.0724446544702799, 0.0712446638126296, 0.07004707091072149, 0.06891362245699763, 0.06771443127449535, 0.0665158435972988, 0.0653317536801394, 0.06415437754362345, 0.06299692965960489, 0.0618315973456379, 0.06062590106399654, 0.059482311420087974, 0.0583439839473573, 0.05724208757969725, 0.056111960530354936, 0.0549793831765392, 0.0538678500497927, 0.05276465309156436, 0.05164604801296259, 0.05056356914622332, 0.04954598577544289, 0.048472797557952925, 0.04741180166460301, 0.046336741982876344, 0.045303519114855716, 0.04424830905047605, 0.04324124158508286, 0.04224379312049005, 0.04126528334264296, 0.04028761907095591, 0.03931507775171842, 0.038362010111267705, 0.03742101520189069, 0.03651875758323169, 0.0355997523245373, 0.034675709011792163, 0.03378863370075511, 0.03291534848634519, 0.03204737931731863, 0.03120361016854714, 0.030395825983066813, 0.02957778524059203, 0.028775656425985344, 0.02803549362098957, 0.02725963690965235, 0.026463135322084712, 0.025729494997268232, 0.02501188956194175, 0.024312633660307403, 0.023627195355738838, 0.02296266048557053, 0.022309817604996895, 0.021673939764056026, 0.021011305811125192, 0.020415068556387625, 0.01983132675074, 0.019265145342967208, 0.018714300788861202, 0.018157244390574014, 0.017640823217444587, 0.017226972843443822, 0.01672991064127227, 0.016253531368141023, 0.015714254253698982, 0.015288600130230326, 0.014853805792985697, 0.01446145650334605, 0.014083408758584041, 0.013766106682232252, 0.01341220971176647, 0.013037022450057835, 0.012724249189459979, 0.01242721014229555, 0.012176776882433722, 0.011907965900709487, 0.011676860044370971, 0.011441426910712158, 0.011224821352758391, 0.011017984960846095, 0.010839251741794356, 0.010653920058564501, 0.010513007210413955, 0.010387858448561616, 0.010374804436149035, 0.010269034452467008, 0.010081540824723375, 0.010030278062573826, 0.009992847153871755, 0.010004433955811553, 0.009990687740048302, 0.009984359063422148, 0.010003842336580157, 0.010038564548103602, 0.010075248299456078, 0.01014167318323234, 0.010195886867474385, 0.010293692918876851, 0.010403957882377378, 0.01054212847108899, 0.010675704405733311, 0.010846929079959182, 0.011004488424622667, 0.011176728511931461, 0.011343612635853132, 0.011546707874817222, 0.011747079033253739, 0.011977160593147955, 0.012218672214274987, 0.012502211205676518, 0.012762538609781292, 0.013013908615750362, 0.013302504771281119, 0.01360208981252646, 0.01396503390528696, 0.014279447709378288, 0.014572245902817266, 0.014917283657228076, 0.015318535784365926, 0.015677998769027045, 0.016049778369122455, 0.01642230675358602, 0.01681828076567257, 0.01719795526238211, 0.017616777235010348, 0.018043297310419426, 0.01849925001658066, 0.01893792532818936, 0.019354392748211935, 0.01981346394021081, 0.020278560006225868, 0.02075616865338596, 0.02123222796599178, 0.021786624555297108, 0.02226557104248596, 0.02275430050938233, 0.0231841783258135, 0.023698788987261906, 0.024276337634787256, 0.024791096186636774, 0.025312885599170876, 0.025858654807995037