0.06690046133789274, 0.06672630919943465, 0.0665648970865245, 0.06641831406460505, 0.06626072543163877, 0.0661366273374514, 0.06601902620521419, 0.06598374645975898, 0.06586656975520756, 0.0657202042948137, 0.0656230273486529, 0.06552975023680699, 0.06542996183096628, 0.06534415490912877, 0.06522486856520968, 0.06514731296094056, 0.06506943127063092, 0.06500325942123773, 0.06492389384425148, 0.06486525079825602, 0.06478559305724317, 0.06470838399662884, 0.06463364594280788, 0.06456143055423551, 0.06447408497678987, 0.06440940637077497, 0.06434654286468408, 0.06430349402906121, 0.06424282340639693, 0.06415423447282975, 0.0641048554067718, 0.06405752841683669, 0.06403823784355843, 0.06399287745684228, 0.06391265812742496, 0.0638814543448094, 0.06385080581217252, 0.0638253215518574, 0.06380305493624457, 0.0637548217753538, 0.06374378685465991, 0.06379440540916295, 0.06378152119801737, 0.06377547708579388, 0.06380181469156578, 0.06380602600830494, 0.0637888079296359, 0.06381276249796862, 0.06384275229978885, 0.06386112510653878, 0.06390565924723474, 0.06394955842593467, 0.06400561232376552, 0.06406703874783169, 0.06416362565797347, 0.06423275978818535, 0.06430958778790147, 0.06439406084046143, 0.0644861465462235, 0.06455036910490908, 0.06466212533363684, 0.06480116183686765, 0.06492170670394806, 0.06504966640962379, 0.06514769786326173, 0.06529547742050418, 0.06547444175321444, 0.06563052693715545, 0.06579437349959058, 0.06595034101366054, 0.06613205670819379, 0.06629341896139378, 0.06649331058838147, 0.06669933873005805, 0.06691980989197785, 0.06713835394124022, 0.06733311867022639, 0.06757137807929944, 0.06781608891655327, 0.06812484193087892, 0.0683765733891592, 0.06861360201745673, 0.06889025636124639, 0.0691761473731753, 0.06947336629282437, 0.06977783886293137, 0.07008806370588373, 0.07041250679836411, 0.07074659499408477, 0.07106089528586337, 0.07141835146050929, 0.07182746395991707, 0.07219641565329898, 0.0725767621802521, 0.07293888239404815, 0.07334555384884166, 0.07376770202370478, 0.07419297002693626, 0.07462853896717574, 0.07507453810621709, 0.07553108834020289, 0.0760278517538391, 0.07650210129863243, 0.07698888044116871, 0.07748213661787785, 0.07799431800120073, 0.07849076032443211, 0.07903007828659037, 0.07957963958937768, 0.08010025857453762, 0.08067590675409667, 0.08131138675791982, 0.08189826300266172, 0.08249752510705528, 0.08309337412071814, 0.0837192877692384, 0.08430932337012233, 0.08496411718260893, 0.08562785043316784, 0.08632265094349822, 0.08700284163014013, 0.08770424534030807, 0.08840604400050006, 0.08911999015748895, 0.08988154841866557, 0.09061531677306671, 0.09136518806701893, 0.0921266731191653, 0.09290183067123767, 0.09369040060755653, 0.09449214854815265, 0.09525958500975544, 0.09609305243221476, 0.09693646831652318, 0.09782551329061893, 0.098684975725127, 0.09949587778826226, 0.10038791988714107, 0.10128873971104801, 0.10224596742094712, 0.1031593672748971, 0.10402993913421152, 0.10497479568897425, 0.10592853910850408, 0.10687962760530949, 0.10785342145318762, 0.10885385322147428, 0.10984345630749293, 0.1108433801847147, 0.11186544023069023, 0.11288447570129223, 0.11393214486170777, 0.11497058549929717, 0.11602059624772926, 0.11709959201931236, 0.11816957194707942, 0.11919999556485049, 0.12029935421925897, 0.12140668692380226, 0.12254764582330958, 0.12366778918583525, 0.12479344862064545, 0.12593275921353123, 0.1270808225570404, 0.1282630428353349, 0.1294247581303725, 0.13057634565379592, 0.13175927932375675, 0.13294987240338693, 0.13408487566148528, 0.13529812099962074, 0.13653257776545713, 0.1377508361133526, 0.13897408725468566, 0.1402653924044406, 0.14149069483409119, 0.1427067665235527, 0.14395072752216828, 0.1452010681942359, 0.14642196145095995, 0.14768845054644997, 0.14901932440048002, 0.15028467442198948, 0.15155663662658045, 0.1527735480661518, 0.15406470730273103, 0.1553494954310934, 0.15664466582532613, 0.1579408641582545, 0.15923414670152758, 0.16053285106932674, 0.16184209448587428, 0.16314086072282127, 0.1644406944992187, 0.1657472950397539, 0.16704786925119203, 0.168327495905229, 0.169631951604427, 0.17093530408125068, 0.17226696360400456, 0.17356393176687443, 0.17480777527110147, 0.17611114675850761, 0.17741071078127726, 0.17872813518628702, 0.1800172960249079, 0.18136282954450494, 0.18263877225262792, 0.1839147035258917, 0.18512285503594078, 0.18640490908486448, 0.18771248549315966, 0.1889784474777388, 0.19023992442884555, 0.19150437331877884, 0.1927546238588056, 0.19395624869233266, 0.19520093963207508, 0.19643699651670415, 0.19769584871002502, 0.19891035271266636, 0.2001176316271782, 0.20131725693331062, 0.20250880861993092, 0.2036386867339522, 0.20481958659671623, 0.20600003150134774, 0.20715492298290478, 0.20829822579408694, 0.20942978974039747, 0.2105494381132693, 0.21167863971559278, 0.21277109547791817, 0.2138521908964365, 0.2149352857211665, 0.21599063566519625, 0.2170262534300378, 0.21805837671402523, 0.2190890098690076, 0.22009260528776026, 0.2210827362800013, 0.22203527459048028, 0.22300001875707692, 0.22396235472218853, 0.22489271909035125, 0.2258071705930637, 0.2266600362368545, 0.22754730451487623, 0.22840322822369644, 0.2292529643195007, 0.23008252108300423, 0.23094907280406257, 0.23173114626048683, 0.23244504825133622, 0.23319916610902433, 0.23393243546582457, 0.23462706834547722, 0.2353206790788844, 0.23602568081222416, 0.23667087447213017, 0.23729583908964047, 0.237912070668938, 0.23849411853463892, 0.23902610051862838, 0.23957045134757346, 0.24009184790824012, 0.2405960754054079, 0.24107043020010258, 0.24150205448450077, 0.24193263403773518, 0.24233866927183095, 0.24275557301328393, 0.24310788083195203, 0.24347684308024675, 0.2437783040202936, 0.24405850170696447, 0.24427739186859448, 0.24451816815304112, 0.2447868996128677, 0.24497032676126865, 0.24513119684620557, 0.2452177227097021, 0.24533830797911266, 0.24543193281742853, 0.245498608443646, 0.24553834184702972, 0.2455806855075623, 0.24556280727281735, 0.24545267292448253, 0.24539246652599495, 0.24530277403153355, 0.24520759000099387, 0.24505696118444392, 0.2449066972978746, 0.24469820722334185, 0.2444641528611505, 0.2441787480508226, 0.24389629612665112, 0.24364548150675372, 0.24330073599839214, 0.2429320402142295, 0.24250552163470723, 0.24209206450219398, 0.24160451350414988, 0.2411434440216447, 0.24065299889560202, 0.24013558964780113, 0.2395874312165824, 0.23902501294487133, 0.2384193375799088, 0.23778701314894474, 0.23715775819280296, 0.23646890508473187, 0.23572404170334035, 0.23499011507168804, 0.23422980625410994, 0.23348077811633228, 0.23266367023657977, 0.23174811152260033, 0.2308932007804803, 0.23001037110523015, 0.22911991170388735, 0.22818047924744286, 0.2272395146940054, 0.22624706496343308, 0.2252313878802583, 0.22420834771779186, 0.22314455527330637, 0.2220154471564883, 0.2209132067326174, 0.21978664230508393, 0.21866376794698805, 0.21748635778841685, 0.2163071293941732, 0.2150843651396664, 0.21384154968432703, 0.21258070083175418, 0.21129771339334336, 0.20999109393439205, 0.20866935192419805, 0.20732799021816284, 0.2059672303549349, 0.2045873157011272, 0.2031235024317335, 0.2017143061649508, 0.20028315059893262, 0.19889981946981472, 0.1974184874419676, 0.19589582078838846, 0.19438642197084208, 0.19286018643572433, 0.1913155596851986, 0.18975714809414398, 0.1882224402341806, 0.18662809620644122, 0.18502114585114549, 0.18338004352257722, 0.1817510312293816, 0.18006731672458692, 0.1784172755639636, 0.1767524045706992, 0.1751187694664803, 0.17342074915726408, 0.17167124797755304, 0.1699585342842957, 0.1682340094373597, 0.1665535039918704, 0.1648003773551921, 0.1629912358041257, 0.16123096607364015, 0.15946153118590334, 0.15773872025015215, 0.15594585721048657, 0.15408966859788623, 0.1522959601688069, 0.15049502581622468, 0.14866785895839993, 0.14685701591065106, 0.14505166498588315, 0.14322745439180504, 0.141399104354352, 0.13959283681996354, 0.13775478933404595, 0.13593946053313885, 0.1340969374511379, 0.13225553979704488, 0.13039181402655664, 0.128556245233998, 0.12674279580061604, 0.1249058521801389, 0.12307150399950786, 0.12122822222313412, 0.11940145201415713, 0.117561787364202, 0.11574318165991393, 0.11392744341669732, 0.11213681520902156, 0.11032577818218915, 0.10851262322015469, 0.1067144646508175, 0.1049223526408111, 0.10312293758792297, 0.10134598053992495, 0.09958940126077383, 0.09782442339261385, 0.09606788353974972, 0.09430836594374346, 0.09257140712212926, 0.09087692034167814, 0.08915418957556943, 0.08744329858122679, 0.08576808571057201, 0.08407850456887914, 0.08232789161953337, 0.08067548970279231, 0.07903287755366982, 0.07745791825801139, 0.07582982299901155, 0.07423058488328384, 0.0726310302997641, 0.07104763572447702, 0.06951396687885943, 0.06795891913682356, 0.06643798682995089, 0.06491754508340494, 0.06341616969178931, 0.06192584079590593, 0.060463230951734497, 0.05902883899227808, 0.05760179553558888, 0.05619385437328615, 0.054814918612078094, 0.053444129738848524, 0.052130677890635406, 0.05079503267447851, 0.04948154422937233, 0.04820184577779736, 0.04693067672141603, 0.04569572846026323, 0.044467553725089655, 0.04326238548074022, 0.042089933145856635, 0.04092916426786646, 0.03985472150314764, 0.038732477872194256, 0.037571933105673354, 0.036510813492204336, 0.03547183133909858, 0.03453397674940281, 0.03352989593286801, 0.03255494901760498, 0.03160452591858446, 0.030680614970830945, 0.02983611733038576, 0.028957709770681267, 0.028043115439929066, 0.027230021457892842, 0.026441100452121412, 0.025733633062578674, 0.02498630219576542, 0.02432198863790663, 0.02362311312820311, 0.022954670529094473, 0.022296336123147263, 0.021689471660586847, 0.021116250894632673, 0.02056390108987365, 0.02003925187745236, 0.019589415137747014, 0.019113731366729204, 0.018703476709955796, 0.01828280868288897, 0.01789328837919665, 0.017550082160128575, 0.017219175858069143, 0.016899082990136708, 0.016631211753350944, 0.016391862183866453, 0.01620055401159966, 0.016015257269488856, 0.01589855749741184, 0.01576643759913747, 0.015665291938543262, 0.015574944610718277, 0.015536878086660787, 0.01556488025218206, 0.01557922877845481, 0.015624078703598604, 0.01573056404909137, 0.015831333554753566, 0.01598701886146486, 0.016146862114162084, 0.016338394829768753, 0.016539394630363868, 0.016795461876317377, 0.017153447674682132, 0.01745818458559984, 0.017795717458473925, 0.018185036699571645, 0.018583638480234144, 0.01899064770002372, 0.01945571484975633, 0.01995035334873279, 0.0204723255593933, 0.021025594436857455, 0.021641129060904884, 0.02224757476531895, 0.022884414713226005, 0.02354340128721078, 0.024240972279421433, 0.025042392424552366, 0.02578831112442701, 0.02656710422945846, 0.027374105195654343, 0.02821705810196966, 0.029063173942197467, 0.02997065116129756, 0.03090649068026665, 0.03186664220272932, 0.03285939226893355, 0.03391743489216527, 0.03496115035952459, 0.03603477612235768, 0.037161631405951065, 0.03829117031027678, 0.039451104074623405, 0.0406410307506077, 0.04186059926553159, 0.04309374415212485, 0.04437371006184639, 0.045671779165789954, 0.04700882101972069, 0.048373123559976305, 0.049794259022269124, 0.05120941451230691, 0.05270476845136383, 0.05417118582243787, 0.05566903703338887, 0.05714848752239478, 0.05871374418371993, 0.06032975521401843, 0.061946254043942856, 0.06359119688018533, 0.06532546356394298, 0.06701903427234335, 0.06871640316943405, 0.0704755996757608, 0.0722634719573609, 0.07414083997878097, 0.0759776347551664, 0.07778482224598345, 0.07969161205027882, 0.0816252263482154, 0.08365855654879403, 0.08563662455117316, 0.08761412159114135, 0.08965750536309827, 0.09172901422456592, 0.09381863071238397, 0.09594716043401323, 0.0981619397210088, 0.10033728951001614, 0.10254309383996055, 0.10475524453889304, 0.10702360477748882, 0.10928835606787239, 0.11161641740429513, 0.11397043498322249, 0.11641954751064458, 0.11881732039161197, 0.12121590201334206, 0.12367772166109872, 0.12616748803789707, 0.12870286981266238, 0.13124612140038663, 0.13383984536671112, 0.1364378000615216, 0.13906547394386468, 0.14171470062452984, 0.14440199159750175, 0.14712373214835503, 0.14986724608966287, 0.15263943425132784, 0.1554263907414418, 0.1582573435308755, 0.16109030169735228, 0.16397977306122205, 0.1668955259008801, 0.16982402835475163, 0.1727948334007886, 0.1758391179240291, 0.17885664164493612, 0.18190357189063497, 0.18502506299192495, 0.18812463433619508, 0.19121437719591403, 0.19438178835558537, 0.19757753454224006, 0.20081340619667107, 0.20406424542576365, 0.20731642970464947, 0.21062849027288652, 0.2139677135441226, 0.21734605220011533, 0.22073848827682768, 0.2241433385043322, 0.22759410225350724, 0.23107212835613597, 0.23456373594636695, 0.23809833660758262, 0.24167545414300262, 0.24526174266001863, 0.248875974457526, 0.2525437407941369, 0.25621055927294734, 0.2598810698639856, 0.26360947918624933, 0.26736527179954317, 0.27116222716181004, 0.2749710010778297, 0.2787901379453411, 0.282657183180518, 0.28655101968646607, 0.29051694953900475, 0.29445860626666054, 0.29838619478816614, 0.3023914565367871, 0.30642275914051376, 0.3104308487621664, 0.3145204234818465, 0.3186410822422194, 0.32277640635730237, 0.3269359859176025, 0.3311475489459783, 0.3353525536123977, 0.33956988450131015, 0.34382866384817323, 0.3481123767029091, 0.3524071285469296, 0.3567421152939101, 0.3610989140204294, 0.3654816598323682, 0.3698879384595581, 0.37431962245730077, 0.37877239737013263, 0.3832504111443845, 0.38774928359069116, 0.39223961408657726, 0.3967881789215674, 0.40135744360318615, 0.40592571581535575, 0.4105390048652874, 0.41515778606053216, 0.41981140731867445, 0.4244835306721252, 0.42920767262835813, 0.4339125888777952, 0.43863976330462495, 0.4433845993310141, 0.44814900656685447, 0.4529266281548963, 0.4577295751139235, 0.4625267559805229, 0.467368013470035, 0.47222495553924376, 0.4771071716696052, 0.48199342184783345, 0.486851687594824, 0.4917736876337052, 0.4967077170473884, 0.501643802939609, 0.5066027076789674, 0.511566637948635, 0.51654795476711, 0.5215394092853799, 0.5265171000890975, 0.5315309804245775, 0.5365527355895062, 0.5415821530034276, 0.5466189579664372, 0.5516963081087108, 0.55674261024476, 0.5617596103242649, 0.5668261588139216, 0.5718972513629016, 0.5769862312259234, 0.5820632889731958, 0.5870949592404404, 0.5921852958125959, 0.5972753744343032, 0.6024141378871918, 0.6074964955546688, 0.6124935847030752, 0.6175888447010989, 0.6226789056530587, 0.6278010247755472, 0.6328753572500371, 0.6379103739502723, 0.6429807735175649, 0.6480438978127218, 0.6531209524369387, 0.6581653409177975, 0.6631725714638682, 0.6682046910297635, 0.6732259516605473, 0.6782318300900265, 0.6832300770116304, 0.6882330964161248, 0.6932025188346999, 0.6981586059181863, 0.7030669912694465, 0.7079979984774982, 0.7129249184368273, 0.717817794483069, 0.7226922596695422, 0.727527795119272, 0.7323654526626865, 0.7371653250111782, 0.7419602158492054, 0.746730750097247, 0.7514959872547974, 0.7562133586190906, 0.7608758956970663, 0.7655455271197357, 0.7701863967685867, 0.7747781234082933, 0.7793618792783198, 0.783901801972959, 0.7884224087960682, 0.7929090631633591, 0.7973887414652483, 0.8018021514037602, 0.8061122719487931, 0.8104647704172157, 0.814777165278581, 0.8190589109027283, 0.8232885982552332, 0.8274793190203291, 0.8316262249738924, 0.8357309485685059, 0.8397612254808327, 0.8437833063245634, 0.8478123122371238, 0.8517345839377155, 0.8556124139641518, 0.8594604890396327, 0.863244244053959, 0.8669340021261873, 0.8706291535673295, 0.874272680023553, 0.8778441853045013, 0.8813848449684072, 0.8848863961080257, 0.8883147485560854, 0.8916879322596941, 0.8949815519753426, 0.898245114728259, 0.9014361152001137, 0.9045833045873491, 0.9076697833319479, 0.9107423298156555, 0.9136998829406717, 0.9165268840660306, 0.9193731838836912, 0.9221540006952964, 0.9248828063020833, 0.9275299195808603, 0.9301447419493364, 0.9326555276198054, 0.9351013335892872, 0.9374498192164886, 0.9397672137023453, 0.9419721409570382, 0.9441562722913232, 0.9462678684743031, 0.9483619441003462, 0.9503210239159027, 0.9522140525825148, 0.9540319560809607, 0.9557787271573847, 0.957424148433182, 0.9590304176339952, 0.9605619877149527, 0.9620185233862475, 0.9633996902605527, 0.9647071269420295, 0.9659363182767691, 0.9670479060973507, 0.9681295304229968, 0.9691319556056943, 0.970072940999244, 0.9709147892587437, 0.9716449580877402, 0.972334478856461, 0.9729435732364012, 0.9734782499967924, 0.9739260159096418, 0.9742801230859932, 0.9745698831893516, 0.9747789727203396, 0.9749212724234655, 0.9749675377061771, 0.974947932981832, 0.9748330874560129, 0.9746392707362981, 0.9743308892044684, 0.9739832360881177, 0.9735799095572789, 0.9730666879237233, 0.9724740819410814, 0.971762710053036, 0.9710163914897385, 0.9702201198367632, 0.9693072799114879, 0.9683155374099703, 0.9672233525649327, 0.9660769572164546, 0.9648548448541076, 0.9635490152925467, 0.9621645085274916, 0.9607115288200552, 0.9591694976330639, 0.9575268022777147, 0.955834022790956, 0.9540635424436307, 0.9522395525999495, 0.9503123397698473, 0.9483242044945878, 0.9462461963641001, 0.9440950247952594, 0.9418138839048565, 0.9395246164483333, 0.9371659807133379, 0.934726313200135, 0.9322134857456726, 0.9296046788591888, 0.9269509720352278, 0.9242409784832682, 0.9214421834759953, 0.9185741965584214, 0.9156122362321332, 0.9126115860348853, 0.9095644610980047, 0.9064258234955174, 0.9032223183408055, 0.8999212869713457, 0.8965947796420434, 0.8932237421844184, 0.8897674145348324, 0.886250199420376, 0.8826946971895842, 0.8790557667087323, 0.8753383075027125, 0.8715891749109789, 0.8677441534108709, 0.8638880319955897, 0.8599752367475081, 0.8560465065268434, 0.8520193722513966, 0.8479554962075779, 0.8438264985696137, 0.8396496487847211, 0.8353608109411164, 0.8310991227723084, 0.8267965234873913, 0.8224377430646401, 0.8180335473166426, 0.8135695278603218, 0.8090805255302473, 0.8045649746112078, 0.7999907862697558, 0.7953779904391471, 0.7907613176279997, 0.7860707925622297, 0.7813078508738152, 0.7765572301104373, 0.7717733302450236, 0.766973247157305, 0.7621247937758011, 0.7572006418889007, 0.7523025026906397, 0.7473756523502918, 0.7424374226936005, 0.7374558347534801, 0.7324726902104869, 0.7274432485390814, 0.7223944591175521, 0.7172782127282117, 0.7122003819556021, 0.7071373771282444, 0.7020195524343138, 0.6968880350669424, 0.6917223750087366, 0.6865698693702343, 0.6814238415953439, 0.6762479847305308, 0.6710646358966224, 0.6658257557299109, 0.660637274383036, 0.6554401895437786, 0.6502402903307146, 0.6450367961181374, 0.6398075856714472, 0.6346043985500465, 0.629477538541557, 0.6242652223700114, 0.619059828262031, 0.6138326632419878, 0.6086474450392005, 0.6033992226140749, 0.5982399647224085, 0.5930869651184346, 0.58797936866261, 0.5828392211571642, 0.5777162841789678, 0.5726033712913479, 0.5675063077742272, 0.5624656029681372, 0.5573985716984938, 0.5523312113981512, 0.5473103424674277, 0.5423111057059372, 0.5373521902811877, 0.5323968512539271, 0.5274118463958861, 0.5225152654834272, 0.5176426919702454, 0.5128466053705767, 0.5080193063157884, 0.503161461196277, 0.4984036363987963, 0.49367433637568753, 0.4889708396079495, 0.48430268604287297, 0.4796801156235994, 0.47507489811667264, 0.4705043823479564, 0.46593990378544925, 0.46144514975965023, 0.45704509927564346, 0.4526151194710123, 0.44822607462973796, 0.44382916732529687, 0.4395295803888871, 0.4352990913429736, 0.43107573448020287, 0.4268952741206449, 0.4227287011510806, 0.4186393765413521, 0.4145830220131295, 0.41058132035875566, 0.4066233183529595, 0.40273141725566974, 0.3988602221329117, 0.39502023532556607, 0.39124538689962257, 0.38751743961954643, 0.3838388695073368, 0.38020595843260196, 0.37658995420671854, 0.37305826788931923, 0.36957398607603675, 0.3661495125118044, 0.36276023911617317, 0.35949153060690153, 0.3561929107695038, 0.35294853151935895, 0.34965367143495, 0.34653006452446894, 0.34351506706319784, 0.3404794444071448, 0.3374959527419363, 0.33457244626187693, 0.33169213527687647, 0.32881504638993836, 0.3260457846949094, 0.3233259906020092, 0.32068351275387036, 0.3180599208930226, 0.3154840513478647, 0.3129641742869932, 0.3104955049754851, 0.3080661120077163, 0.3057009951294359, 0.3034155709146027, 0.3011469251662348, 0.2989298883719737, 0.2967187717902539, 0.2946095398547402, 0.29259353959966405, 0.2905744062903032, 0.28860565054376713, 0.28666315466994946, 0.2847967093176827, 0.2829897041509983, 0.28121671983951263, 0.27949142226750956, 0.2777562530061803, 0.27613224761757943, 0.274547454772751, 0.27301024434023674, 0.2715158798271985, 0.2700741010691403, 0.2686637909307994, 0.26724711869108964, 0.2659284439103758, 0.2646491256684147, 0.26347609838624864, 0.2622668141970938, 0.2610589091787427, 0.25993954363708116, 0.25885899527039596, 0.2578640767509012, 0.2568537513071946, 0.2558873304491763, 0.25495548794613815, 0.2540619534346188, 0.25317032427276825, 0.2523550756138404, 0.2516048862316222, 0.2508521256993128, 0.2501334368734068, 0.24943412720554123, 0.24878262907080628, 0.24813811838858374, 0.24755010483675446, 0.24698987201822106, 0.24644108418586536, 0.24593664825495606, 0.24551836572185293, 0.24505585489931908, 0.24462076979874128, 0.2441489878408072, 0.24377350018704388, 0.2434404053585841, 0.24310313281457663, 0.24278677563030518, 0.24247089320565726, 0.24219662298938244, 0.2419832473113933, 0.24173800068215845, 0.24151149747621897, 0.24126136253586247, 0.24107457881285194, 0.24095051105731277, 0.24078382623865807, 0.24063212979770057, 0.24047664364647636, 0.2403540508770027, 0.24024633779833746, 0.24014430868909803, 0.24005181229710537, 0.2399305856298249, 0.23985939449913837, 0.239777405602968, 0.2397176286068608, 0.23969241692201534, 0.23963432192468265, 0.23958015369840435, 0.23948582610087593, 0.23944275043909063, 0.23938514680625045, 0.23934194993334124, 0.23929642742627022, 0.2393033890845953, 0.23924515544996422, 0.23914712841058292, 0.23909218389569542, 0.239032856623396, 0.2389686153939426, 0.23889891523451165, 0.2388822978821962, 0.23879253245693077, 0.2386989360174313, 0.23857485222835872, 0.23847374716375055, 0.2383663708551871, 0.2382478546560961, 0.23811986978543567, 0.2379640336649932, 0.23781741533479123, 0.2376466198227224, 0.2374763342985132, 0.23729213780644468, 0.2370798959307987, 0.23686857897020455, 0.23663561343303866, 0.23639331695462773, 0.23613443691683111, 0.23589814333195755, 0.2356004149472353, 0.23527970810073795, 0.234952198119218, 0.23460801968915398, 0.23420929223116657, 0.2338351751223432, 0.23343508930965567, 0.23302151562487255, 0.23258736304671976, 0.2321680219385418, 0.23168800778874984, 0.2311753659123103, 0.230659026813319, 0.23012232016998646, 0.22959259952906527, 0.22901100778239375, 0.22839420009222647, 0.22777528070683445, 0.2271352479501808, 0.22645420322660711, 0.22577385742297817, 0.2251121260229413, 0.22438106344371345, 0.22362961184933638, 0.22280033469693689, 0.22201444546316684, 0.22127705105005033, 0.2204334368722447, 0.21957005057642318, 0.21868260417106478, 0.21777918615605152, 0.21680565468531823, 0.21586657954449617, 0.21490361202127523, 0.2139052578570458, 0.21289696331072336, 0.21182368537885354, 0.21077378008596714, 0.20969869757126705, 0.20868974147137836, 0.20755485565932535, 0.20639981516477637, 0.20522862505681322, 0.20403882625401137, 0.2027751977132729, 0.20155500999751985, 0.2002953292459614, 0.19903435977316775, 0.19775162032729562, 0.19645560093470513, 0.19513012443989838, 0.19380672874928034, 0.19243979918702706, 0.19105541120869415, 0.18967155997611987, 0.18825082461219816, 0.18677703493197417, 0.18532994273271297, 0.18386547945040574, 0.1823979561748519, 0.1808985611495756, 0.1794018318011137, 0.17787045107880892, 0.17632577578404654, 0.17471881418228646, 0.17315457034139115, 0.17164208787087618, 0.17003966683908248, 0.16842720586604315, 0.16678119647732706, 0.16515208048173102, 0.16352196855390422, 0.16187035890025422, 0.16020935224881241, 0.1584940238188382, 0.15682112013917254, 0.15519460786546554, 0.153493806859416, 0.15178704075135402, 0.1500371607077993, 0.1483240670151336, 0.14665111602892872, 0.1449184403914563, 0.1431826014597949, 0.14140446043497115, 0.13966809029946514, 0.1378700991096152, 0.13613263628690916, 0.1343888018326356, 0.1327460737628214, 0.13097928453711336, 0.1291423129407877, 0.1273902067082334, 0.12563688525491776, 0.12385157685182702, 0.12210202167004117, 0.12039891592771464, 0.11864264561356287, 0.11688998551280556, 0.11515516183476102, 0.11340929173266023, 0.11165533424994016, 0.10992294420593292, 0.10819616219362388, 0.10647545949424538, 0.10476130497575138, 0.10301870624700528, 0.10132352655401532, 0.09963429361338319, 0.0980147855403638, 0.09633165898899271, 0.09461284687351322, 0.0929590085832943, 0.09131439302847195, 0.08968153652221479, 0.08805679440409148, 0.08642332047510969, 0.08482349173992396, 0.08323448415860198, 0.08174752802033852, 0.08017051359776155, 0.07852250175563923, 0.07699178353609915, 0.07547338280714072, 0.07404277831338538, 0.07254137518347639, 0.07105627406315207, 0.06959157723126014, 0.06814491262971846, 0.06666507462917944, 0.06526101899036227, 0.0638624000320809, 0.06249066974336949, 0.06113465699046038, 0.05982443710633371, 0.058497665759449896, 0.057166101365003386, 0.055880194784335965, 0.054612174232253674, 0.05336241013093113, 0.052131246104992875, 0.05095248908685731, 0.049755222214789195, 0.0485793196817725, 0.047438552392544374, 0.046303592703522016, 0.04513362535332986, 0.0440500318627458, 0.0429851791350031, 0.0419315874318362, 0.04090636953426562, 0.039969471782858604, 0.03897462642232792, 0.038003669213754414, 0.03699918111164399, 0.036082381275509404, 0.035217000878762623, 0.034336270424782704, 0.03347767973947663, 0.032621460016247994, 0.031809430797238344, 0.031051714907305312, 0.030277187289102194, 0.029525514364963437, 0.0287472222373889, 0.028046820869706272, 0.027397388802342843, 0.02673210688062058, 0.026047040842163957, 0.025430026625650512, 0.024832007969462097, 0.02430439413409929, 0.02373841831713008, 0.023175051161563463, 0.02265583216116236, 0.022157130970360237, 0.021680753469409633, 0.021222337732883467, 0.020772211954811985, 0.0203553031965166, 0.019957421274242472, 0.01958238149840989, 0.01922166315402105, 0.018899464401444778, 0.018573688392562022, 0.01826741167014885, 0.017986156293133604, 0.017716977584809255, 0.017496043353488686, 0.017260110175525707, 0.017043723326511478, 0.016745791903621778, 0.0165793627962518, 0.016452654537713753, 0.01630730599233551, 0.01617614019244812, 0.016053167585344866, 0.015950841015133103, 0.01592309434262155, 0.015839945896727554, 0.01577345434787425, 0.015726883029156, 0.015691212736763962, 0.01564488387286165, 0.01564173917065628, 0.015650910960841983, 0.01570947629123086, 0.015737492808224597, 0.015794626224035827, 0.015846707871173957, 0.015911752373935314, 0.015898427153212324, 0.015998749549629532, 0.016104927827351283, 0.016217092731704786, 0.016335315989059476, 0.016500983953227848, 0.016626099167664218, 0.01675753771991938, 0.01689904201385548, 0.017047841613860512, 0.01724291513220123, 0.0174000679462959, 0.017583206841020917, 0.017753904988411368, 0.017932444202768457, 0.018171224621221786, 0.018356411533263187, 0.018569916014842903, 0.01876878000236822, 0.018975323137010044, 0.019198345299333813, 0.019415948231245348, 0.019642852382614897, 0.019869811789491723, 0.020100697499976054, 0.020338701683526916, 0.020574767467223972, 0.020803086769263096, 0.021044009855645585, 0.021285347797581403, 0.021583813572204406, 0.021817546970592253, 0.022071481046727685, 0.022307129451787307, 0.022544751829426134, 0.022795390817932373, 0.023033218323223806, 0.023307049278892406, 0.02354083388115515, 0.02377592555881878, 0.023983945884627923, 0.02422283222184446, 0.024506624491434575, 0.024734460408799515, 0.02496195934086361, 0.02523970411890979, 0.025458226226681292, 0.025646088005050797, 0.025869475701747125, 0.026090387362192467, 0.026381330053228996, 0.026586989345923913, 0.026820861235690982, 0.02702348317773834, 0.027226762689824137, 0.02739835377778512, 0.027604569083689256, 0.027880418550355748, 0.028070656473556953, 0.028261273098460188, 0.02843576793851128, 0.02862702589820895, 0.02880603764568133, 0.02899344304699202, 0.029177356286840726, 0.02938328658597561, 0.029556721353733995, 0.029741715155854567, 0.029908754473686187, 0.03007401007395675, 0.030276682693059134, 0.030432854402084025, 0.030571298579510856, 0.03072935655862098, 0.030885784033247512, 0.031093705015603264, 0.03124000249426728, 0.031428968017229615, 0.03157227064389432, 0.0317185537952403, 0.03184167730068401, 0.031995677117718314, 0.03216570894271473, 0.032318237775213476, 0.03247193133312502, 0.03267599153106139, 0.03282570952267382, 0.03302863912931718, 0.03317977730431639, 0.0333371742755197, 0.033504268482401615, 0.03367230408989183, 0.033820064021591316, 0.034001804394532764, 0.03418713425078242, 0.03438214510531678, 0.03457450033643473, 0.03478328085475608, 0.034983616151729645, 0.0351897853709573, 0.03544733789381726, 0.03566021236149723, 0.03589412854280108, 0.0361239426919197, 0.03636369608283482, 0.03663903314308813, 0.03689560478991497, 0.037122496941692514, 0.037407697256128435, 0.03770238154050348, 0.03809766209892279, 0.03840136441301402, 0.038731028432901916, 0.03906552675062111, 0.03941642649208235, 0.039714712310135805, 0.040107018948213655, 0.040610412923791174, 0.041016180615992354, 0.04144152667098432, 0.04181152524417879, 0.04228537825867934, 0.04287907487612373, 0.043371384691356846, 0.04388654577669507, 0.04435553465558528, 0.044924980779201644, 0.045529211155683834, 0.046135444810467156, 0.04676304544345642, 0.04745594799412856, 0.048122604308935835, 0.04879518156712015, 0.04951584349322876, 0.050261617314632565, 0.05106060501962928, 0.051854702384367804, 0.052663288397530754, 0.05351603027383994, 0.054397002965831553, 0.05528309205126161, 0.056225102751351626, 0.057240938207054656, 0.058235002089477544, 0.05926160558493154, 0.06036640807312947, 0.061453445518283634, 0.06253927521103995, 0.06370355017461674, 0.06490213653847582, 0.06613748861223666, 0.06740591385937557, 0.06871221747485202, 0.07005270746268269, 0.07143021710057036, 0.07289054716426423, 0.07433785050378712, 0.07580650813807967, 0.0773385469741823, 0.07891085436905682, 0.0805474495619807, 0.08219846014641045, 0.08389027642859842, 0.08562731161587808, 0.08739173081337323, 0.08921734017115407, 0.09108581722927503, 0.09303898621332878, 0.0949893326491974, 0.09696652538461535, 0.09901256238130708, 0.10110429099488548, 0.10324007118893301, 0.10542442621515323, 0.10763566379708811, 0.1099160251456423, 0.11224256297817937, 0.11466305625690475, 0.11707744580325632, 0.1195519390539785, 0.1220656353560206, 0.12463024912350959, 0.12720638833076112, 0.1298778621983667, 0.1326138908301398, 0.1353813478034269, 0.13819922789617778, 0.14106773704116418, 0.14398707155793275, 0.1469239284604768, 0.14994969296430843, 0.1530249240337025, 0.1562150459439557, 0.15938219464577674, 0.16257008170133083, 0.16584967913581258, 0.16918117037705793, 0.17254296188149706, 0.17598119053565353, 0.17953331084749968, 0.18306547728822084, 0.1866523959988332, 0.19025034622248058, 0.19395112911713608, 0.1976637649250828, 0.2014720675471764, 0.20532945383837742, 0.20926182970250823, 0.21321497043716578, 0.21724099885238682, 0.22129374369538463, 0.22539870889232502, 0.22952799369064583, 0.23373991663197918, 0.2380153219980604, 0.24232477105273018, 0.24668441913902647, 0.25110185035808585, 0.25555999563494824, 0.26001859393007115, 0.2645819553949594, 0.26919141908309835, 0.27389422589075574, 0.2785897448576883, 0.28328842371974006, 0.2880860219698719, 0.29292837340929034, 0.2977935836005468, 0.3027274558868547, 0.3076744958910698, 0.3126973475410325, 0.3177608160306164, 0.3228530102432742, 0.32799890929921083, 0.3331902154791888, 0.3384141571867385, 0.3436774424436017, 0.34903483161586085, 0.35436858082171535, 0.35972765097735865, 0.3651445551167685, 0.37059966982109016, 0.37605668554984173, 0.3815901435254796, 0.38713754570047154, 0.39274019085160317, 0.3983741497140712, 0.40402117729086945, 0.40971840113685826, 0.41544817051113997, 0.421201577645701, 0.4269826902045852, 0.43284204695456124, 0.43867001034384595, 0.44444561293477286, 0.45033937988573297, 0.4562545951664502, 0.4622242050090668, 0.4681763867673947, 0.4741205199437466, 0.4801184379555378, 0.4861341791223454, 0.4921255771930432, 0.49817975601005093, 0.5042488808710123, 0.5103281737926315, 0.5164193000701552, 0.5225096920981575, 0.5286236756802535, 0.5347877805794258, 0.5409132254174371, 0.5470480612226859, 0.5531181497787925, 0.5592772260301933, 0.5654260202284954, 0.5715889922558506, 0.5777514168814525, 0.5839519725929774, 0.5901060897906204, 0.5962496540626142, 0.6024023802919835, 0.6085513793982653, 0.6146580508647125, 0.6208007936684236, 0.626965659368732, 0.6330847072434936, 0.6391942432021569, 0.6452279967777662, 0.6513229317743258, 0.6574442361254771, 0.6634989972326725, 0.6695376409155022, 0.6754840778100644, 0.6814962435064919, 0.6875474017600568, 0.6935028520704062, 0.6994364050636146, 0.7052620424388711, 0.7111585754236346, 0.7170895307870448, 0.7229160480793811, 0.7287142949250351, 0.7344672107288382, 0.7402070071824877, 0.7458822327651735, 0.7515587442677149, 0.7571980928448996, 0.7627560093991784, 0.7683236815167733, 0.7738823472923986, 0.7793601156240415, 0.7847958426192626, 0.7901273872544651, 0.7954835143383221, 0.8008046921547404, 0.8060609730269956, 0.8112679696118871, 0.816440576149605, 0.8215443779080812, 0.8265773760592725, 0.8315803698486484, 0.8365289675522831, 0.8414222276497825, 0.8462591881044133, 0.8510408406276087, 0.855762005905454, 0.8604240144732055, 0.8650238762512832, 0.8695647595942843, 0.8740216473991593, 0.878439619244052, 0.8827920561112499, 0.887050565547333, 0.8912729649883755, 0.8954356533152609, 0.8995170640843414, 0.903528192212457, 0.907462370614679, 0.9113313981378872, 0.9150959926575889, 0.9188224455625046, 0.9224727464024648, 0.926052317067763, 0.9295480711306754, 0.933011759612314, 0.9363464239731126, 0.9396050202046357, 0.9427510962429312, 0.9458591014914239, 0.9488881646489371, 0.9518335125666998, 0.9546968942568815, 0.9574974186465286, 0.9601926167470191, 0.9627599079432437, 0.965294924216208, 0.967743407746374, 0.9700932586120531, 0.9723693177133164, 0.9745573069333097, 0.97665701551875, 0.9786682191921873, 0.9805887142572862, 0.982422450008972, 0.9841688247388095, 0.9858234238798445, 0.9873213754090621, 0.9888048656245194, 0.9901944617209566, 0.9915673105937429, 0.9927603105084724, 0.993791645733456, 0.994815868105464, 0.9957463911311537, 0.9966307282033179, 0.9973685502277666, 0.9980159460548267, 0.998572696221076, 0.9990386140831142, 0.9993780871638043, 0.9996663941948223, 0.9998950027097858, 0.9999929291350589, 1.0, 0.9998905611842086, 0.9997190590953307, 0.9994375061990831, 0.9990838686033708, 0.9986374545212251, 0.9981026303138435, 0.9974714385897291, 0.9967785047381647, 0.9959613811974954, 0.9950554038218205, 0.9939976991049644, 0.992922515502643, 0.9917397901135874, 0.9904838195316331, 0.9891367255603067, 0.987699370725094, 0.9861725840607884, 0.9845965651673447, 0.9828883147175741, 0.9810951845694138, 0.9791289592007448, 0.9771785993394883, 0.9751850726154658, 0.9730532642376883, 0.9708379234537566, 0.9685575331231212, 0.9661751474227248, 0.96370854984949, 0.9611667384502197, 0.9585456992541818, 0.9558481037961236, 0.953070485593772, 0.9501863688173511, 0.9472593355715054, 0.9442552142113722, 0.9411967055443888, 0.938038756386115, 0.9348040722483092, 0.9315018750725637, 0.9281283714879148, 0.92468645009303, 0.9211728577206892, 0.9175376888697591, 0.9138949976040401, 0.9101828584669224, 0.906379050209004, 0.9025352219617795, 0.8986168910264268, 0.8946423279307422, 0.8906036831385012, 0.8865221473431116, 0.8823572800656505, 0.8781239383223967, 0.8738442871368588, 0.8695078911722351, 0.8651357352633832, 0.8606872023575685, 0.8562144278013292, 0.8516598612902245, 0.8470572242054034, 0.842360138011083, 0.8376700764920858, 0.8329518076005019, 0.8281648350968961, 0.8233338324933401, 0.8184186386548732, 0.8135084364843655, 0.8085476503186008, 0.8035546007881468, 0.7985215012338549, 0.7934617361450417, 0.7883517026876996, 0.7832167276608971, 0.7780372442865359, 0.7728262656495317, 0.7675594582132097, 0.762292553429509, 0.7570359418830931, 0.751707328471011, 0.7463547624701635, 0.7409439050611468, 0.7355512955633149, 0.7301597977787121, 0.7247206022133188, 0.7192630995100762, 0.7137294188192317, 0.7082464594818015, 0.7028026997491487, 0.697278377304566, 0.6917427090532445, 0.6861298679505443, 0.6805834372588401, 0.6750825095617473, 0.6695073219918989, 0.6639270861279667, 0.6583173334384136, 0.6527336664289737, 0.6471902911519891, 0.6415964135776782, 0.6360046229822071, 0.6303331526249294, 0.6247589292277685, 0.6192166432020407, 0.613640966437467, 0.6080707975578848, 0.6025291153787665, 0.5969711253017516, 0.5913488538091681, 0.5858225396000083, 0.5803047192265689, 0.5748384195218995, 0.569337254233624, 0.5638634725077434, 0.5583930520212346, 0.552941062025386, 0.5474769624791095, 0.5420687484797772, 0.5366958727140199, 0.5313260361346749, 0.5259790480837446, 0.5206007604224308, 0.5153094529885183, 0.5100684493791582, 0.5048205020528074, 0.49959954888824554, 0.49439677570197366, 0.4892341278062374, 0.48410092565622337, 0.47899818574692155, 0.4739268855165295, 0.4688820559756194, 0.463877170061242, 0.4589021729249054, 0.4539663326000309, 0.44906584499748836, 0.4442291424034096, 0.4393983983202054, 0.4345479136111589, 0.429803886758297, 0.42509696009889786, 0.420441922611427, 0.41581038735364106, 0.4111978678131621, 0.4066511514082029, 0.40214528471564687, 0.39770274676226003, 0.3932782141556072, 0.38895317269587903, 0.3846108143778214, 0.3803168249441096, 0.3760475587094811, 0.37185330962948787, 0.3676608711617075, 0.36356685856212345, 0.3595179594892721, 0.355508890614037, 0.3515527935801177, 0.34765305589301293, 0.34378926156504064, 0.33997353805902, 0.3361845710296464, 0.3324687598049973, 0.328810618549393, 0.3251896360256712, 0.32161784247695474, 0.31806200514123933, 0.3145935563985776, 0.31120854052909475, 0.3078319831100084, 0.30450617858857876, 0.3012606949515582, 0.2980326991341136, 0.2948058986129356, 0.2916889315574746, 0.2886209682700362, 0.2855923183572918, 0.2826240411627815, 0.2797400207713017, 0.27686497049908876, 0.2740408894331288, 0.27125175744524865, 0.2685308200813351, 0.2658670493009566, 0.2632435383892258, 0.2606576121228208, 0.2581341447999527, 0.255658886828109, 0.2531961890909779, 0.2508212360992445, 0.24849579612199277, 0.2462115135604079, 0.2439730123489619, 0.24178017268234944, 0.2396328297308485, 0.23756426563525213, 0.2355030241493333, 0.23348842709892392, 0.2315100424752754, 0.22958823532823805, 0.2277088104883131, 0.22587545947500276, 0.22408534567274793, 0.22235569761890622, 0.22064830325235005, 0.2189658764333961, 0.21734544150564247, 0.2157653642659059, 0.214191636295541, 0.21269493606029463, 0.21122920609850745, 0.2098067246833905, 0.2084201697123605, 0.2070770935767808, 0.2057603696647138, 0.20449860442735762, 0.20324939827587485, 0.20203551089472507, 0.20086804480297313, 0.19972114844725591, 0.198576561107765, 0.19750048971108716, 0.19645485656751252, 0.19546275842549896, 0.19447336321498385, 0.19348646054589239, 0.19255990010499, 0.19166027980184486, 0.19081658748108998, 0.18996540664754702, 0.1891410777457464, 0.18834274292377443, 0.18756955807059564, 0.18680493237108586, 0.18608155718197347, 0.18536816745065543, 0.18468922386286613, 0.18403006976349504, 0.18339996455923838, 0.18277735684328536, 0.1821831222888258, 0.18159560269555802, 0.18102573073693004, 0.18048650092636367, 0.17994780579090874, 0.1793857779628572, 0.17888331773838226, 0.17839297874536525, 0.1779063630585982, 0.17743968784539169, 0.17693974051623335, 0.17649816842117777, 0.17606319166622666, 0.17570355712786767, 0.17527239387620794, 0.17485092422918994, 0.17443823612950282, 0.17403344569359808, 0.17358250783683538, 0.173197690634896, 0.17281725762637035, 0.1724366610112802, 0.17205783959480628, 0.17167641925403676, 0.17130032155016783, 0.1709500214735739, 0.17057060462235182, 0.17019187985546222, 0.1697914834747173, 0.16941481343966883, 0.16903951924635346, 0.16865674648353068, 0.16827067060964687, 0.1678965307575384, 0.16750029646703943, 0.1670665985644643, 0.16666600829219846, 0.16625830356208623, 0.1659042209360624, 0.16547355966001626, 0.16500075137330975, 0.1645645301781928, 0.16411983443128778, 0.16364060659283128, 0.1631808637760822, 0.16274338227939306, 0.16225673916191802, 0.16176031074202135, 0.16122207170513747, 0.16070856216870713, 0.16022341877659704, 0.15967849159751882, 0.1591225085679515, 0.15852932862704555, 0.1579529115313041, 0.15737236088022, 0.1567665082066825, 0.15614678212776906, 0.1555503185861441, 0.15489725242568878, 0.15417839743940037, 0.153506309328593, 0.1528175986490356, 0.1521339192342742, 0.15140917038136317, 0.15061182100931667, 0.14986314259792288, 0.1490953906660268, 0.14830491505262772, 0.14750034386957456, 0.14669693312505247, 0.14585301160345174, 0.14499206308312337, 0.14413576149374618, 0.14323803215341113, 0.14232844323285715, 0.1413984477605559, 0.1404525602621998, 0.13948865831017493, 0.13851080508774757, 0.13749096195290955, 0.13648352464280417, 0.13545817033652374, 0.13438947751567154, 0.13333208325260962, 0.1322617901729655, 0.13116641147850674, 0.13005328873475153, 0.12892664400661835, 0.12777836784871938, 0.12666459434581678, 0.1254766287683636, 0.12427525341670415, 0.1230129917422748, 0.12179023016563847, 0.12057262896479837, 0.11931443441366654, 0.11804158932487717, 0.11672862361790613, 0.11543014999404837, 0.11417515620076511, 0.11283837193042302, 0.11149007075432614, 0.11012227760381797, 0.10875170553490973, 0.10730600489882344, 0.10591933406669658, 0.10451729369246628, 0.10313799476811135, 0.1017024953101473, 0.10022612349996393, 0.09877199957784895, 0.0973054794585661, 0.09587241950244957, 0.09437700488760375, 0.09281226152103576, 0.091308180898548, 0.08979271538718603, 0.08829019295707091, 0.08675100226789222, 0.08521357306557094, 0.08365736992527716, 0.08209444966327123, 0.08054287193535502, 0.07896527770335895, 0.07733964575313397, 0.07575834977489095, 0.07417038384251773, 0.07261773245425214, 0.07101302347446986, 0.06936832449778953, 0.06776345051494792, 0.06615439172122571, 0.06454172370441588, 0.06292600572713945, 0.06133536115806978, 0.059711676620475135, 0.05808808505089412, 0.0564688132050152, 0.05484578799916158, 0.05322398930146912, 0.05160372065193778, 0.04998530240860027, 0.04835725040208337, 0.04674504662747946, 0.04510946505988711, 0.04350542660444215, 0.041903109136280384, 0.04032878597505456, 0.038728636776661385, 0.03712567469882148, 0.03553703380238578, 0.03391831877757477, 0.032345376692163745, 0.030776716071751885, 0.0292504842831337, 0.027687769589030683, 0.026101954082973323, 0.024560364051500763, 0.023026036074871036, 0.021540905551172763, 0.02001754498419158, 0.018534937711406702, 0.017030408744843812, 0.015539079865638773, 0.014060910018534621, 0.012595903284689038, 0.011146073944590662, 0.009707313254637797, 0.00828206256971561, 0.006809378150081577, 0.005419265659970058, 0.004031801629411054, 0.002664423610312993, 0.0013084505775182954, 0.0