0.06167305689139218, 0.06150290475060759, 0.06138510282725073, 0.06130175484375758, 0.061218469017925776, 0.06115029154728416, 0.06106694295878447, 0.06102602702411125, 0.060987811647152806, 0.06096161972383512, 0.060940619981377474, 0.06096523313229215, 0.06094726099766488, 0.0609579994240251, 0.06094771288637447, 0.06094313614027416, 0.06089424542635488, 0.060905680891089595, 0.06089393876676998, 0.06091173023246342, 0.060930032937708385, 0.060950929653274026, 0.0609713553112453, 0.06103323710379951, 0.06105291557400805, 0.061077567946405543, 0.06105456699587138, 0.06109614620460842, 0.06117141423243913, 0.061214403293265246, 0.061262692377368574, 0.061341270325335984, 0.061397861348869716, 0.06139606116214674, 0.061476075165894116, 0.06156006108549001, 0.061688196251395266, 0.06177698435709052, 0.06183582864219063, 0.061945482293151194, 0.06206130869764618, 0.06217060514974536, 0.06230183666069254, 0.062420048082770324, 0.06256775462833893, 0.0627220080762182, 0.06290972038002367, 0.06307533404458975, 0.06324552675517862, 0.06343100004220313, 0.06362608728375405, 0.06380133952343255, 0.0640200096110718, 0.06428345311819102, 0.0645150025937225, 0.0647578891462416, 0.06500886057420825, 0.0652749725764408, 0.06556226896694609, 0.06584981761584129, 0.06614939982297903, 0.06642808050791155, 0.06675595664849455, 0.06708257164402097, 0.06743276849958989, 0.06779320702349843, 0.06817579179662002, 0.06855634298756774, 0.06894717027631117, 0.06935198155855488, 0.06976902533670969, 0.07020015276847019, 0.07064205715165606, 0.07105733674576112, 0.07153024528471913, 0.07201419344618229, 0.07255250314147853, 0.0730545317288137, 0.07353674575978558, 0.0740727480940596, 0.0746216696781113, 0.07517890393235631, 0.075755274076986, 0.07635676050718977, 0.07695915355837818, 0.07757638415100108, 0.07820204322122085, 0.07885031988568054, 0.07954654248072356, 0.08022086314877429, 0.0809124577302796, 0.08158336868894261, 0.08231413420937687, 0.08308134382742248, 0.08383976081314595, 0.08461500051672786, 0.08538903706052373, 0.08620050931499106, 0.08700667350382264, 0.08785332794899986, 0.08871538337315661, 0.08957181808828808, 0.09046853729557823, 0.09136241921518197, 0.09229247278975969, 0.09323768993189703, 0.09424966914627143, 0.09522027246685416, 0.09617736089736195, 0.09719095793418346, 0.09822206089288782, 0.09929232279144717, 0.10035640782299751, 0.1014068768711492, 0.10251378654653492, 0.10363816049218776, 0.10478684395711518, 0.10594604579947027, 0.10709409606990708, 0.10829416771362291, 0.10951128474668116, 0.11081001602880498, 0.11205399966237643, 0.11328485048111243, 0.11457581495066778, 0.11588568435677171, 0.11724083027382531, 0.1185851994165663, 0.119925242922371, 0.12131328183520991, 0.12271987956780764, 0.12411703015505494, 0.12556428196080577, 0.1270713298826162, 0.128547281212244, 0.13004294958057844, 0.13150374510685023, 0.13304506903780758, 0.13461560642008144, 0.13618757386539138, 0.13777675365331163, 0.1393749541356753, 0.14099971119249557, 0.14264127727757267, 0.1442996895075677, 0.1459749554307273, 0.14767858818125, 0.14938601952320957, 0.15112400040942678, 0.15286432255927299, 0.15462238333727563, 0.1563319786874177, 0.1581329469183193, 0.15998495676903968, 0.16180767164023735, 0.16364608094828684, 0.16549670616023898, 0.1673663562561487, 0.1692163252128764, 0.17111998679194176, 0.17303621419565196, 0.17496835416539067, 0.17690940396193136, 0.17885004047300312, 0.18081818517297968, 0.18279811317029176, 0.18482106524755548, 0.1868203744609948, 0.18880820631261375, 0.19083668734916484, 0.19287616980696654, 0.1949264299426665, 0.19698721989151574, 0.19905497473844175, 0.20113641136672328, 0.20322732501449522, 0.2053488353629404, 0.20745508178770025, 0.2095776490631663, 0.2117020029852492, 0.21383542367627206, 0.2159493436239886, 0.21810277325745508, 0.22025052242653984, 0.2224168132423615, 0.22458768629386894, 0.2267431244025907, 0.2289248930678411, 0.23112413944185772, 0.2333091673653235, 0.23549730455556234, 0.23770136757332963, 0.23989294646551193, 0.24207404707793378, 0.24427217434876028, 0.24647121845799544, 0.24869712140475672, 0.2508933963394585, 0.2530528772085121, 0.2552554724571412, 0.25745571722861893, 0.25964503855112286, 0.26184059266706444, 0.2639910658421559, 0.26618370387303264, 0.2683694328665935, 0.27055972552116353, 0.272729934527268, 0.27490999239193886, 0.27706453999139913, 0.2792225854746198, 0.28136258490003163, 0.283495693207362, 0.2856114010673884, 0.28773010609591027, 0.28987574334344657, 0.29197069911283563, 0.2940572893928377, 0.2960704157725635, 0.2981458961981801, 0.30021190329094727, 0.30225768284624943, 0.3042887948875629, 0.3063230010679439, 0.30832137518388486, 0.3103115250969909, 0.3122788561709681, 0.314230579442176, 0.31616935439091975, 0.3180875454056069, 0.3199439433400759, 0.32183249701843064, 0.32369996909122684, 0.3256103470248067, 0.32742669702654736, 0.32920654680269945, 0.33098755591050233, 0.33274745500132114, 0.33443780967705766, 0.3361595774588673, 0.33783091815818295, 0.33950415362006153, 0.34114979520844185, 0.34278586920931875, 0.3443736896238763, 0.34594437783454784, 0.34747653161115477, 0.3489814407732399, 0.3504652006640567, 0.3519133000397616, 0.35331820500485606, 0.35471089333016237, 0.35607328488166434, 0.3574181414538159, 0.35871701079638363, 0.3600064672429406, 0.36124042761281583, 0.3624436921541632, 0.36358921192926286, 0.3647323855674374, 0.3658776613742824, 0.3669475814116294, 0.3679846260675812, 0.3689617632063019, 0.36993441450160314, 0.37089387657788425, 0.3717907520731063, 0.3726519727982865, 0.3734177035055299, 0.3742135711700796, 0.3750200429913636, 0.3757285493829398, 0.37639948834321063, 0.37698793593758073, 0.37758806743552653, 0.378176541374396, 0.3786902837818471, 0.3791643278782724, 0.37955224811027716, 0.3799518572995961, 0.3803231614725827, 0.3806347444705035, 0.3809042220103769, 0.38116118274256877, 0.38134248907943763, 0.38150948715263505, 0.38160579558998864, 0.3816622867638009, 0.38164881829260927, 0.3816280152603549, 0.38154135429220964, 0.3814377769114581, 0.3812899126062997, 0.38110939708887603, 0.3808717986094528, 0.3805628304361756, 0.38024203400372464, 0.3798762789480841, 0.3794657888669567, 0.3790107676953553, 0.3785525915049228, 0.3780038503735499, 0.3774134164066645, 0.3767102712242224, 0.3760449214103755, 0.37535325498022787, 0.3745937274616716, 0.37379017425025945, 0.37299557838013825, 0.3720980834595079, 0.3711322715893125, 0.37015751578653255, 0.3691405600196714, 0.36810131156809595, 0.36699788244122017, 0.36583734529195183, 0.3646547590336755, 0.3634307010429782, 0.3621192664580675, 0.3608187909240846, 0.35948321512112524, 0.3580956630068465, 0.35666648527427675, 0.3552093777853042, 0.3536968139077664, 0.3521531058957149, 0.3505611093303299, 0.3489309440549586, 0.34727446161693337, 0.34556747285792583, 0.3438009004913622, 0.34202406455333373, 0.34020998806205843, 0.3384003694895559, 0.33650813561628434, 0.33451660624214063, 0.33256610212122545, 0.33057892131342803, 0.3285855211011415, 0.3265236151501385, 0.3244076060184114, 0.3222835299755442, 0.32012656355860397, 0.3179324528671575, 0.31571238719808936, 0.31348425863350776, 0.31119972517293343, 0.3088867591916145, 0.3065573967489601, 0.3041876348387068, 0.30179823907172737, 0.29937565651841297, 0.2969281678087014, 0.2944644700928428, 0.29196753589868296, 0.2894080830186613, 0.2868706689905095, 0.2843090425190581, 0.28175206669722724, 0.27914102630406573, 0.27653952941009885, 0.27388511172184354, 0.2712134591234973, 0.2684821318643341, 0.26578266024138464, 0.26309617579504146, 0.2603569810396288, 0.257602952354475, 0.2548149188134103, 0.2520355449589709, 0.24924703973639933, 0.24643971777957296, 0.24362024685902028, 0.2407976458812281, 0.23795518223645978, 0.23512644990256382, 0.23226312454160694, 0.2293932155597722, 0.22651233697785655, 0.223631586372824, 0.22070619284346532, 0.21782091643142262, 0.21492969313324928, 0.2120302553841471, 0.2091306103403521, 0.2061965334375814, 0.20329556721755795, 0.20039164707338347, 0.19755185617117912, 0.19463718857306125, 0.19165910906804773, 0.18876176427326477, 0.1858658073048347, 0.18298387039418235, 0.18009248213770218, 0.1772211176606327, 0.17433912364397794, 0.1714648875487774, 0.1685875876897409, 0.16573245289784838, 0.16294091322038912, 0.1600981439313577, 0.15726920933220292, 0.1544017058542532, 0.15160809880990792, 0.14886762304512147, 0.1460935412722554, 0.14333538331279125, 0.14060844464757383, 0.13788168170467704, 0.13516654252206325, 0.13247743893687794, 0.12973121580255273, 0.12708952894155748, 0.12446326905851887, 0.12187498618384324, 0.11928020066581688, 0.11672501278500612, 0.1141681541285933, 0.11163374484405306, 0.10912233679513983, 0.10663447370785485, 0.10418057614523021, 0.10174015056135098, 0.0993254046909264, 0.09692029247922436, 0.09456027746060819, 0.09224442838669462, 0.08993476753005634, 0.08765326637246675, 0.08540524322034412, 0.08318056353779037, 0.08093931541211863, 0.07877992519157485, 0.07664817292556955, 0.0746024253439709, 0.07252071936497616, 0.07046032379231001, 0.0684458680939242, 0.06646383862294261, 0.06453259109333714, 0.06261382242554567, 0.06072260774698109, 0.05887304716325754, 0.057057449152731934, 0.055231497002877016, 0.053489951392802854, 0.05185122227324742, 0.05016519129684666, 0.04851611618005442, 0.046844553008496256, 0.045276520357345994, 0.04374674361446217, 0.04224513211288697, 0.040777908260278085, 0.0393717307892092, 0.0379708113526589, 0.03660985288189641, 0.035281842348453975, 0.03399066842951563, 0.032754416666845164, 0.03153451175141018, 0.03030621373361058, 0.029167427696292676, 0.028063424710191232, 0.027004294899800954, 0.025969184772590585, 0.02501769363505187, 0.024048241190282316, 0.023117324211960708, 0.02222618101185659, 0.02137092636700204, 0.020546560059437603, 0.019766743844318237, 0.019023350929859868, 0.018360599322511776, 0.017683638094823827, 0.017010217520901445, 0.01641329730755501, 0.015851396451540167, 0.015400052257553191, 0.014897859430264226, 0.014363344447384534, 0.013946288649619616, 0.013562121877018654, 0.013276584877306064, 0.012949366446561264, 0.012689510908455149, 0.012429718130456232, 0.012206320895411986, 0.012008541910120742, 0.01185657946859517, 0.011769286821629364, 0.011679473590607885, 0.01162356933029974, 0.011632070021743908, 0.011637663504662141, 0.01167502418528391, 0.011746753345961423, 0.011850071199055245, 0.01198422164453686, 0.012148501366171537, 0.012418039790704601, 0.012631064320705612, 0.01287661474861028, 0.013150234286410387, 0.01345786888962759, 0.01385066701424329, 0.01420864853900216, 0.01459725767448114, 0.014995534258306385, 0.015444436310387468, 0.015945957247635537, 0.016443298548636985, 0.01696694316308988, 0.017575347989919672, 0.018141604452817456, 0.018717001174213276, 0.019338922897350723, 0.01998489004211179, 0.020710108849748166, 0.02139471834041999, 0.02207461536907307, 0.022811769505193202, 0.023570118273893347, 0.02440171551016581, 0.025193833441543773, 0.02600329727553451, 0.026839651377790746, 0.02769616867321232, 0.02860667915395475, 0.029496904296331294, 0.030474653661705604, 0.031395404054357895, 0.03233822770440685, 0.03330019347960649, 0.034283648577460434, 0.03532184830856707, 0.036336791254986, 0.037370502366924026, 0.038405456484229356, 0.03947574415077811, 0.04056927166895687, 0.04166789075744509, 0.042780770186796255, 0.04394851112614772, 0.04508299570943283, 0.046255511451247, 0.04741623640607763, 0.048591750496628394, 0.04975982373778231, 0.050965273143301494, 0.05225131635997708, 0.053470400733684385, 0.054703983943365724, 0.055916575170117395, 0.05718095258737335, 0.058503276937575975, 0.05978160520422292, 0.06107213075361617, 0.062403850916033225, 0.06371312378653113, 0.06499002367739443, 0.06632845376463897, 0.0676752066768384, 0.06908942458823121, 0.0704448409957411, 0.07180817673625361, 0.07318585791977811, 0.07457348357598141, 0.07596405440421439, 0.07737123332277752, 0.07880669962686578, 0.0802282152684371, 0.08165899861867056, 0.08311358984443808, 0.08456021996988762, 0.08604259018743306, 0.08750437326088537, 0.08897652014003235, 0.09040756956731397, 0.09190580663161188, 0.09344846876464212, 0.09495518584179302, 0.09647097577851757, 0.09801715816743718, 0.09954812807486427, 0.10108094880949363, 0.10263296898317392, 0.10419432820219973, 0.10579137929891327, 0.10736809305058057, 0.10892933632663866, 0.11053103279438552, 0.11214192988401384, 0.1137836238677821, 0.1154107646479025, 0.11705218339429489, 0.11870092238221212, 0.12036096067970442, 0.12203897483238271, 0.12372106873822754, 0.12543000914265665, 0.1271343841311303, 0.12885187708213844, 0.1305594792690596, 0.13230633439138426, 0.13404717543346134, 0.13582088951828547, 0.13760640140658903, 0.13941904635552024, 0.1412277884325454, 0.14307041575129031, 0.14490524118197215, 0.1467461182936528, 0.1486142728157196, 0.150498244964584, 0.15237694862037984, 0.15429626991842105, 0.15625429793887655, 0.158202517641703, 0.16016872405408206, 0.16217465629007274, 0.16417510366461327, 0.1662122138745762, 0.16825113540831288, 0.17031156418328486, 0.17233759187634046, 0.17444848231825041, 0.17658971142343927, 0.17873742425334807, 0.18090590112310248, 0.18308578184562108, 0.1852986007323766, 0.1875957781015141, 0.18984475930291939, 0.1921201352271727, 0.19440711291810214, 0.19673730429297806, 0.19906693717866789, 0.20145234509309598, 0.20386265258780076, 0.2063016796779013, 0.2087629315861271, 0.21128540273734495, 0.21379598330012448, 0.21633604072178164, 0.21883819267013072, 0.2214462704443303, 0.2241217971234657, 0.226777965940717, 0.22946421163565187, 0.23217758831096436, 0.23492544971242246, 0.2376729400252116, 0.24048699013999117, 0.24333094102678723, 0.24619386212686958, 0.24910083947284625, 0.2520387601348132, 0.2550082073459112, 0.2580097203946803, 0.26106851087273986, 0.2641324888483169, 0.267221419388412, 0.2703565170860612, 0.2735262804863192, 0.2767457989240319, 0.27998378689573117, 0.28327942606175666, 0.28658726674496915, 0.2899327309645713, 0.29330091139122166, 0.29672327783263186, 0.30017895559441926, 0.303675038630767, 0.30720771290773385, 0.31072765565342186, 0.31434006140272375, 0.31802775160146696, 0.3217036099270102, 0.3254167511236169, 0.3291507189572411, 0.33294055445133314, 0.33674205631650306, 0.3406078896365856, 0.344508914418873, 0.34847504106605315, 0.35244341152066966, 0.35648220039746564, 0.36052121089641903, 0.36459926732567655, 0.36864345840416224, 0.37280753257794363, 0.3770432731985791, 0.3812703134401972, 0.3855336127981394, 0.3898247192337763, 0.3941609188132123, 0.3985058619942754, 0.40291540491306044, 0.40735815161411276, 0.4118093534755354, 0.4163214754754713, 0.42092776669560406, 0.42549512075890694, 0.4300975297045601, 0.4346997875212869, 0.43937486336827647, 0.44409936775570547, 0.4488344457567935, 0.45360117692743773, 0.4583677282382333, 0.46320012134124994, 0.46804101228209405, 0.4729321241167814, 0.47784971469001986, 0.4827885956658763, 0.4877589721293479, 0.49280571276620644, 0.4978198416589341, 0.5028613332154929, 0.5079128302860225, 0.5130084911850453, 0.518085125897212, 0.5232330865035348, 0.5284009659616786, 0.5336295309756168, 0.5388307179914757, 0.5440197519892406, 0.5492657885441009, 0.5545289452176297, 0.5598448115797433, 0.5651356189623382, 0.5704023120834841, 0.5757314215380295, 0.5810731911672155, 0.58637912896542, 0.5917500809404346, 0.5971633566084831, 0.6025449480632317, 0.6079352545397189, 0.6132856326719063, 0.6186967848684107, 0.6241310566148219, 0.6295458412446501, 0.6349638807164899, 0.6403612477898675, 0.6457860886628446, 0.6512431408857271, 0.6566615530810362, 0.6620794554865072, 0.6674265036591261, 0.6728486818150082, 0.6783338385477863, 0.6837307105178904, 0.6891223813821759, 0.6944844546134836, 0.6998646560499499, 0.7052212165968222, 0.7105810446734245, 0.7159274202102204, 0.7211966958971294, 0.7265209343246686, 0.7318299543033552, 0.7371126411052972, 0.742374155305747, 0.7476169964084483, 0.7528333031397844, 0.7579815816365804, 0.763155443054119, 0.7683012650349613, 0.7734018784414894, 0.7784915499347455, 0.7836175132730755, 0.7886353729437734, 0.7936241861657367, 0.7985644052802912, 0.8034931589873443, 0.8083695009336935, 0.8132307383929531, 0.8180542085473038, 0.8228371783739107, 0.8275820496127652, 0.8322313906241015, 0.8368997013651658, 0.8415215668295083, 0.8461440751173788, 0.8506648794622853, 0.8551116731743905, 0.8595427862473761, 0.8639238799379149, 0.868206194306506, 0.8724903299259743, 0.8767154807858353, 0.8808880183608395, 0.885003356794547, 0.8891118604690912, 0.8931041725298339, 0.897016836748758, 0.9008976714627884, 0.9047181975709644, 0.9084658911639255, 0.9121642879868674, 0.9157427510935047, 0.9193195127462438, 0.9228274452054824, 0.926251285693035, 0.9296220763465173, 0.9329365763091628, 0.9361628019108317, 0.9393177878894546, 0.9424486542755393, 0.945453126927178, 0.9483260589932225, 0.9511959939545486, 0.9539898056898055, 0.9566938068820786, 0.9593354974182637, 0.9619316992316392, 0.9644118977475361, 0.9668310680015992, 0.9691534304589688, 0.971397745569263, 0.9735236414633108, 0.9756144095065828, 0.977582999923008, 0.9795131013931928, 0.9813575609967592, 0.9831014770875097, 0.984776271437867, 0.9864087556610014, 0.987904298068694, 0.9893154306724657, 0.9905955670007653, 0.991842370622401, 0.9930239486027158, 0.9940912446796103, 0.9950715070535707, 0.9959430901334688, 0.9967513236888823, 0.99744432028757, 0.9980781242913037, 0.9986215501651955, 0.9991456419024123, 0.9994999318194986, 0.9997090467138818, 0.9998986877267008, 0.9999983582589397, 1.0, 0.9999213075452543, 0.9997691939968191, 0.999508875616349, 0.9991600846008274, 0.9987130546789789, 0.9981889466259016, 0.9975976516311467, 0.9968938917757642, 0.9961032755300676, 0.9952045092668237, 0.994243300015974, 0.9931813404176378, 0.992047067559788, 0.990825319780701, 0.9895364143055165, 0.9881388614514011, 0.9866401228048542, 0.9850756388975376, 0.9834263632774858, 0.9817192552175523, 0.9798988723050919, 0.9779574724998421, 0.9759795661995275, 0.9739188657109374, 0.9717465455128174, 0.969526496022617, 0.9672393067646836, 0.9648545206411288, 0.9623907217460178, 0.9598817715224767, 0.9572585126598876, 0.9545328153903065, 0.9517648884178941, 0.9489223002848164, 0.946052133919364, 0.9430572543047997, 0.9399404615359044, 0.9368144716277079, 0.9336176034398994, 0.9303658264576786, 0.9270287491419273, 0.9235953886029025, 0.9201298252238059, 0.9165980259620572, 0.9129913972684883, 0.9093322381250178, 0.9056463729210339, 0.9018580674311591, 0.8980115091961941, 0.8940500553412271, 0.8900973711028335, 0.886117640590989, 0.8820458584052935, 0.877920566272283, 0.8737545387988608, 0.8695244990889546, 0.8652305098024641, 0.8609052670589454, 0.8565324197409756, 0.8521363533733205, 0.8476693423123134, 0.8431517492036206, 0.8386022324305948, 0.8340122182060268, 0.8293664894539547, 0.8247013524898905, 0.8199821345992637, 0.8152452999442557, 0.8104727906192599, 0.8056579220093864, 0.8008197436653341, 0.7959566184865922, 0.791056096964334, 0.7861275132926107, 0.7811789248350572, 0.7761977731313167, 0.7711965905726423, 0.7661697515719282, 0.761122531426917, 0.7560233291687732, 0.7509435629302156, 0.7458159617179614, 0.7407052018045155, 0.7355777954683423, 0.7304239992098382, 0.7252700678475199, 0.7201402871876849, 0.7149593054458704, 0.7097716524602978, 0.7046181943322947, 0.6994161654100909, 0.6941477298597286, 0.6889540023001868, 0.6837580604229245, 0.67860595438199, 0.6734046175408573, 0.6681768368311387, 0.6629902687325167, 0.657808998526164, 0.652599791473197, 0.6474375576197473, 0.6423024686964701, 0.6371540557705879, 0.6320172143887943, 0.6268668892506405, 0.6217604114513743, 0.6167288171782914, 0.6116439182513835, 0.6065791886892489, 0.6014712244997864, 0.596457524537985, 0.5914975841090216, 0.5865192409826389, 0.5815647629603238, 0.5766467064163808, 0.5717415576395235, 0.5668458279040658, 0.5619989434522759, 0.5571803588525711, 0.5523680356132881, 0.5476120239436126, 0.5429057971562901, 0.5382084559921128, 0.533544475526987, 0.5288570849658132, 0.5242697739023059, 0.519771217492822, 0.515243592619353, 0.51075435485189, 0.5062778333978565, 0.5018707600078411, 0.4975125117685144, 0.49318293151851894, 0.4888945317361155, 0.48461341871765184, 0.480413840879711, 0.47623411659389864, 0.472120692513792, 0.46804908306357507, 0.46403672166192084, 0.46004945816698234, 0.4560927623317774, 0.4521987822542181, 0.44835055722498757, 0.4445470917322575, 0.44079248735671556, 0.43712817960332606, 0.4334635946319462, 0.42984985674023085, 0.42628869451868634, 0.4227766879685346, 0.4192450250813446, 0.415844420106947, 0.41249116295143057, 0.4092138948214115, 0.40595361569866445, 0.4027587619267534, 0.3995980001239895, 0.39648902951962506, 0.39341538891554345, 0.3904121112557056, 0.38746958256785563, 0.3845668834385225, 0.38171577252444017, 0.3789030282245431, 0.3761566167114765, 0.37343451066360955, 0.3707927705174934, 0.36820019736022447, 0.3656866018552171, 0.3631890224113756, 0.36073763329771663, 0.35834270521647343, 0.3560212037336554, 0.353723850821735, 0.351477671889535, 0.3492294897911263, 0.347090960389329, 0.3450009348803252, 0.3429558833117962, 0.34095767351463474, 0.33902593209654025, 0.3371184297502219, 0.335248430388347, 0.3334365258312896, 0.331670581114735, 0.3299798701333989, 0.3283009249159112, 0.32660248244225126, 0.325023985612592, 0.32348681763248843, 0.322050141153682, 0.32058762482973713, 0.31913289631031166, 0.31776223615404675, 0.3164319996665479, 0.31515653413584066, 0.3139038008727174, 0.3126413745065223, 0.3114736791323115, 0.31034158052281113, 0.3092480784654305, 0.308185814212184, 0.30715333803147715, 0.3061606826587438, 0.3052014860950441, 0.30431312831085033, 0.30341448069781085, 0.30251517129847577, 0.3016878510473297, 0.30089069548523656, 0.30010825400225954, 0.2993714079873634, 0.2987163187518844, 0.2980268003075431, 0.29736653893825793, 0.2966899763498531, 0.2960906563944701, 0.2955363703762626, 0.2949809325274801, 0.2944490057599836, 0.2938837158102193, 0.293403322334097, 0.29295226310034905, 0.29250561500636435, 0.2920765638495729, 0.2917172384542412, 0.2913149078259367, 0.2909246780796112, 0.29055946600159055, 0.2902104139097511, 0.2898304092526601, 0.28951658628607074, 0.28920850914402596, 0.28891613663366533, 0.2886330439070061, 0.2883833787444056, 0.2881139984893788, 0.2878353897132622, 0.2875852557945358, 0.2873413390951355, 0.28712767998710015, 0.28689104532293264, 0.2866187811380603, 0.2863975771844823, 0.2861778513753913, 0.28593930944643137, 0.285723445751594, 0.2855788069982615, 0.285350822460962, 0.28512476325773656, 0.28485672845679405, 0.2846367894198636, 0.2844363843515714, 0.2842058812478337, 0.28397196866175656, 0.2837338720435289, 0.2834908399826579, 0.2831877745967572, 0.2829395795384339, 0.2826812732126304, 0.28241097739292137, 0.2821319296684428, 0.28186824617236184, 0.28156356400613647, 0.28124872378916077, 0.28092151418657896, 0.2805848850037788, 0.2802462305164519, 0.27988401265940976, 0.27950941405919033, 0.2790856134345615, 0.2786891312162938, 0.2783325880791199, 0.2778966485416175, 0.27744731901945485, 0.2769591878613223, 0.27648415356351813, 0.2759857927304827, 0.275477749855973, 0.27495187660992565, 0.2744161226778708, 0.2738526909230536, 0.2732232725891097, 0.27262913681444995, 0.2720134716067971, 0.2713895478021904, 0.27072939865032014, 0.2700667680317926, 0.2693630257070373, 0.2686395052923632, 0.26790090342036466, 0.2671364814870955, 0.26634198826850924, 0.2655382108938274, 0.26471324874942603, 0.26388676283775814, 0.2630166147329614, 0.2621063278783749, 0.26119771052372615, 0.26026718310142716, 0.2593312108398957, 0.2583547594489275, 0.2573177807668049, 0.25630424357307685, 0.2552673033049136, 0.25423028401040415, 0.2531443822344766, 0.2519992128459371, 0.25087539049049806, 0.24972815656355266, 0.24855458838513111, 0.24736204242945814, 0.24617825579939207, 0.24493700534853738, 0.24367563372868997, 0.24237113528506748, 0.2410726376755937, 0.23977932536609783, 0.2384354491778625, 0.2370724827122111, 0.23566085651054688, 0.23426374269257122, 0.23285279693119235, 0.23141440174576094, 0.2299567383226896, 0.2285032009157095, 0.22700507298165634, 0.22544383343046348, 0.22391772856440348, 0.2223723843797331, 0.22082320333997804, 0.2192392073088769, 0.2176648245973308, 0.21604439835701836, 0.21440949949897847, 0.2127636107615103, 0.21109994159372855, 0.20941604124747368, 0.20772616423994655, 0.20602278456132223, 0.20432107450838102, 0.20258986403920304, 0.20078939929374204, 0.19904256809200105, 0.19728147639698507, 0.19551844198995527, 0.1937296913293249, 0.19193617147700645, 0.1901244668660665, 0.18830295502822333, 0.1864886305988705, 0.1846469750264049, 0.18275185219280043, 0.18090173312278243, 0.1790424553515363, 0.17721927589780748, 0.175338342607243, 0.17342331226050975, 0.17153756832936423, 0.1696463830730217, 0.1677585917384555, 0.16585726117776173, 0.16399389267810482, 0.16208139577093517, 0.16016897047130152, 0.15823535850534545, 0.15632630308199258, 0.1544002356694328, 0.15249262889571003, 0.1505844455497399, 0.14866803217265273, 0.14676147833941106, 0.14486219441052514, 0.14295678449383925, 0.14105364141427434, 0.13918624579347574, 0.13728505100682967, 0.13538459312377146, 0.1334956218603909, 0.13158290122705293, 0.12970981835579132, 0.1278416442378338, 0.12599709285647132, 0.12413819886647989, 0.12225729168770333, 0.12041782296466709, 0.11858511566329384, 0.1167713341774118, 0.11495255683989646, 0.11313311101033682, 0.11133447299492841, 0.10954539648344354, 0.10780758090836579, 0.10603393150916261, 0.10421266692832215, 0.10247353206540719, 0.10074458251035537, 0.09904788930679972, 0.09733851817865286, 0.09561765368151229, 0.09393820689548411, 0.09227130062105895, 0.09067018966745467, 0.08902326306080294, 0.08739168275906255, 0.08577896108400623, 0.08418318265912825, 0.08257805405720182, 0.08101971301421283, 0.07949520722968048, 0.07796632101033886, 0.07645479080696024, 0.07495746518964481, 0.07348149747782817, 0.0720313770154404, 0.07058976229523117, 0.06916656658858007, 0.06773388297505153, 0.06635137334497253, 0.0649860227289631, 0.06363816309749629, 0.06230809794086345, 0.06099116133402644, 0.05969811483563912, 0.058457939422200456, 0.057197309133656914, 0.05595735750490495, 0.054673747199445816, 0.053483038031481266, 0.05234048650422934, 0.05117998971093334, 0.050038968654058026, 0.04896365252492259, 0.0478560271842643, 0.04674599607736439, 0.04568578721489523, 0.044645884300053784, 0.043650934655255415, 0.04264832118609007, 0.04164084013709671, 0.04068427702556118, 0.03974721220049942, 0.03881809690469197, 0.0379214285960301, 0.03704518029744905, 0.03618589488640104, 0.03534554543730334, 0.03451423796890817, 0.03371296646241554, 0.03297118659249071, 0.03220133481128567, 0.03145211519984481, 0.03070339980855337, 0.029996891480722394, 0.029322070368353707, 0.028650762903636662, 0.027998402247320517, 0.02734330439407521, 0.026730753565750175, 0.026135167066274785, 0.025556466236253957, 0.024994553918544524, 0.02446084839267546, 0.02393069533558512, 0.023450537891529538, 0.022950056039634147, 0.02246796204133133, 0.02200867808205939, 0.02156120460459706, 0.02113586739595705, 0.020721679465010082, 0.020324035645542377, 0.019977068171956176, 0.019606766100155788, 0.019204200924471122, 0.018873799315419017, 0.018556489467983515, 0.018286690925997034, 0.017990646252876354, 0.017756854560821645, 0.017483238731390686, 0.017225848340362507, 0.016980577614100285, 0.016753692137086183, 0.016547206624586728, 0.016346511052959495, 0.016158848723888994, 0.016049559748514013, 0.01587799126513245, 0.015706769069802944, 0.015566449784162491, 0.015438621162030116, 0.015330848946834442, 0.015225006781953777, 0.015126987303455575, 0.015043226610707358, 0.01496930936064941, 0.014985518737464686, 0.01491978078834394, 0.014847417265784407, 0.014809474365379815, 0.014781684309817581, 0.014809544233961304, 0.014794391252990945, 0.014791915781064613, 0.014797785892214522, 0.014813213426515722, 0.014885309572417781, 0.014911884163396324, 0.014929142603399755, 0.014978275904066184, 0.015035155252375296, 0.015142116143773024, 0.015207630674360838, 0.015303386440771786, 0.015383156333667776, 0.015471669885352484, 0.015599535267236671, 0.015699582001784562, 0.015854432032547962, 0.015965283017957597, 0.01608607420439943, 0.01621425815380571, 0.01635255945651999, 0.01651153967526752, 0.016662611396528266, 0.016820885367552867, 0.017043519081413796, 0.01720746818084038, 0.01738056882682575, 0.017562066361888073, 0.017751319840346547, 0.017952732539041075, 0.018155345620709997, 0.01838111138331805, 0.01859466005869027, 0.018815207337749076, 0.019062184660408498, 0.019293282752071712, 0.019577806107310837, 0.01981735049761005, 0.020066227935788987, 0.02034201133399343, 0.02060571412384816, 0.02090476891786347, 0.021182697083912547, 0.021470336866137786, 0.021754041629410227, 0.022061469796311527, 0.022396523989181096, 0.02271706606705342, 0.02304643428816111, 0.023407543534687308, 0.023751259554771417, 0.02414272175192505, 0.024501187163449917, 0.024871369404062194, 0.02521997604266235, 0.025616824329411373, 0.02605408257408663, 0.026465355572507534, 0.026887862310050106, 0.027377596767190825, 0.0278154778150264, 0.028229938312021502, 0.028701233771954066, 0.029184325939570915, 0.029687614987123676, 0.03019378476770424, 0.030730934230484327, 0.03126072423201504, 0.03180481854746961, 0.03236662929174011, 0.032939311523674, 0.033513783145096315, 0.03411828148835641, 0.03473746476611936, 0.03534370581621083, 0.0359969565670759, 0.0367122803706878, 0.03738872032127596, 0.03810811217337372, 0.03881812515669294, 0.03954823507367208, 0.040293579808520746, 0.04106479956531482, 0.04183315837405487, 0.04264795738826051, 0.04348220451668267, 0.04434298647753821, 0.04521678718837647, 0.04610036483828023, 0.04701868756933339, 0.047958567560668894, 0.04896009361313149, 0.0499397251502964, 0.05092663220380028, 0.05195956096818889, 0.05301732206475781, 0.05411186537894887, 0.0552190925429953, 0.05634813134608989, 0.05750983729560314, 0.058698727119791794, 0.05995310981562952, 0.06119283088293493, 0.06244995074902911, 0.06375262675518557, 0.06508544469088734, 0.06646354789432618, 0.06785574139520151, 0.06924860948625502, 0.07070896464634172, 0.07220006446952223, 0.07373893503735746, 0.0752910825253398, 0.07688640457838382, 0.07850426732080712, 0.08015675300838246, 0.08184088399669764, 0.08356399738725612, 0.08528299661524648, 0.08708233857839505, 0.0889156427216855, 0.09082150065437715, 0.09271999385928714, 0.09465985135768888, 0.0966343507659536, 0.09864767917678882, 0.1006935148865345, 0.10278614604901576, 0.10495265682912346, 0.10711981134910895, 0.1093288542097638, 0.11151557777097881, 0.11381668799726988, 0.11619748721737048, 0.11857102547949791, 0.12098659780166578, 0.12343123603721572, 0.12593317915534036, 0.12847210839429277, 0.13105884723424588, 0.1336878468512649, 0.1363841391062496, 0.13909547042678747, 0.14181674325274804, 0.14462158546895393, 0.14746914406692482, 0.15035152350357084, 0.15328654909170866, 0.15629111628900563, 0.1593094832890363, 0.16237309822690502, 0.16547704689580064, 0.16863186113671774, 0.17183171024165966, 0.17507663993956898, 0.17836668213589377, 0.18167878920856248, 0.18506201211653653, 0.18854178497531182, 0.19200615989837017, 0.1955176056095859, 0.1990313024181748, 0.20264152443525024, 0.20632172643217034, 0.21001592298048283, 0.21375532110048576, 0.21751005445318056, 0.22134296804636716, 0.22523195046667116, 0.22914898351462037, 0.23310962461950177, 0.23713841601922533, 0.24118261543538347, 0.24523993237823735, 0.2493765004886382, 0.2535548762433653, 0.2577485277596958, 0.2620133073643757, 0.2663606471475378, 0.2706994122923628, 0.27508015888590004, 0.27946449993870603, 0.28393251601170383, 0.2884652547317554, 0.29300645904301065, 0.2975870545342356, 0.3022493764697353, 0.30690182384837844, 0.3115154451933932, 0.31625751973946487, 0.3210336751373741, 0.32583383330337573, 0.33067876385849704, 0.33554658727860043, 0.340458048727842, 0.34540112668837036, 0.35036398374226374, 0.35537078035397773, 0.3603975758477143, 0.3654650158645745, 0.37056097814097594, 0.37573118761889646, 0.38087708498288214, 0.38605599962353615, 0.39125998657931244, 0.39649200528303147, 0.4017280268391779, 0.40701613801077713, 0.41230833328384303, 0.4176458806600329, 0.42300460480884644, 0.42840856045076664, 0.433804498659011, 0.4391648928082312, 0.44460789013937774, 0.4500662736450999, 0.455597176032196, 0.4610773855101355, 0.46655137700666416, 0.47206703219415214, 0.47759591940303525, 0.48313213500728264, 0.48868521283694055, 0.49423184207183446, 0.499806092446866, 0.5053874995252217, 0.5109768459475277, 0.5165697322860124, 0.5221556496218388, 0.5277581579717402, 0.5333626335577683, 0.5389286225206783, 0.5445392631397101, 0.5501731866630518, 0.5557736624144184, 0.5613711252619077, 0.566971160021761, 0.5725587243344711, 0.578077955189107, 0.5836608593460667, 0.589232269159991, 0.5948426206286528, 0.6003826013892055, 0.6058673552280942, 0.6113902364658472, 0.6168974046478587, 0.6223649170538735, 0.6278409013249272, 0.6333267794906128, 0.6387586856781233, 0.6441708324411543, 0.6495324227917646, 0.654905365253788, 0.6602517815564426, 0.6655742453308557, 0.6708698438247321, 0.6761128825773517, 0.6813549030881865, 0.6865277542549194, 0.6917111588408295, 0.6968594088866455, 0.7019883509629561, 0.7070622532060471, 0.7120718314640098, 0.7170756980908207, 0.7220397564682761, 0.7269599356992134, 0.7318424175421308, 0.7367499869627686, 0.7415381283693292, 0.7462858117661711, 0.7509487194788695, 0.7556165017110262, 0.7601827379300031, 0.7647620278834985, 0.7692890606783468, 0.7737846720415377, 0.778202681324713, 0.7825792654691268, 0.7868890044816882, 0.7911149716415768, 0.7953192164378612, 0.79946566319625, 0.8035947396252734, 0.8076180797721152, 0.8114913313926103, 0.8154095420648716, 0.8192624965796544, 0.82306303779971, 0.8267827395323124, 0.8304548585913604, 0.834040253570664, 0.8375597260485441, 0.8410025948525031, 0.8443890865369735, 0.8477083697672064, 0.8509562385460203, 0.8541339376930288, 0.8572045065387729, 0.8602443104907096, 0.8632476791703199, 0.8661336352421594, 0.8689465658703448, 0.8716890184228329, 0.8743532616722759, 0.8769029506414407, 0.8794214633490077, 0.8818613649946768, 0.8842338584198359, 0.8865140782938998, 0.8887482639262616, 0.8908659011100745, 0.8929055198010301, 0.8948021771238046, 0.8966918622908399, 0.8984535095539876, 0.9001816708450466, 0.9018236792089895, 0.9033995813955301, 0.9048675545897985, 0.9062676213793105, 0.9075647140372348, 0.9087782659001706, 0.909931149014042, 0.9109741318793607, 0.9119063099165633, 0.9127868956575069, 0.9135824608135138, 0.9142847228806996, 0.9149111623650265, 0.9154602494397207, 0.9159145196932059, 0.9162837728186018, 0.9165465906670021, 0.9167485350566132, 0.916874200115886, 0.9169027945656463, 0.9168462366249034, 0.9166799642506063, 0.9164566934976424, 0.9161572659104893, 0.9157610575216096, 0.9152801475916377, 0.9147280227690094, 0.9140769716391336, 0.9133346696260826, 0.9125188668826915, 0.9116200821742623, 0.9106254886894302, 0.9095634855444116, 0.9084402955727918, 0.9072108919521772, 0.9059011270251788, 0.9044701734057312, 0.9030060081675775, 0.9014949451926952, 0.899864197938399, 0.8981554536304925, 0.8963115346963184, 0.8944555744650511, 0.8925528759845202, 0.8905344056833089, 0.8884401330887768, 0.8862295825467391, 0.8839910627810904, 0.881699668126495, 0.8793074319484421, 0.8768426839693262, 0.8742799088715352, 0.8716760103010804, 0.8689957280267294, 0.8662506463963977, 0.8634359765694672, 0.8606005784171161, 0.8576439191828963, 0.8545873066545352, 0.8515084742046144, 0.8483652587767224, 0.8451158539091486, 0.8418523770313536, 0.8385976948890689, 0.8351990373476084, 0.8317434702972738, 0.8281872348621138, 0.8246256907174654, 0.8209938625926227, 0.8173209826207267, 0.8135926607507581, 0.8098332581368985, 0.8059950050579395, 0.8021080877894026, 0.7981700673771379, 0.7941839692321578, 0.7901706401577927, 0.7860891299206193, 0.7819144959254688, 0.7777527973176805, 0.7735465745457487, 0.7693186620158613, 0.7650249101380515, 0.7606969644469768, 0.7563255005234522, 0.7519175554438706, 0.7474594600285774, 0.7429839142182506, 0.7384251366763752, 0.7338895365919341, 0.7293199659283464, 0.7247345925947952, 0.7201000207291071, 0.7154340269679617, 0.7107450297754342, 0.7060305205318728, 0.7012820071412237, 0.6965218804467693, 0.6917579237162221, 0.6869530111074355, 0.6821299589479017, 0.6773130481852054, 0.6724544435022699, 0.6675645071591529, 0.6626827967720472, 0.6577889214262038, 0.6528610195180787, 0.6479493397832702, 0.6430129766821437, 0.6380848414551812, 0.6331487536132114, 0.6281962767169003, 0.6232498419996616, 0.6183370290481393, 0.6133786835812397, 0.6084210006741604, 0.6034073595624461, 0.598461425575289, 0.5935193527775788, 0.5885756492405753, 0.583635669385514, 0.5787073821947649, 0.5737781079317448, 0.5688470467667329, 0.563936419616948, 0.5590357080716859, 0.5541889717101819, 0.5493063109826362, 0.5444444800980882, 0.539593749737923, 0.5347607599040587, 0.5298919090444815, 0.5251035901541021, 0.5203800807218479, 0.5156210221093149, 0.5108841074964356, 0.5061338552720419, 0.5014481103342959, 0.4967534814078312, 0.49211760081389205, 0.487504482819094, 0.4829054916887966, 0.47834283330779, 0.4738339521860879, 0.46932044138215023, 0.46483651144130494, 0.460379674684903, 0.45595772041245514, 0.45158892863899447, 0.44722851758568605, 0.44290255193591593, 0.438613219261046, 0.4343575539482716, 0.4301232106394826, 0.42594223577570667, 0.421797606137406, 0.417699831937133, 0.4136284961963089, 0.4095843379409084, 0.40559236219202366, 0.4016394011108972, 0.39771117805383965, 0.3938397505374851, 0.3899982019838664, 0.38620815194358327, 0.38245847206717437, 0.37871516897052265, 0.3750523740864644, 0.3714461667149612, 0.3678622697519744, 0.3642961376667888, 0.3608008060780613, 0.35734748937336347, 0.3539549050057558, 0.3505850452429231, 0.3472894663176502, 0.34400537513866836, 0.3407680753858903, 0.3375462279335335, 0.33440636059336276, 0.33132295004532064, 0.3282716829955991, 0.3252663726234514, 0.32229883020822103, 0.3193866015365162, 0.31653478225357023, 0.3137118985084575, 0.3109355149044324, 0.3081890411806591, 0.3055073865341922, 0.3028215069380085, 0.30023649052981694, 0.2976938470409548, 0.29519390613378943, 0.2927369227242346, 0.2903329680519041, 0.28796114437446935, 0.28563320557362015, 0.2833441396800357, 0.28110434757490194, 0.27891113314112687, 0.27675734873687985, 0.2746467132685955, 0.27257239827462043, 0.2705481505905545, 0.26859883465672346, 0.26665411831080216, 0.26475267382816015, 0.26290380057400314, 0.26108590017186895, 0.2592606646065281, 0.25753254895153155, 0.25584247109383174, 0.25420173954915654, 0.2525855666177916, 0.25099246183823426, 0.2494535281743517, 0.24795078349839525, 0.24648882362343347, 0.24505675940617153, 0.24362707633085473, 0.24226936609451502, 0.2409441661837043, 0.23966275889659744, 0.23840031973358966, 0.2371767302997368, 0.23597749600040488, 0.2348099026533181, 0.2336898413389738, 0.23258167892013853, 0.23147462983147918, 0.2304309970654289, 0.22941495835260364, 0.2284391842349309, 0.2274751125370837, 0.22655754215628746, 0.2256437480695143, 0.2247564202862316, 0.2239161236840557, 0.22307647714169582, 0.22220102717400264, 0.22141841719427885, 0.22065561140490114, 0.21991218145351205, 0.21918766541443924, 0.2185161694072611, 0.21782360326267747, 0.21715033814534201, 0.21647905583860144, 0.21584396274476775, 0.2152033447173634, 0.21460207826321537, 0.21401416380110452, 0.2134440411410254, 0.21288067336206262, 0.2123540704976648, 0.2118110756895094, 0.21128029628815043, 0.2107806775157105, 0.210269370626975, 0.20974260270330103, 0.20925549217262024, 0.2087759646756018, 0.20830006720237507, 0.20783415153023124, 0.20733907108694002, 0.2068877752075374, 0.2064387283410164, 0.20600147392971369, 0.20555461729261745, 0.20512097800734266, 0.20467552502406075, 0.2042313774813058, 0.20379285684840873, 0.20334883595924796, 0.20286006403368942, 0.20242048574321203, 0.20197686100256035, 0.2015256273866259, 0.20107349088731472, 0.20064588079698906, 0.20017940818232988, 0.1997087901864877, 0.1991806942826062, 0.198706629540146, 0.1982664994669908, 0.19776906620249504, 0.19726479635609598, 0.1967333516894277, 0.19621621840205414, 0.19571748431957495, 0.19517722440493185, 0.1946281870147464, 0.19403517267643441, 0.19347117771575126, 0.19287332051915074, 0.1922868984153516, 0.19168632583596595, 0.19111599248349395, 0.1904811860512321, 0.1898014160698895, 0.18914622932145347, 0.1884761674312961, 0.18777620266081735, 0.1870776590224335, 0.18639409425362033, 0.18565885045362293, 0.18490883672626615, 0.1841370906241226, 0.1833572754487117, 0.18255138412555325, 0.18174018238164433, 0.1809117398693856, 0.18006590977959208, 0.1792025498278439, 0.17837259703273445, 0.17746731680492087, 0.17654698467400395, 0.1755616505601429, 0.17461595190060622, 0.17364608844071147, 0.17266261064454794, 0.1716597123140123, 0.17065559454965962, 0.16961179445073807, 0.16853169245291377, 0.16745375108305707, 0.16635648270291178, 0.16526141254476953, 0.1641231032120466, 0.16292085872713502, 0.1617527101003546, 0.16056406481799265, 0.1593453910572085, 0.1581180378319942, 0.15692499155145084, 0.1556510098056043, 0.15436073114929735, 0.15307710742197128, 0.15175101415879547, 0.1503619062053972, 0.1490111852572371, 0.1476422069376815, 0.14624208024548438, 0.14483911870224733, 0.1434674467478948, 0.1420223531975702, 0.14056266483947263, 0.13907022849430334, 0.13758359165883724, 0.13604841997720177, 0.13453500894952322, 0.1330046339831615, 0.13145451933823984, 0.12989217047135102, 0.12829934351843358, 0.12670806012656227, 0.12510125971539446, 0.12350588148327878, 0.12186642255258959, 0.12020634530944574, 0.11854346086940487, 0.11686832988356381, 0.11520604175010249, 0.11350442184471894, 0.1118111942606138, 0.11008800093687925, 0.10835647878188624, 0.10656069579984122, 0.10481989161114237, 0.10311246884360586, 0.10134448185827717, 0.09955268018667776, 0.09777233824986901, 0.09598423791549485, 0.09421021675727186, 0.09240515432637887, 0.09058986320165484, 0.08877511201474539, 0.08695533890394778, 0.08509134797071588, 0.0832675802809529, 0.08151014144982892, 0.07966558620504748, 0.07782031518222132, 0.07591343617529915, 0.07407468961535121, 0.07223873737824123, 0.07039225426947762, 0.06854369614028137, 0.06665246054023923, 0.06480670258350556, 0.06298463146478814, 0.06113106721561279, 0.0592780035013296, 0.057463894047922424, 0.05560870387763189, 0.05375447573589379, 0.051908423918561326, 0.05006688375988756, 0.0482103650918871, 0.04638120485513968, 0.044574456837200384, 0.04275206582777001, 0.040935936344921285, 0.0390851989460954, 0.03728776689179935, 0.035508449790220976, 0.0337198955713055, 0.03193833023779501, 0.030164254779781918, 0.028398153311365738, 0.02662896139915354, 0.02488165619453275, 0.02314303907931239, 0.021398801286504933, 0.019680968303689393, 0.0180433223494826, 0.016335789880849653, 0.014642686491848727, 0.012912876820490143, 0.011254946313167256, 0.009633228918981277, 0.007995636511854691, 0.006371835118464883, 0.004750514949076557, 0.0031564286780052285, 0.0015646391508601248, 0.0