0.030522648839274583, 0.030254293352212802, 0.030006935313073458, 0.029799350549313708, 0.029582619250361222, 0.029322574635914887, 0.029139625653224307, 0.028963766384022118, 0.028800282654241324, 0.02863462197615938, 0.028471023851646085, 0.028314256973736296, 0.02816074888200754, 0.028012657780137, 0.027864235940855353, 0.027706774721134284, 0.027564632400659456, 0.027424095172349828, 0.027322376602742185, 0.027180607840563788, 0.02701980456684764, 0.026888865878610994, 0.026760465796916606, 0.026629655087159195, 0.02650752305534657, 0.026372854533174412, 0.02625859811568613, 0.026146850186449303, 0.02604441178598823, 0.02593804747157982, 0.025804958085701157, 0.02571080647453305, 0.02561953245365105, 0.025529101699725658, 0.02544544765714273, 0.02537751670441986, 0.025301231581104006, 0.025230622654513802, 0.025160841005707195, 0.02510303661129078, 0.025051390414700565, 0.025006167485082366, 0.024967613674122164, 0.02489881488290688, 0.02487896442014088, 0.02487330245287219, 0.02486324795307332, 0.024859837711525508, 0.0248864445198937, 0.024894334400368374, 0.02491359340392386, 0.024938827476819247, 0.024973120851952937, 0.025037002918426546, 0.02508694049162681, 0.02511647652047715, 0.02519086344831921, 0.02527366590782958, 0.025345857973333205, 0.02544846879395895, 0.02559481060912186, 0.02570894349796267, 0.025833569196200102, 0.025909755529460444, 0.026062782578568422, 0.02627294461666879, 0.02643452890906894, 0.026607062085622562, 0.026807209768037053, 0.026999595872874045, 0.02712198239406462, 0.027348591710498145, 0.027582436801952683, 0.027881782727356596, 0.028124643964870973, 0.028342552570701594, 0.02861449634057972, 0.028896573422935647, 0.029168624449117296, 0.029474533179817908, 0.02980444034328294, 0.03012881795401063, 0.030464718464425188, 0.030820070823953306, 0.0311787616549392, 0.03153856411181041, 0.03192412705117111, 0.03232195253281834, 0.032723297558526196, 0.033147434285292765, 0.033601886104246324, 0.034048779340930924, 0.034509553951602275, 0.034965072501109196, 0.03545626353912168, 0.03598994433616879, 0.03650370943790877, 0.037032611605220124, 0.03752026141302059, 0.03808647148909381, 0.038670996372518564, 0.03926067587143886, 0.0398634942334348, 0.040507946591558874, 0.04113440304398155, 0.04177772352773404, 0.04243519043274151, 0.04310832885102317, 0.043749754364067396, 0.044460244532118005, 0.045227318398964884, 0.04595877427983447, 0.046706460352089, 0.04741398412243294, 0.04820114662021324, 0.04906275624863498, 0.04986851672063587, 0.05069150695946123, 0.05147777148991102, 0.05234155150566709, 0.0532498436503506, 0.0541376015922497, 0.055041451396096924, 0.055948576471025975, 0.056886198960966305, 0.057817383299289156, 0.058788511149495196, 0.05977390017483723, 0.0607955486179084, 0.0618073462337778, 0.06287233945920916, 0.06391149834643736, 0.06496869144784959, 0.0659756793579643, 0.06707647989730346, 0.06822510219365586, 0.06934828437909422, 0.0704871469942905, 0.07166337029524135, 0.07283055875146127, 0.07399642970624086, 0.07519883342751939, 0.07641630515433674, 0.07760135555425977, 0.07885464831740949, 0.08015205320718163, 0.08142574957127272, 0.08271381645867111, 0.08397261688744735, 0.08529464679820538, 0.08669361607479345, 0.08803085332674286, 0.08938377574252925, 0.09070203296815743, 0.0920914616175311, 0.09349775520380336, 0.09491007704159388, 0.09633450725685568, 0.09777355549237894, 0.09922169823202322, 0.10069083089413607, 0.10216174859696649, 0.1036448964699505, 0.10518485741093264, 0.10668606055421077, 0.10817308594661194, 0.10970523190867239, 0.11124859960347686, 0.1127516427925046, 0.11432298936724342, 0.11592352050360888, 0.11750704257611477, 0.11909935956276475, 0.12067084929207464, 0.12228396768582489, 0.12390111516379214, 0.12552775600930638, 0.12716083327977445, 0.1288361604429518, 0.1304773920799977, 0.13213193585272856, 0.1337884530777248, 0.1354525636413443, 0.13709177416003993, 0.13877370761585037, 0.1405048711867236, 0.14218975322348756, 0.1438811498002924, 0.14552082870176344, 0.14723077320432199, 0.14896789031201582, 0.15067764088302185, 0.15239020684593366, 0.15407705871807065, 0.15579775271283483, 0.15751860010359367, 0.15923945274055512, 0.16096012800200454, 0.1626663234492688, 0.16438775502026243, 0.1661856213936525, 0.16789361247811224, 0.16954114800316053, 0.17126080702225668, 0.17297755280417618, 0.17472441304159694, 0.1764302830216163, 0.17813294751533748, 0.17983453096641983, 0.18153293714745644, 0.18318918727988517, 0.18488444313992847, 0.1865906668180278, 0.18826951784651408, 0.18994195993188923, 0.191625513236616, 0.19328163286214983, 0.1949195751116161, 0.19656328195236195, 0.19819856685951073, 0.1998019262111863, 0.20142193314312212, 0.20306033353807038, 0.2046542237097498, 0.20623815315564817, 0.20780133275797852, 0.2093650188398167, 0.21090120437045284, 0.21244214209426365, 0.21396922657477596, 0.21549239617402735, 0.21698953924827458, 0.21850317318625126, 0.2199675018777478, 0.2214184424572435, 0.22285147255886859, 0.2242741136905753, 0.2256824824542316, 0.22707329202495435, 0.22844751383904358, 0.2297969283894534, 0.23113736007570979, 0.23243104472641296, 0.23373747653384244, 0.23502291865397942, 0.23629103016523964, 0.237533435160715, 0.2387378021425732, 0.23993926278905828, 0.24111784231005604, 0.24226569481033622, 0.24339897484825815, 0.24457626756819978, 0.24565306293628106, 0.24670944480583976, 0.2477190420447947, 0.2487356184753094, 0.24967571061759386, 0.2506505691541288, 0.25159769690527267, 0.25256323725183266, 0.2534491401439501, 0.25427274809203027, 0.2551125998321953, 0.25592434853686696, 0.25669379810033865, 0.2574507789617347, 0.2582194701830614, 0.2589126738251195, 0.2595787841598852, 0.260187918967047, 0.26080231558766437, 0.26138291412747494, 0.26193775960542776, 0.26246217246653397, 0.26300470901646, 0.26346175396521476, 0.2638612732600922, 0.26426537940666217, 0.2646387538466981, 0.2649811918295306, 0.2652924978779513, 0.26554558974616377, 0.26579748413825, 0.26601620798356407, 0.2662517708502423, 0.2663979997620648, 0.26645891942968336, 0.26655125563222243, 0.2666095376640529, 0.26667104507674855, 0.2666569145206263, 0.26656250082571187, 0.266491085035109, 0.2663849271051498, 0.2662506607166836, 0.2660748728264792, 0.2658896536361237, 0.2656433696693035, 0.2653649018604682, 0.26507848633405484, 0.26473229798294956, 0.26435377339036875, 0.2639453992153277, 0.2635054664220771, 0.26299156480903596, 0.26249346000711976, 0.2619687789483203, 0.26140147501637523, 0.2608009166996188, 0.26016090823702215, 0.2594952737648911, 0.2587889621631021, 0.25805857300673657, 0.2572952727314982, 0.2565249893359762, 0.2556935562805099, 0.25479057623326967, 0.25390328458238093, 0.2529833197711045, 0.2520772447154013, 0.25108744783977976, 0.2500727123399917, 0.24902489763286725, 0.24794861074337754, 0.24682214217030476, 0.2456918878239595, 0.2445104540530116, 0.24332447120676817, 0.24210852738743377, 0.24086954285568937, 0.2395944004523192, 0.23829500192281286, 0.23696360023210036, 0.23560515932348633, 0.2342482434865415, 0.23283332636895546, 0.23140436900204128, 0.2299397551575661, 0.22845180598541429, 0.2269124970039739, 0.2253819357510851, 0.2238603276871681, 0.22227734773882704, 0.22067286271442263, 0.21902532167205996, 0.21738128181502248, 0.21570375895191946, 0.21401776016614044, 0.2123101555651919, 0.21061228321618833, 0.2088593728800963, 0.20703328946647204, 0.20525147901217716, 0.2034491771408276, 0.2016477061398444, 0.1998042874954496, 0.19793879940233133, 0.19606271268500736, 0.1941705428820783, 0.19227699118457242, 0.19035270505722607, 0.1883637138131658, 0.18641943796176158, 0.18445978459165585, 0.18253433427420496, 0.18054046304245702, 0.1785045358503807, 0.17649504393270327, 0.17447454434088533, 0.1724988057116042, 0.17045139687819025, 0.16834175476425509, 0.16628992014316715, 0.16422950160893834, 0.16214843378597935, 0.16007467277320556, 0.15806677905719035, 0.15597030249869231, 0.1538723351416442, 0.15172947927807154, 0.14963453196825333, 0.14751446788014022, 0.14541622064950763, 0.14331466966260767, 0.1412503146659003, 0.13913949559999758, 0.13701197633457324, 0.13490628564131818, 0.13280163757393998, 0.13067939914359838, 0.12858099751538765, 0.12652014673206038, 0.12442131126859754, 0.12232759874610086, 0.12022146815792693, 0.11814145433155195, 0.11609495036519457, 0.11402261656310406, 0.11195834366846817, 0.10990502955456762, 0.1078575848108037, 0.1057579375232423, 0.10373718605218268, 0.10174350966470361, 0.09973422751449741, 0.09773441795794933, 0.09576648839466358, 0.09378475203743336, 0.09179633720290883, 0.08984249368057198, 0.08790090363897259, 0.08600542497013342, 0.08408578720663894, 0.08216268134213281, 0.08027719922610996, 0.07840687955834655, 0.07657776513271385, 0.07473580756555151, 0.07290274811809301, 0.07109785349182123, 0.06931074245743189, 0.06751226593817417, 0.06576537688715034, 0.06410599787309569, 0.06238489130625404, 0.06068588457290594, 0.05899097846541955, 0.05733827796870091, 0.05567969800963295, 0.05407262536408893, 0.05248545893649633, 0.051001879718192956, 0.049445272593142735, 0.04788245891029371, 0.04638123068107488, 0.04490349335964517, 0.04349031691982493, 0.0420546541037964, 0.04061307229608236, 0.03923346164275764, 0.03787781126736416, 0.036597507669854305, 0.035283773833061985, 0.03401785250237618, 0.032755925620069765, 0.03152203619995824, 0.03033380532675479, 0.029152854364365766, 0.028073194267009657, 0.026939291027363654, 0.025837238468267108, 0.024795720355431025, 0.023751439305714363, 0.022720746327506952, 0.021741071184818248, 0.020790620488781927, 0.01994589266210085, 0.019043198464071053, 0.018173191750182983, 0.01733508414100993, 0.016528207328293135, 0.01578017603491773, 0.0150306046326372, 0.014295776606914567, 0.013610554277171281, 0.012954794431822974, 0.012423032641926053, 0.011813540997942885, 0.011261306637060951, 0.010716435793980439, 0.010205445401890684, 0.009735199824246232, 0.009288658182410339, 0.00891401793643627, 0.00852628831173316, 0.008171947584384994, 0.007810576005417572, 0.007525992152171513, 0.007277131376200048, 0.007050260235666609, 0.006852866290043902, 0.006704049012548239, 0.006562869956383453, 0.0065249866010645575, 0.006434957017866742, 0.006378940949765055, 0.006381821553422737, 0.006388491290477876, 0.006433810287172644, 0.006506196923350951, 0.0066111111090843815, 0.00679409954749097, 0.006956629711672398, 0.007102854115268518, 0.0073382515196251455, 0.0076031103257789695, 0.007972838214912016, 0.00828661522838112, 0.00858245578710428, 0.008968591568432953, 0.00938381848142322, 0.009890762517917368, 0.010355857828136443, 0.01087114826680937, 0.011397909363602013, 0.01195682024308362, 0.012529343123069496, 0.013153072407223038, 0.013855003036915668, 0.01453137323227247, 0.015239499807393574, 0.015983904553926245, 0.016753164275254053, 0.017531098669964707, 0.018363556461275028, 0.019224393701502657, 0.020124964373280423, 0.02104060450162047, 0.021978406016117762, 0.022951772454195572, 0.023952940275805884, 0.02498947498847666, 0.02604492727763593, 0.027133408124287925, 0.028243869295386186, 0.029382228178178177, 0.030538067784304932, 0.03173301985488428, 0.0329983705828561, 0.03424147165657617, 0.035513768619893436, 0.036775156088639585, 0.0381097027383443, 0.03948934635779377, 0.04087326606349854, 0.04228420264038427, 0.04374634956921789, 0.04520783059760392, 0.04670370662975219, 0.04822005340950297, 0.049764169278915596, 0.05130758017127287, 0.05290993805501139, 0.054541528773854465, 0.05619419899011089, 0.05787250494213264, 0.0596225317918826, 0.06134621155562946, 0.06308267760577618, 0.06486421864689546, 0.06667231260266407, 0.06851061996949419, 0.07037081076998018, 0.07224960468109919, 0.07416319031300543, 0.07610234789567924, 0.07808879815136775, 0.08007619807619394, 0.08209282115976275, 0.08413301630843202, 0.08619963650905807, 0.08828226395676102, 0.09040254004372826, 0.09258408587855971, 0.0947506229028263, 0.09694454668987584, 0.09912970160898012, 0.10138209317129881, 0.10373594510091529, 0.10602795669592706, 0.10834910651083134, 0.1106566098212237, 0.11303989434113841, 0.11547549245177001, 0.11790622653852627, 0.12036392851596527, 0.12284329324809251, 0.1253550667178771, 0.12789563447948538, 0.13045949996841494, 0.1330496613640944, 0.13567504873699038, 0.13831657904933276, 0.14098741181159558, 0.14368203637151247, 0.14640343789984206, 0.14912723425804722, 0.15190514150902917, 0.15471349045426183, 0.15754158054387168, 0.16039565021962204, 0.1632886334808078, 0.16619341489332343, 0.1691303760694396, 0.17208862614505072, 0.17507423282655726, 0.17807692326335817, 0.1811184678759653, 0.1842149173672167, 0.18730643452954648, 0.19042641502421984, 0.19356573691544604, 0.19674333133590646, 0.19997281814924212, 0.20320242862636856, 0.20644555494000014, 0.20973467308300126, 0.21305143083264655, 0.21643422304051294, 0.2198013238477621, 0.2231815051025704, 0.2266098518298707, 0.2300663956540968, 0.2335369399059405, 0.2370513504203358, 0.2405864836384812, 0.24415600201511667, 0.24775237259037786, 0.2513808043861536, 0.2550304770872456, 0.2587139144872421, 0.2624175078044058, 0.2661488322153279, 0.2699270434589038, 0.2737112330528148, 0.27753687016325224, 0.28137650632307404, 0.2852450904663511, 0.2891115983172737, 0.2930411323087948, 0.29698045227676695, 0.3009649885843919, 0.30497506115695855, 0.3090543446214117, 0.3131103377625183, 0.3171779546028212, 0.3212922911390778, 0.3254333662404252, 0.32958310653201917, 0.33377949419158104, 0.33801910455721074, 0.34226379654817035, 0.3465347384801665, 0.3508624665789064, 0.3551814118185898, 0.35949441500101065, 0.3638718259017865, 0.36827383002689645, 0.3726990011270502, 0.3771499028116658, 0.3816248464832093, 0.3861236545397822, 0.3906461344497993, 0.3952253792566248, 0.3997903572786792, 0.40438021297513, 0.4089944304589223, 0.41363251396746403, 0.418285019472742, 0.4229705471240409, 0.4276677962364201, 0.43239818385444817, 0.43714922088039554, 0.44187194517315154, 0.4466695422038085, 0.4515251214672393, 0.45635158803925246, 0.46119740309603463, 0.466073701229889, 0.4709555668676172, 0.47580114206131396, 0.48072701610428314, 0.48566754097727166, 0.49063800665250373, 0.495605594965946, 0.5005729227680216, 0.5055723109342868, 0.5105851941857884, 0.515627928648047, 0.5206647744813894, 0.5256689414646503, 0.5307379344299039, 0.5358166722256577, 0.5409651513416895, 0.5460551087655837, 0.5510869740002896, 0.5562096913711551, 0.5613391258918055, 0.5665147279097063, 0.571651756801151, 0.5767711829193737, 0.5819267413614423, 0.5870874008228512, 0.5922129188504577, 0.5973871545480941, 0.6025587166756321, 0.6077354726661907, 0.6129125128289973, 0.6180587064436652, 0.623238969217433, 0.6284510336081933, 0.633621068894697, 0.6387896006316358, 0.6439072484966075, 0.6490767700185699, 0.6542436969631803, 0.6593994747993601, 0.6645481976573892, 0.6696637105734627, 0.6747998945099173, 0.6799296672655669, 0.6850443921827039, 0.6901480862124284, 0.6952644721886457, 0.7003411477124526, 0.7053972289619244, 0.710450854300965, 0.7154904891861389, 0.7204845296491859, 0.7254974610048275, 0.7304587437755968, 0.7354385369714823, 0.740396771256856, 0.7453675710663465, 0.7502768827812888, 0.7551163550489974, 0.7599885762834276, 0.7648350782950029, 0.7696258726096996, 0.7744230136286137, 0.7792089621774341, 0.7839451488211833, 0.7886522700015994, 0.793334737433809, 0.7979809112650795, 0.8025858278557296, 0.8071704324122021, 0.8117217488697892, 0.8162031248312304, 0.8206900056867279, 0.8251698914697976, 0.8295768621106562, 0.8339466636745076, 0.8382143647868878, 0.8425152412555865, 0.846846946670105, 0.8510511305355057, 0.8552151869877062, 0.8592957456566951, 0.863381601903663, 0.8674319654615052, 0.8714243570025234, 0.8753701827734541, 0.8792763190600287, 0.8831256144733896, 0.8869135380474513, 0.8906664534632386, 0.8943683542680997, 0.8980095286323401, 0.9016082934836057, 0.905123842123831, 0.9086181420499837, 0.9120556797054147, 0.9154308874841958, 0.9187541841137324, 0.9219946752826307, 0.9252036252021583, 0.9283517516428971, 0.9314336030422827, 0.9344597052923889, 0.937432563644275, 0.940332724667051, 0.9431703727788545, 0.9459411522075837, 0.9486527097311963, 0.9513422365575895, 0.9539193543818799, 0.9564335364916824, 0.958844229139369, 0.9612350532137071, 0.9635339555780059, 0.9657922744421681, 0.9679808225724992, 0.9700929819213973, 0.9721421338676385, 0.9741627174994621, 0.9760646425653466, 0.9778976591739996, 0.9796201994904034, 0.9813188654485291, 0.9830023083190619, 0.9845478163641295, 0.9860233817604688, 0.9873784207536623, 0.9887185698563508, 0.989989355272166, 0.9911798053198696, 0.9922958969931414, 0.9933170142872747, 0.9942866155575393, 0.9952059733894106, 0.9960206828486198, 0.9967610908308717, 0.9974027054787292, 0.9979971378030523, 0.9984911629031016, 0.9989366316926577, 0.9993048697019151, 0.9995961756248141, 0.9998108264764896, 0.999936274217439, 1.0, 0.9999973407387377, 0.9999068417856337, 0.9997409369888947, 0.9994921644189938, 0.9991770894516901, 0.9987650799396084, 0.9983027314365169, 0.9977645925170848, 0.9972356685769953, 0.9965366676931473, 0.9957334174986272, 0.9948992096549061, 0.9939929869956863, 0.9930072534899542, 0.9919585732589945, 0.9908124999962237, 0.9896238541093718, 0.9883627181514065, 0.9870130455652154, 0.9856108425103761, 0.9841242120309134, 0.982581124672166, 0.98096715688059, 0.9792831237502422, 0.9775298203291031, 0.9757016216265347, 0.9738129112645028, 0.9718568730341078, 0.96982534313042, 0.9677381771272247, 0.9655791527656148, 0.9633627384212743, 0.9610822007328916, 0.9588075842524784, 0.9563926920596657, 0.9538382049846672, 0.9513187264513724, 0.9487376886047707, 0.9460833690700979, 0.9433840626627288, 0.9406666468960835, 0.9378450943582209, 0.9349689689036205, 0.9320595077554514, 0.929073902086325, 0.9260077159261987, 0.9229242339142757, 0.9197893057322344, 0.9165872413618287, 0.9133544122405272, 0.9100721015165691, 0.9067414228713486, 0.9033634807628433, 0.8999662685752141, 0.8964936847799999, 0.8929619732508831, 0.8894074078736152, 0.8858111928065372, 0.8821359560110986, 0.8784644583425935, 0.8747805008713488, 0.8710255430160031, 0.867234248957761, 0.8633987409269717, 0.8595391732626754, 0.8556140170247805, 0.8516925264842176, 0.8477379979061305, 0.8437300711344073, 0.8397164217743417, 0.8356969801116721, 0.8316214892861602, 0.8275201679046381, 0.8233506724800648, 0.8192067897744163, 0.8150510070457648, 0.8108576036905033, 0.8066431863417567, 0.8024167493267667, 0.7981632309847126, 0.7938891284730356, 0.789603777956782, 0.7853037871264484, 0.7810082564292412, 0.7766802115710029, 0.7722920474045216, 0.7679509638491756, 0.7635988824555365, 0.7592705009708918, 0.7548963616457647, 0.7504812941342631, 0.7461025630568726, 0.7417187662891861, 0.7373401628283356, 0.7329489448075444, 0.7285659023526959, 0.7241730905573996, 0.7197822114445085, 0.7153929939156761, 0.7110091631249521, 0.706623794464342, 0.7022515017486658, 0.6978856994483982, 0.6934864327452379, 0.6891418675277323, 0.6848122210996559, 0.6804824670168147, 0.6761629522894342, 0.6718497008360457, 0.6675547144348067, 0.6633037447990665, 0.6590325073245423, 0.6547783946068729, 0.6504999025146124, 0.6462876661346093, 0.642137289114739, 0.6379545443578479, 0.6337934913267679, 0.6295984218012757, 0.625489819514293, 0.6213888882306231, 0.6173239703160953, 0.6132809708212411, 0.6093237490066324, 0.6053198942061988, 0.6012869696428915, 0.5973479579959203, 0.5934351423082592, 0.5895404708406097, 0.5856838725315949, 0.5819080757615721, 0.5781022660262858, 0.5743293410256897, 0.5705089440929453, 0.5668129963754917, 0.5631989395732486, 0.5595561138184677, 0.5559475429692228, 0.5523800633178729, 0.5488404765074438, 0.5452919339309714, 0.5418300976760088, 0.5384022896581024, 0.5350322481414971, 0.5316715809046351, 0.5283199537310281, 0.5250376311055073, 0.5217916189170694, 0.5186285578834382, 0.5154508876176765, 0.5122585002946918, 0.5091685332694325, 0.5061158933770642, 0.5031433274500732, 0.5001613896775684, 0.4971884226420529, 0.49429250874073816, 0.4914357782814257, 0.48860055111289147, 0.4858251716753755, 0.4831347262335744, 0.4804314651226663, 0.4777701619645167, 0.4751109465545424, 0.4725380853877428, 0.4700300832278669, 0.46753263256160105, 0.465076147692731, 0.46264257729950675, 0.46026992027931707, 0.45790353260630134, 0.4556142189503638, 0.4533625655372205, 0.45116798999379754, 0.44898978712026627, 0.44685076827938663, 0.4447508212110143, 0.4426898062438497, 0.4406214500211258, 0.4386436078727517, 0.4366951374723603, 0.4347897915350621, 0.43292006552746026, 0.43115005672939666, 0.4293435873224138, 0.4275609568633195, 0.4258342198241646, 0.4241445902226015, 0.42245189097618363, 0.4208400738119097, 0.4192617067877045, 0.41771662557492856, 0.41620462221109494, 0.4147741181756388, 0.41332133680926997, 0.4118266683804458, 0.4104527821514104, 0.4091080833700199, 0.4078027343397078, 0.40651480240579096, 0.40528310033277326, 0.4040501022138942, 0.40279601530881365, 0.401629162282014, 0.4004883404488913, 0.3993848670475671, 0.398293967717818, 0.39723664720436686, 0.39619611732211757, 0.39518099069677115, 0.39418686357261057, 0.3932213304707385, 0.39232536677035507, 0.3914003582198554, 0.3905002476955303, 0.38955490867881826, 0.38871047988070956, 0.3878791532909878, 0.3870715108905501, 0.3862811399911623, 0.38553330482096715, 0.384773145335527, 0.3839985085472363, 0.3832768188732378, 0.3825695466388802, 0.381885248075567, 0.38120441679824385, 0.3805243760767033, 0.37987179183010406, 0.3792309356151572, 0.3786461433192206, 0.3780215795655022, 0.3773687373737141, 0.3767738582884024, 0.3761875959856489, 0.3756235172450963, 0.3750511276186032, 0.3745031893357713, 0.37394362553973187, 0.3733914602125198, 0.37285742712369496, 0.3723162450417354, 0.371776955063652, 0.37124690790656517, 0.37072077126632175, 0.3701965357712992, 0.3696762195662821, 0.3690833395947298, 0.36857520464711124, 0.3680633329171089, 0.3675707562642535, 0.367048371540455, 0.3665463628601815, 0.36601534391946833, 0.3654821962809914, 0.3649002311137759, 0.36436692354925576, 0.3638681737883172, 0.3633166527688054, 0.3627606150057643, 0.3621930847870985, 0.3616271226675768, 0.36102003279903977, 0.36044487325107466, 0.35986028221888094, 0.35925583206994754, 0.3586531036464341, 0.3580461552742678, 0.35742120472751354, 0.35678563476008235, 0.35614686689697966, 0.35548828567842383, 0.35481229142024917, 0.3541321500475807, 0.35343994063413187, 0.3527801985767094, 0.3520573100954225, 0.35130350300588736, 0.3505617052537059, 0.34980708465822447, 0.3490571839068982, 0.34827350874646085, 0.3474308119792021, 0.3466266723228619, 0.3458061361881608, 0.344957654671876, 0.3441057047910492, 0.3432814380985077, 0.3423895736566733, 0.34148314615785036, 0.3405707709908235, 0.33963306746656224, 0.3386534570181432, 0.33768880633526027, 0.3367070199956488, 0.3356926908273569, 0.33467846862871176, 0.333683295280519, 0.33262829500578156, 0.3315574884496101, 0.3304552996502688, 0.32935423675887227, 0.32820908581421476, 0.3270770498289859, 0.3259263442143176, 0.32474697247051254, 0.3235609568660302, 0.3223704908055312, 0.3211459094542867, 0.31990414813975526, 0.31860564871759334, 0.31733498572888713, 0.31608890159643827, 0.3147752682799995, 0.3134460162964966, 0.312089671923123, 0.3107308160979958, 0.30938023781177254, 0.3079863848454422, 0.30657823218738595, 0.3051007133184453, 0.3036709739530952, 0.3021957730285051, 0.3007355585146674, 0.29925750963094017, 0.29779178345983676, 0.29627638732833084, 0.2947839007673128, 0.29323566730350353, 0.2916759286647291, 0.2900521890249913, 0.2884761611623736, 0.28688710946851537, 0.28528284385229036, 0.283665387426512, 0.28210309781420095, 0.2804520899153662, 0.27872391997971807, 0.2770655426546927, 0.2753951137979705, 0.27372471217394806, 0.27203035710124507, 0.27036205369728605, 0.26864394796396984, 0.2669188495744933, 0.2651625352594024, 0.26342689748182446, 0.2616461948345213, 0.25989981116196986, 0.25814422843590906, 0.256405767899695, 0.25463063087575066, 0.25282285260225534, 0.2510400319067714, 0.24925076846273808, 0.247477458177678, 0.24567439853687084, 0.24385510314316067, 0.2420471842075439, 0.2402358762224877, 0.23844600012410078, 0.23662628609102465, 0.2347867672516638, 0.2329685599005732, 0.2311492264774906, 0.22936123763658323, 0.22753695270623608, 0.22565448190766688, 0.22384200902596324, 0.22202855627715964, 0.22027631746035492, 0.2184552445572532, 0.2166335597794891, 0.21482227698911893, 0.2130154909341096, 0.21115707156033559, 0.20936709727438985, 0.2075855939011417, 0.20579967722502995, 0.20401761142152622, 0.20229122879084416, 0.200512162802863, 0.1987287358276945, 0.19696829337719474, 0.19521582920546796, 0.1934780155238216, 0.1917415133043057, 0.1899642321812121, 0.18825263022024757, 0.18654789257821477, 0.18484684250195954, 0.18315827439599636, 0.18153202264320714, 0.17985428243817989, 0.17818921187289918, 0.17647285204057384, 0.17484147967239644, 0.17325278806170538, 0.17163662150911735, 0.1700329654197336, 0.16843955195569374, 0.1668621139417361, 0.1652748463928845, 0.1637270629685676, 0.16219178181498617, 0.16070403996709937, 0.1591907270707858, 0.15764574205876308, 0.156169941579515, 0.15476757869048355, 0.1533111345389081, 0.15187223851197676, 0.15040726641770985, 0.14900876394942497, 0.14764569688160747, 0.146274828288327, 0.14492070373174049, 0.14355142644936775, 0.14223520320764932, 0.1409201970925584, 0.13963673617187436, 0.13836849343618343, 0.13714533983095178, 0.13590500342618658, 0.1347313161081059, 0.1335208381137279, 0.13233117134960262, 0.13112226314308228, 0.12997823610956638, 0.12882753648636372, 0.1277219967587234, 0.12663291636296642, 0.12557592721123714, 0.12451857644365838, 0.12346514830665621, 0.12244564624984179, 0.12144344333348935, 0.12046507902801407, 0.11949704672232511, 0.11856878028421688, 0.11763399548555076, 0.11671844187972863, 0.1157988793857003, 0.11492415414581941, 0.11408348519863953, 0.1132414909525947, 0.11241786730109164, 0.11163552426285026, 0.11084529664305115, 0.1100384435644653, 0.10929089536166929, 0.10855993869789854, 0.1078314879685814, 0.10713548551694833, 0.1064488332830903, 0.10578521147495801, 0.10513708014170914, 0.10449040769958168, 0.10387517750824353, 0.10327600560378454, 0.10269025053861612, 0.10211947013283743, 0.101557258034623, 0.10101719812623655, 0.10053776354185684, 0.10002087310024, 0.09952098668081223, 0.09905941486346771, 0.098589417876733, 0.09807356508668967, 0.0976447290164629, 0.09722815414767096, 0.09687891117066007, 0.09647985555280811, 0.09605378497048939, 0.09569004077386388, 0.09533813851173069, 0.09497488835488255, 0.09464915937412541, 0.09434760762802959, 0.09404027542666991, 0.09374378732096869, 0.09347204955869068, 0.09319490574473886, 0.09294673486038926, 0.0926890698697377, 0.09244277942081772, 0.09218177085182816, 0.09196005679841081, 0.0917609952813751, 0.09155441179116364, 0.09135674010885433, 0.09117019241060123, 0.09098897795973719, 0.09078120636724035, 0.0906200569141602, 0.09046428760474924, 0.0903432921349922, 0.09019433744230597, 0.09002908618039815, 0.08989618188083437, 0.08976799118759586, 0.08966226727568989, 0.08954068806962125, 0.08942553136575639, 0.08931371007616822, 0.08920638230669352, 0.08915185750780531, 0.08904629139730148, 0.08893920940242696, 0.08884622421874652, 0.08875757563489124, 0.0885958567266063, 0.08852395372547439, 0.08848380293235154, 0.08840475406201882, 0.08832629817768542, 0.08828153581706989, 0.08819945096214042, 0.08808975461987414, 0.08801460440177024, 0.08793871190335592, 0.08783755337695892, 0.08776268116824103, 0.08775684361157397, 0.08766752047940858, 0.08757949700280465, 0.08741145263554295, 0.08733438536404226, 0.08725874445343747, 0.08717106731749732, 0.08707903927187238, 0.08704544114226984, 0.08693681794842852, 0.0867914944582031, 0.08668517406320464, 0.0865749381461804, 0.08643370887830144, 0.08631849887949178, 0.08623958829370615, 0.08610714138191931, 0.08597115434519528, 0.0858069460753829, 0.08566593964233254, 0.0855011255878371, 0.08535054689155393, 0.08519290792988504, 0.08504234543770878, 0.08486892798894298, 0.08472646676009586, 0.0845358597993426, 0.0843409096036626, 0.08412839044207526, 0.08392515792717303, 0.08368754566503997, 0.08347526253767187, 0.08325479727953634, 0.08300442912906134, 0.08277049663710932, 0.08257594928611392, 0.08231748839023097, 0.08205283234571138, 0.08175483160994643, 0.08148045153651147, 0.081178470060999, 0.08088977342667139, 0.0805916703252503, 0.08030354899869269, 0.07998471053297557, 0.07965928741127262, 0.07932451680299592, 0.07898187770474896, 0.0786415745195627, 0.07828178331288635, 0.07793508297502386, 0.07755779131147365, 0.07717405167798085, 0.07680539797913585, 0.07640532696813042, 0.07594434170632197, 0.0755392348064943, 0.07512461062286196, 0.07471605720424339, 0.0742810970680473, 0.07386115074701535, 0.07340725243555664, 0.07294672724962585, 0.07247177322309853, 0.07199864217258492, 0.0714925678131554, 0.07100804173831324, 0.07051480781948366, 0.07001183934325034, 0.06950209974965388, 0.06898686335690139, 0.06846090965256499, 0.06792748306727094, 0.06742006852444593, 0.06686803433064915, 0.06628659885214344, 0.06572740997234239, 0.06516162174364107, 0.06456761473762583, 0.0639918420024408, 0.06339462108527014, 0.06280623962474143, 0.06221034509431046, 0.06160093560486645, 0.06099199926399144, 0.06038655193958037, 0.05976317477401153, 0.059124078502907705, 0.05849128310774628, 0.057852891293963975, 0.05725914393459933, 0.05660409627448997, 0.055906086247388055, 0.05525210216480435, 0.05459355037025839, 0.053956282121993306, 0.053286053041383376, 0.05261977483386663, 0.0519438322499191, 0.05126581898855493, 0.05055370199855931, 0.049875576433138065, 0.04923971334834328, 0.048548370812887084, 0.04785636200388323, 0.047167432726118515, 0.04647334952306287, 0.04572355011974619, 0.04503510762820718, 0.04434288612566514, 0.0437152258032204, 0.0430082090521041, 0.04229226054805217, 0.041588993557977405, 0.04088616027748254, 0.040159416381266924, 0.03946052317979565, 0.03871591352186535, 0.0380211612455977, 0.03732350028691836, 0.036663232298137574, 0.035956475468214996, 0.03526989289633786, 0.03456276987907912, 0.03385796371585294, 0.033143932155704166, 0.032445190769947896, 0.031817291746639574, 0.031113297220163372, 0.030415127800175534, 0.029680096993003998, 0.028997729224911596, 0.028306228865192223, 0.027630216314338728, 0.026956177660870148, 0.02634964931984334, 0.02567194501093665, 0.024991549021578466, 0.024327200711576097, 0.023668032412500213, 0.02306769633939695, 0.022411704647671754, 0.021739268077685402, 0.02110166332225539, 0.02046972384262756, 0.01988175065043377, 0.01925595664974035, 0.018642854764198472, 0.01803122483921233, 0.01742686379287401, 0.016864107386710077, 0.01626923250959938, 0.01570732818239989, 0.015126274348731544, 0.014554547014539182, 0.013998117709442565, 0.01344301785722931, 0.012956737610452686, 0.012411006520772063, 0.011876806142568907, 0.0113663114082207, 0.010851763087020752, 0.01035940599386898, 0.009864283238744158, 0.009379668779335746, 0.008932086771453497, 0.008464052101473891, 0.008027642044198128, 0.007578905100024315, 0.0071417797130604805, 0.006737650428446906, 0.006319912200422534, 0.005933291611618151, 0.00553659223926215, 0.005152266127652419, 0.0048119793582993365, 0.004447370252766917, 0.004156294398783796, 0.0038103459697987276, 0.003480393354258127, 0.0031657101757602496, 0.0028656956526634863, 0.002614441370609755, 0.0023380227491114616, 0.0020770302284141545, 0.001860416765399174, 0.0016251390442798862, 0.0014556692794492792, 0.0012453204796306926, 0.0010527891597732454, 0.0008825115503929438, 0.0007230331787911559, 0.000547944376679992, 0.00042494096319050035, 0.0003158587732978316, 0.0002450709533266473, 0.00016090828601381625, 0.00014092681474704808, 8.157540662836411e-05, 4.03965306639037e-05, 4.219707678979933e-06, 0.0, 6.233500399372689e-05, 8.496944409830532e-05, 0.0001269762809458151, 0.00017774927972574107, 0.00025879808323867954, 0.0003885385325508894, 0.0005015469809109783, 0.0006341590195504661, 0.0008143295535677383, 0.0009819846788739674, 0.0011652219703605444, 0.001374658532049886, 0.0016040308592318927, 0.001898065337892861, 0.0021613901197402676, 0.0024239562939788743, 0.0027344592218859743, 0.003065387110253117, 0.0034052182425281, 0.00377850718057743, 0.004184506444934319, 0.004596178273962338, 0.005028878374200265, 0.005504497043469498, 0.005976873168884099, 0.006478314543421278, 0.006995199748865123, 0.007535132076008473, 0.008085312727271216, 0.008673018017206562, 0.009335683796301078, 0.009961845332921226, 0.010613807911653625, 0.011242694602437807, 0.011951848311847684, 0.012733567143590425, 0.013481974875859564, 0.014256472396869137, 0.015032647736610248, 0.015862211826923895, 0.01673688189452246, 0.017613312858638423, 0.018515973607246737, 0.019470554054281778, 0.020422682194333807, 0.0213656253129719, 0.02237829401517897, 0.023416735551447885, 0.024509431906748792, 0.02559676639202337, 0.02675333946525957, 0.02789206283264032, 0.02906148943705502, 0.030222972936572622, 0.03145805307942762, 0.03271605648339781, 0.03400811959917723, 0.035328429313020514, 0.03668111601065802, 0.03805829290883448, 0.039486555879079524, 0.04091984889797605, 0.042384161900811866, 0.0439231063914971, 0.04544416889110731, 0.04698870141019489, 0.04857825894728851, 0.05020054825606239, 0.051796609694127194, 0.053491713428109315, 0.055248227516753054, 0.05699858433934638, 0.0587811319197956, 0.0606396089838359, 0.062481610532308315, 0.06433192985514698, 0.06624760283346325, 0.06819670779667471, 0.0701806634547782, 0.07219689002691332, 0.07428547334267725, 0.07636484982053246, 0.07848060128774588, 0.080626161294011, 0.08281502397198767, 0.08503824690518266, 0.08729854659509269, 0.08960594834197992, 0.09193598097525821, 0.09430232891119342, 0.09671136707598879, 0.09914946907618569, 0.10164214661980743, 0.1041512416061941, 0.10669794698380031, 0.10922448757486834, 0.11185330973280823, 0.11458149188739909, 0.1172705373750437, 0.11999805247003774, 0.12273053801742684, 0.1255386365314142, 0.12842893532392455, 0.13130353854854387, 0.13421710731997363, 0.13717067417902307, 0.1401612999100438, 0.14316213441308928, 0.1462329202525091, 0.14934018389290643, 0.1524814556245975, 0.15566226087574148, 0.15886810839857507, 0.1621235812606523, 0.16541510346842384, 0.16876842224150865, 0.17212917228203645, 0.17550338895569537, 0.17894266593726207, 0.18241807535379756, 0.1859757704174753, 0.1895177262314865, 0.19312920345625784, 0.19674444255834145, 0.20039942258385343, 0.20403335038332837, 0.20777368143439925, 0.2115564091266819, 0.21536520798428882, 0.21920915307290798, 0.2231047936130078, 0.22701660581440344, 0.23096414352168448, 0.23494712018392583, 0.23896524930246865, 0.24301055850820946, 0.24709909855046236, 0.2512304536997208, 0.2553853233459453, 0.25957406047423504, 0.2637912078602367, 0.26804732128271824, 0.272351368646129, 0.2766703607221502, 0.28102215374966616, 0.28540117076050553, 0.2898178555020266, 0.29427466697410726, 0.2987521346373136, 0.30326044876489444, 0.30777606512525235, 0.3123475179248657, 0.31695346033702243, 0.32157997123965165, 0.3262342947791051, 0.3309608539044971, 0.33566390642571897, 0.3403998692695504, 0.345159760451362, 0.3499473420987089, 0.3547003504174398, 0.35954875169660916, 0.3644434415342297, 0.36933244772763735, 0.3742442756749498, 0.37918481925766445, 0.3841399356863372, 0.38911537671641416, 0.3941132592496124, 0.39913145415042345, 0.4041526988354802, 0.4092117761840472, 0.41426915255200686, 0.4193651714701237, 0.4244765785799585, 0.42964011001557595, 0.43477633578286623, 0.4398672133513461, 0.4450426461959413, 0.45022911347597233, 0.4554134830193025, 0.4606226048943306, 0.4658460163246021, 0.47107243583636527, 0.47630747531099266, 0.48155443574862694, 0.4868045616787783, 0.49207329908334335, 0.49733544496136534, 0.5026039101217045, 0.5078842591841755, 0.5131620233897511, 0.5184413518521375, 0.5237267678939683, 0.5290143161538877, 0.5342710693626987, 0.5395642018437157, 0.5448549317244527, 0.5501425951574245, 0.5554264926421096, 0.5606969270179035, 0.5659722017796046, 0.5711986620820324, 0.5764654438623305, 0.5817217962844836, 0.5869723853885744, 0.5922057935121173, 0.5974159683255931, 0.6026267423953893, 0.6078237625245397, 0.6130370996338047, 0.6182006770375239, 0.6233091065947238, 0.6284485032467728, 0.6335693626042557, 0.6386812225535928, 0.6437615467056342, 0.6488178253821582, 0.6538573313508951, 0.65887460605271, 0.663839293225216, 0.6688131183352203, 0.6737487905494016, 0.6786701181607766, 0.6835627279958606, 0.6884003212251409, 0.6932366427317748, 0.6980688166692468, 0.7028363396467875, 0.7075718930028381, 0.7122809680891699, 0.7169490225440174, 0.7215468328549965, 0.726149662650819, 0.7307141104502024, 0.735238192903015, 0.7397238984884627, 0.7441574227445616, 0.7485625005879877, 0.7529247029832319, 0.7572023222968673, 0.7614817608866058, 0.7657624501234852, 0.7699404377114352, 0.7740727624440519, 0.7781264496883203, 0.782168637611927, 0.7861067276296675, 0.7900544303367327, 0.7939474346177544, 0.797805948026073, 0.8015860412223739, 0.8052897605490238, 0.8089627739778548, 0.8125786772308954, 0.8161689879097742, 0.8196650792920972, 0.8231349830443753, 0.8265124801910058, 0.8298330759539146, 0.8330777594032618, 0.8362836228882176, 0.8393900442738064, 0.8424779172108637, 0.8455010133054895, 0.8484473438639201, 0.8513409403561178, 0.8541599925694039, 0.8569204287736866, 0.8596127294382098, 0.8622147357520175, 0.8647723417038582, 0.8672709055280364, 0.8696856583998932, 0.8720299440405073, 0.8742867072530269, 0.8764909394373009, 0.8786878510737851, 0.8807382568165131, 0.8827190968484676, 0.8846282495378645, 0.8864676543766156, 0.8882017665325486, 0.8899007276602838, 0.8915245365953807, 0.8930959377966456, 0.8945656085801605, 0.8958964835118393, 0.8972242735749536, 0.8984728216263982, 0.8996665834543822, 0.9007539030123297, 0.9017444100806098, 0.9026788041495846, 0.9035713632799313, 0.9043431242392291, 0.9050380190240155, 0.9055981174599927, 0.9061457148221328, 0.9066534108428468, 0.9070343208847133, 0.9073371523178482, 0.9075566716537498, 0.907703686145687, 0.9077413358747375, 0.9077349861190177, 0.90764830675961, 0.9075200068325077, 0.9072686562946449, 0.9069297129790208, 0.9065249171997651, 0.906042140701012, 0.9054417850257744, 0.9048084068129725, 0.9041285056425311, 0.9033317648217123, 0.9024580407920887, 0.901515214682267, 0.9004871657248815, 0.8993166247677771, 0.8981454176373438, 0.8968950207973253, 0.8955828840245621, 0.8941743637850831, 0.8926578596947833, 0.8911020268285567, 0.8894695622479194, 0.8877728084425944, 0.885988036464849, 0.884110420511448, 0.882181451496206, 0.8801790419239799, 0.8781628886930851, 0.8760084721295464, 0.8737285724030156, 0.8714460035498893, 0.8690929155015346, 0.8666637204723129, 0.8641728383318548, 0.8616429460097943, 0.8590122396123662, 0.8563163798022515, 0.8535405775447854, 0.8507181187807196, 0.8478340175732688, 0.8448836010100536, 0.841870679411544, 0.838787055948599, 0.8356525749481424, 0.8324894454125985, 0.8292304564356204, 0.8259143525632294, 0.8224725991558652, 0.8190529286353829, 0.8155780947183024, 0.8120412146061985, 0.8084480811732312, 0.8048062826988217, 0.8011033605263517, 0.7973851667251547, 0.7935737868278573, 0.7897142010765815, 0.7857610528658355, 0.7818131700630016, 0.7777937851807483, 0.7737531301876575, 0.7696651309306224, 0.765560600822358, 0.7613782168169528, 0.7571412896455892, 0.7528780701536948, 0.7485744313615195, 0.7442199714580345, 0.7398403177448438, 0.7353934893302501, 0.7309433205661501, 0.7264561531623469, 0.7219577209328221, 0.7173976344940867, 0.7127675667676188, 0.7081503116844344, 0.703501515076098, 0.6988648298319294, 0.6941517260964488, 0.6893955616940731, 0.6846353990207451, 0.6798509793805962, 0.6750395611752633, 0.6702104078801501, 0.6653152348136626, 0.6604504745903405, 0.655564217737564, 0.6506527938225969, 0.6457284966361247, 0.640831446958353, 0.6358676730238019, 0.6308914914745558, 0.6258500156315131, 0.620858545944185, 0.6158748836526343, 0.6108568135055397, 0.605829881326858, 0.6008361758653394, 0.5957896304963978, 0.5906859867332065, 0.5856403520969955, 0.580589860639062, 0.5755203447202497, 0.570465653743327, 0.5654305219658022, 0.5603698808515851, 0.5553106668183535, 0.5502218350120164, 0.5451724326917085, 0.5401383493911145, 0.5350935410314177, 0.5300542996097389, 0.5249972923806283, 0.5199752420471712, 0.5149526394367901, 0.5099469511539617, 0.5049501697750842, 0.4999800450846862, 0.49500222491198587, 0.49001435501950985, 0.48506629438000937, 0.48013159627382085, 0.47520483859424445, 0.470300578953958, 0.46542495378909343, 0.4605516455932168, 0.45569667784754997, 0.4508671921897387, 0.4460502874577669, 0.4412516708462003, 0.43647741411723273, 0.4317251005560553, 0.4269889470776899, 0.4222831770508947, 0.41760080888184925, 0.4129424709504685, 0.40830877092364576, 0.4036605924159579, 0.3990829313416683, 0.3945114533801675, 0.3899851363035606, 0.38548356674487283, 0.3810703836891148, 0.3766129498415896, 0.37218366942468556, 0.3677881783142173, 0.36342364567088065, 0.35901473203956297, 0.3547223515084378, 0.3504573727151469, 0.34622063159098515, 0.3420128864452175, 0.3378412278445841, 0.33369265900668055, 0.32962013964077785, 0.32552879998053974, 0.32147205736476975, 0.3174178967764196, 0.3134344150849563, 0.30951449981546086, 0.30559306088313565, 0.30170669104070236, 0.2978002834412685, 0.2939909171630055, 0.2902480164847325, 0.28649846081022756, 0.28278350130867186, 0.2791108499511573, 0.2754641795124719, 0.27185001613553744, 0.26827373178284963, 0.2647322166521458, 0.2612061928025056, 0.2577364365898841, 0.2542809317908803, 0.25088058897301174, 0.24751271787400514, 0.24420180804654393, 0.24089622247807702, 0.23756204710143344, 0.23433256386439233, 0.2311333764298646, 0.22797504126432735, 0.22483600570942822, 0.2217195874187252, 0.2186448716466075, 0.21560122952684835, 0.2126053127015253, 0.20962166844472024, 0.20663531315329894, 0.20371951341622294, 0.2008318059448026, 0.19797488392031998, 0.19514714975729647, 0.19240227528413548, 0.18962570885716037, 0.18685908406699633, 0.18414802485173407, 0.1814661281002504, 0.1787821931757491, 0.17616111582131613, 0.1735916880779614, 0.17101920895014244, 0.16847370336042242, 0.16592136612546945, 0.16343249874765245, 0.16096592830316817, 0.15852412943854016, 0.15610530201743858, 0.15375908768552088, 0.1513789308801987, 0.1490004787028895, 0.14667195894123133, 0.14436534097526152, 0.14205701247711147, 0.13979543663049718, 0.13753870177781555, 0.13531638993194622, 0.1331114403383468, 0.13096837140818132, 0.12879151924106405, 0.12661943396172856, 0.12448131472101048, 0.12235976257826102, 0.12020550182062467, 0.11812142153387858, 0.11606217476611072, 0.11400032042962453, 0.11195075240051951, 0.10989770534750838, 0.10787344094072367, 0.10588495814233165, 0.10387745068412887, 0.10188084204235145, 0.09986379140601062, 0.09789106083309176, 0.09593850771022301, 0.09397854593722953, 0.09202594185174447, 0.09011476907060206, 0.08817097762280095, 0.08616705742720672, 0.08424654638284271, 0.08232839469735649, 0.08041624167152901, 0.078501672174986, 0.0766273717051022, 0.0747112912413655, 0.0727984996905846, 0.07091647574426937, 0.0690046253100506, 0.06706871562296389, 0.06516507499382009, 0.0632610787098972, 0.06131005972413461, 0.05940951697987678