0.03843444577609676, 0.03824196924766718, 0.03808109833308569, 0.037940269310754844, 0.03782691570992133, 0.03771648375076571, 0.037608666498430234, 0.037523506671756475, 0.037447077718165085, 0.03731592079011758, 0.0372609986430996, 0.0372665939236576, 0.037207706159375194, 0.03715354990165409, 0.03709322126645642, 0.03704831146539492, 0.036923446055407885, 0.03689460991714843, 0.03686380771554996, 0.03691108554118046, 0.03686831565159675, 0.036854134940872516, 0.0368171317410184, 0.03678587873149328, 0.036763683445052486, 0.0367431261823535, 0.036686849022935265, 0.03668289904180677, 0.03666853486392751, 0.03667351063514727, 0.0366818940275798, 0.03665621575772946, 0.036677658995599736, 0.036798397810588176, 0.03681368562916044, 0.03683844606337464, 0.036789684348356326, 0.03684338572851349, 0.036894617969416135, 0.03695866812393543, 0.037027933220931834, 0.03710297971023239, 0.037184323415448355, 0.03730004115842959, 0.03739185618687133, 0.03749280566146666, 0.03760302379433072, 0.037722641726186466, 0.037810377364315494, 0.03795441407877506, 0.038105905886582296, 0.03830326855889191, 0.03846619709325422, 0.038671015544085384, 0.03885171923171549, 0.039045082604667075, 0.03911632615465818, 0.03935147878032913, 0.03964647907127739, 0.03988490993977418, 0.04013295282597552, 0.04037370259811876, 0.04064416928285366, 0.0409380454153277, 0.041226387677566985, 0.04152589129553116, 0.04189544921834017, 0.042210526837365675, 0.04257175727136571, 0.042912816078182675, 0.043270199471325196, 0.04352959272033147, 0.04393278982696894, 0.0443689810933687, 0.04478747786031753, 0.04521746466056365, 0.045783544109186176, 0.04622189205732846, 0.04653480861516451, 0.04702980158866106, 0.04753488890550692, 0.04807835348152829, 0.048602108759016674, 0.04909105509828098, 0.04964822199034432, 0.05021675776889005, 0.05084217858657976, 0.051429682910108465, 0.052053565948666315, 0.052669927507633885, 0.05330338123392037, 0.05387796970886835, 0.05455511349452433, 0.055307150449076144, 0.05600262309865089, 0.05671555465075812, 0.05739419507020571, 0.05814864098461964, 0.05892461707694661, 0.05970790872901591, 0.0605070959577105, 0.06137771647080419, 0.062202655798876065, 0.06295430292011228, 0.06383058742756365, 0.06472116008378259, 0.06563353555148976, 0.06655358405080014, 0.06752791310055797, 0.06847617959910712, 0.06944360638524306, 0.07034391067179269, 0.07136053646704696, 0.07253984396366896, 0.07356698490446985, 0.07461804238012337, 0.07555776855997401, 0.0766717643956972, 0.07784867465479771, 0.07898639810450236, 0.08014262199337815, 0.08123807249079901, 0.08244160629284938, 0.08369393799085598, 0.08492237668632414, 0.08616832907418152, 0.08741822866910746, 0.0887016235242726, 0.09006791519833346, 0.09137791537959371, 0.09270935173540477, 0.09403424117477624, 0.0954109414932335, 0.09685479745402388, 0.09826300078869096, 0.0996926024598855, 0.10110171633254263, 0.10257796638634016, 0.10413065211032405, 0.10563499778768372, 0.10716033905673267, 0.1086095297552484, 0.11018756301469555, 0.11182460515437916, 0.11342564468877635, 0.11504405355297545, 0.11660726517736678, 0.118269272788471, 0.11995116445921479, 0.12163872241012672, 0.12334048579902596, 0.12512917135449414, 0.12685086717153932, 0.1285879539352486, 0.130347270715436, 0.13212426465650512, 0.13390471209207477, 0.13571756320051126, 0.1375219518367082, 0.1393689827415395, 0.14122982586784155, 0.14317687770095286, 0.14505593971525862, 0.14677659171207635, 0.1487123469682812, 0.15065440197290159, 0.1526587512210724, 0.1546086298188561, 0.1566112636300404, 0.15857856139825938, 0.1605594134287182, 0.16250160170773212, 0.1645147462261536, 0.16650267652400866, 0.168538743300123, 0.17058205776548166, 0.17265347728452415, 0.1747090499604657, 0.17676291681269243, 0.17883687250771196, 0.18091841990119892, 0.1830522178626368, 0.18514263029862643, 0.18722172798031922, 0.1893328728088435, 0.19145093011067624, 0.19351331660802018, 0.1956516440247409, 0.19790585626803903, 0.20003381131989695, 0.20217012693523048, 0.20421715240830363, 0.20637938806599632, 0.20860377335209954, 0.2107581363218995, 0.21291579430731275, 0.21499669209023956, 0.21716893989768007, 0.21941739935136426, 0.22157329929983618, 0.2237304396361714, 0.22580869288725716, 0.22797610364779644, 0.2301829650254113, 0.23233383241211444, 0.23448164737613938, 0.23663278677282434, 0.23877204502379418, 0.2409519121038536, 0.2430764008431123, 0.24519797471620228, 0.24722251509443385, 0.24934725358047355, 0.2514749565222308, 0.253576205735228, 0.25566720090139006, 0.2577752618477802, 0.2598413629892066, 0.2619357599711031, 0.26397713383535143, 0.26600977763950323, 0.26794306994681827, 0.26996694340369265, 0.27198482716257094, 0.27397464067974764, 0.2759485009636269, 0.27799586882144267, 0.27992565431295735, 0.28180221650245557, 0.2837125284876206, 0.28561350064019614, 0.2874898261556156, 0.28934904714863385, 0.29111457917950617, 0.29294721136416385, 0.29480139196074867, 0.2965817157084135, 0.29834116084915474, 0.3000205719811099, 0.3017442000985464, 0.3034697758192489, 0.3051385603096097, 0.3067831048711302, 0.30840648785546493, 0.31000097731533677, 0.311625456133571, 0.313162059578253, 0.31467561692427704, 0.3161583105226516, 0.3176239501607572, 0.3190532008107097, 0.3204673539036561, 0.32185347625157046, 0.3231902851796935, 0.32452124940776944, 0.3257454209023806, 0.32702387614409906, 0.32826646832474043, 0.3296080199658412, 0.3307625048986472, 0.3317821889086579, 0.3328934977011024, 0.33396894802982885, 0.33501194686425695, 0.3360150719897541, 0.3369788339948458, 0.33791039310087156, 0.338805467464167, 0.3397535874495217, 0.3405637507711004, 0.34132457786855996, 0.342071797413351, 0.34278412280908976, 0.34339531698490144, 0.3440441835872052, 0.34465261251522017, 0.34522060044785613, 0.34574811878840445, 0.34625237168062867, 0.3466966000537093, 0.3470976734755726, 0.34746269495044646, 0.347787355818863, 0.34810597293846585, 0.3483449787865937, 0.3485346491312188, 0.3486965477285097, 0.34881802380623117, 0.34889879213413544, 0.3489385944257062, 0.34893719809185875, 0.34889439509151415, 0.3488100008727521, 0.34863554091549576, 0.348473607704442, 0.3483359665318322, 0.34807614373921525, 0.3477760161215758, 0.3473835002211938, 0.34700839486257756, 0.34662376768353687, 0.3461564671944895, 0.3456475186370414, 0.3450899489852202, 0.34449838946714234, 0.34384395309651794, 0.3431707277594341, 0.34245430339715455, 0.3417294460322384, 0.34092302668597324, 0.339996732049737, 0.3391193069112593, 0.3381968934864078, 0.3372336144017342, 0.33622275375344535, 0.3352310870695462, 0.3341270419757834, 0.33298455828137713, 0.3318622612160802, 0.33063540495438387, 0.329363052594955, 0.328066824826256, 0.3267341789633344, 0.3253201224724223, 0.3239199878170268, 0.3225462906644905, 0.32106002611669143, 0.319539158268108, 0.31786971703758005, 0.3162938422420191, 0.31472522767278105, 0.31306216719258817, 0.31136276280750863, 0.3096344465985775, 0.3078630754321401, 0.3060366420330602, 0.30419965942967303, 0.3023281378576233, 0.3004331025916012, 0.29849320183484307, 0.29654203767291376, 0.2945361459104948, 0.29250058138691604, 0.2903736368806657, 0.28828783301920163, 0.2862495440868754, 0.2840909761498985, 0.2819069312716617, 0.27971838340414024, 0.2774816207983301, 0.27522839166811186, 0.272944255582379, 0.2706376684351163, 0.26830892230396564, 0.26595836493558395, 0.26350702430151896, 0.26112412054229966, 0.25871627907004635, 0.2562363482786936, 0.253788176578871, 0.25130535288931233, 0.24881131616331412, 0.2462951664962979, 0.24380656838122997, 0.24124406409275426, 0.2387281087536039, 0.23612737428718647, 0.23351606773287828, 0.23083922209718416, 0.22821455209678987, 0.22561853281459945, 0.22296395800416646, 0.22030063823562776, 0.2176256205200519, 0.21494677400961684, 0.21227438268562793, 0.20957971079363918, 0.20687972000122734, 0.20410593923515355, 0.20140570793134308, 0.19872217027462352, 0.19600514470986213, 0.19328433573361026, 0.19057099773342068, 0.1878440036246483, 0.18513717517110936, 0.1824072622176616, 0.1796795274298078, 0.17686830840838325, 0.17415768601219686, 0.1715187522835076, 0.1687987607740735, 0.16608469004170373, 0.16332540786095548, 0.16063162807282472, 0.1579703970497548, 0.15528408699924354, 0.15260637732818702, 0.14991043067796828, 0.1472557115360814, 0.14459997043780137, 0.14196618440623415, 0.13934303696870043, 0.13679707069298108, 0.13418979654112917, 0.131565139257517, 0.1289968151289996, 0.12644438438917627, 0.1239154248833028, 0.12139592827749228, 0.1188567561617107, 0.1163792232256238, 0.11391903394399577, 0.11145292883877592, 0.10903313008739103, 0.10666639780223626, 0.10428032723094217, 0.10191664626045047, 0.0995966496459143, 0.09727688464011901, 0.09492718485681388, 0.0926653428187129, 0.09042645551532612, 0.08832869406610787, 0.08612335437372573, 0.08386020779795314, 0.08172980333923487, 0.07962587413434623, 0.07752834042146772, 0.07548182737022104, 0.07353488756816347, 0.07153413091772497, 0.06956592028840465, 0.06755782692375177, 0.06566402320250961, 0.06377475515458847, 0.061942096218894176, 0.060217505191734216, 0.05843300618483411, 0.056683190136205215, 0.05502330028092589, 0.05333597669773655, 0.051603758793866215, 0.05000239758957525, 0.04843365520684911, 0.04697387824607394, 0.0454620245556844, 0.0438916143291281, 0.04246784056246784, 0.04107621298244223, 0.039800145074506646, 0.0384640544198628, 0.03716290646297383, 0.03590379644950767, 0.03468243425212536, 0.03347451089759909, 0.03233126104631966, 0.031334432218217, 0.030249299250578333, 0.029206531002508026, 0.02813283896252494, 0.027181599395314098, 0.026300984440153337, 0.025417632453660754, 0.024572365017387594, 0.02379596778814137, 0.023022151102474263, 0.022232202718187873, 0.02154307319744118, 0.020889053623415713, 0.020294366602240623, 0.01970768868379452, 0.019295641719357635, 0.018764506131579074, 0.018277323252015906, 0.017781027169920176, 0.017384522830295283, 0.017056609983116876, 0.01673072439521837, 0.016443115996410646, 0.016168938083051736, 0.015958928915964225, 0.015846063902789004, 0.015697923809290554, 0.015587646552332282, 0.015490270915563176, 0.015456429076606928, 0.015505194480504232, 0.01553340876777785, 0.015597801182440215, 0.015732107163736082, 0.015862234740458957, 0.016100804563626753, 0.016292830066524034, 0.01652319818053881, 0.016804384657093663, 0.017105839387893063, 0.017394491063192553, 0.017771981432116262, 0.018180190181608283, 0.018649666559905787, 0.01911389075721007, 0.0196609032649979, 0.020179954147643363, 0.020731626345095937, 0.021321817106963886, 0.021934932998549227, 0.02261970601618919, 0.02328725079679747, 0.023985775481834504, 0.02472114429735456, 0.025477734964514828, 0.026297352719016683, 0.027105766935023562, 0.02794300584997092, 0.028863286537264735, 0.029748290135558145, 0.030648675077657696, 0.03159258608460286, 0.032562606878101696, 0.03368554056191949, 0.03468907534824845, 0.03569241118834258, 0.03675989005560268, 0.03785326300966131, 0.038995575530484515, 0.040134462758712665, 0.04125963252070764, 0.04245079911755202, 0.043662169890369605, 0.044917392965692804, 0.04616463510273255, 0.04753210724891809, 0.04880641074682794, 0.05010534746289159, 0.05140690858397157, 0.05275395761895993, 0.05420033854725987, 0.05557651137511594, 0.056975650393994715, 0.05834128688917545, 0.05978971591391844, 0.06132367214333729, 0.06279596048786801, 0.06428780982173496, 0.06579486496663378, 0.06732366253249884, 0.06889356804615773, 0.07045261448612535, 0.07202883671882013, 0.07361811975967235, 0.07522721594404246, 0.07681701941598801, 0.07846048438547167, 0.08011642664359471, 0.08184690935608227, 0.0835197999561031, 0.085232667984886, 0.08693360882415788, 0.08865071542569757, 0.09035577155883565, 0.09210694899759994, 0.09384698002839535, 0.09562704996424837, 0.0974184388157007, 0.0992074077027489, 0.10102337122408948, 0.10286732016351542, 0.10470273265653432, 0.10655016591500095, 0.10853730301753318, 0.11039264041911855, 0.11213604786692147, 0.11404536257602588, 0.11596463346767828, 0.11795627258930153, 0.11988846856441565, 0.121752110573132, 0.123723050750423, 0.12570313269118302, 0.12781363033016577, 0.12979816034178882, 0.13180341576021526, 0.13382146563158767, 0.13585588895389789, 0.1378648285276255, 0.13993597393976087, 0.14198900123196054, 0.14409005593272675, 0.14620253102185687, 0.1483337154271288, 0.15046930457192695, 0.1526040145552393, 0.15476748814201496, 0.15694368871489617, 0.15911575692099295, 0.1613207624636738, 0.16366634942296657, 0.1658815016128173, 0.16811767794190913, 0.17026386711710162, 0.17255441179560993, 0.17485144302730293, 0.1771702332727634, 0.17950318658113953, 0.18180948614303197, 0.18417775122000427, 0.1865940540371379, 0.1889858551433931, 0.1913947409479677, 0.19383150723261455, 0.19627456613558394, 0.19872621944766447, 0.20120879738228764, 0.20371037264556852, 0.20622789280187045, 0.20876908441780842, 0.21139236254389157, 0.21396604224117907, 0.21656397057987528, 0.21917222812024761, 0.2218201064168905, 0.2244360569677741, 0.22713763438211704, 0.22985971671812022, 0.23260639474610015, 0.23537093667722028, 0.2381752535140757, 0.24098317492629698, 0.24381560345666708, 0.2466073116099478, 0.2494980609169231, 0.252414101742063, 0.2553489570351017, 0.2583075010044456, 0.2612869867334079, 0.2642954036360691, 0.2673051180054337, 0.27036808382170596, 0.27345282811065375, 0.2765673876399996, 0.279708320094035, 0.28293145140030307, 0.28611993110257455, 0.2893257607497776, 0.29257831660473593, 0.29586131473617144, 0.299126607073611, 0.3024770893796544, 0.30582128083939375, 0.3092331081543516, 0.31267225695840056, 0.3162015677924106, 0.31968960213935355, 0.32315862883666163, 0.3267187317713805, 0.33030871336441636, 0.334022181295571, 0.3376613909095434, 0.3412229843758987, 0.34494866504950017, 0.34870336418445713, 0.3525497607598106, 0.3563562608315709, 0.3601518847156996, 0.36403189406745484, 0.36794311041833033, 0.3718857719369545, 0.37586007515537756, 0.3798868831550645, 0.3839222890398054, 0.3879908659008119, 0.3921270123960069, 0.3962572284594306, 0.40042219439730664, 0.40462149484830867, 0.4088547389581771, 0.413052538828591, 0.4173613030078582, 0.4216887217232403, 0.42605703478451684, 0.43045416386422103, 0.43486994659846673, 0.43932652370075653, 0.4437979159882893, 0.44831357053230186, 0.45285719643332895, 0.4574978973228625, 0.46208893021347697, 0.46666355689778166, 0.4713238550493886, 0.47601205231930666, 0.4807417130349682, 0.48548320740771655, 0.49019388035990896, 0.49499802068004406, 0.49982577604018247, 0.5047254344711759, 0.5095941618456115, 0.5144440574008371, 0.5193698912331974, 0.5243179747841733, 0.5292362557524406, 0.5342344589793762, 0.5392440697156211, 0.5442797306861756, 0.5493331489015251, 0.5544283152535503, 0.5595136090188455, 0.5646793771034732, 0.5697929307698344, 0.5749270793834299, 0.5800495796748475, 0.58522531455794, 0.5904785346032851, 0.5956762860119094, 0.6008911424196052, 0.6060147315375487, 0.6112731878750506, 0.6165490535780931, 0.621819908331634, 0.6270975147220472, 0.6324122994992015, 0.6376975365966701, 0.6429512628763412, 0.64825317209, 0.6535573394558458, 0.6588526724239365, 0.6641603977932795, 0.6694363836904307, 0.6747458844423438, 0.6800513361869908, 0.6854142250480812, 0.6907017650813524, 0.6959900985583148, 0.7012705658050775, 0.7065459355844481, 0.7117424078273117, 0.7170127615885673, 0.7222113219148251, 0.7274621151160822, 0.7326949795933165, 0.7379129914869228, 0.7431083255246855, 0.748329335414638, 0.7534799182654882, 0.7586123391258912, 0.7637150280799393, 0.7688087640073454, 0.7738904059938236, 0.778936758836315, 0.7839588628501365, 0.7889450614467445, 0.7939160595522274, 0.7988237923452728, 0.8037404077942527, 0.8086238522966297, 0.8134248360074767, 0.8182450721141089, 0.8231091921551396, 0.8278403803451967, 0.8325357997863215, 0.8371387252249697, 0.8417650779060849, 0.8463066871168705, 0.8508506088217657, 0.8553468368709797, 0.8598464019669113, 0.8642384336810567, 0.868545327834494, 0.8728464787012792, 0.8770956792623091, 0.8812298096630338, 0.8853799230087008, 0.8894784088646075, 0.8935100140975609, 0.8974822457275718, 0.9014150307629736, 0.9052635100700859, 0.9090340390356316, 0.9127622282426504, 0.9164265823593476, 0.9199881819204895, 0.9235267647954316, 0.9270275016137036, 0.9304236447495067, 0.9337511711923832, 0.9370331979757525, 0.9402173184272576, 0.9432275341500872, 0.9462827603195372, 0.9492593743430128, 0.9522226098432006, 0.9550326378599407, 0.9577596259100989, 0.9604172029976377, 0.9629961811266317, 0.9654576519563559, 0.9678814021932756, 0.970294096645063, 0.9725410461971447, 0.9747073433898532, 0.9767952392730527, 0.9787962611882677, 0.9806167928399124, 0.9824612597515475, 0.9842144163764293, 0.9859658384945937, 0.9875245471288502, 0.9889343060273029, 0.9903262285962673, 0.9916259542703336, 0.9928469450776723, 0.9939595062615177, 0.9949106034351007, 0.995846552210904, 0.9966853102504762, 0.9975512618574554, 0.9981803433807128, 0.9986919296272053, 0.9991437671656768, 0.9995023511618404, 0.999660162161813, 0.9998441992614766, 1.0, 0.9999739557620544, 0.9998522026495281, 0.9996138454561537, 0.9993027575028296, 0.9988736276104675, 0.9983705645534973, 0.9977691770060841, 0.9970766426485587, 0.9962785578812127, 0.9954558260105304, 0.9944545685770798, 0.9933607192573326, 0.9920773220186682, 0.9908096018683736, 0.9894086282036195, 0.9879484802553617, 0.9863890255293305, 0.9847484550164896, 0.9829909680504383, 0.981124016037903, 0.9791776309576604, 0.9772224325118842, 0.9750757463483223, 0.9728403581885521, 0.9705404856129501, 0.9681249048158104, 0.9656085982291919, 0.9630210168079378, 0.9603460287780009, 0.9575046534555973, 0.9546661239972577, 0.9517681589201044, 0.9487459339875259, 0.9456373731243651, 0.9424744629047009, 0.9391921065996055, 0.9357762331106573, 0.9323376472852221, 0.9288159198726987, 0.9251536334071565, 0.9214767764609593, 0.9177551712153683, 0.9139098063253327, 0.9099872216454301, 0.9059783600209673, 0.9019065264895406, 0.8978332359475087, 0.8936057615362604, 0.8893111675067669, 0.8849743895040996, 0.8805449114543497, 0.87595214069748, 0.8714096662690872, 0.8668000088685064, 0.8621525213236253, 0.8574102144874567, 0.8526764429405874, 0.8478058914189505, 0.8428816336810643, 0.8378735236759309, 0.8328485957190468, 0.8277539322279339, 0.8226276051881021, 0.8174506224579599, 0.8123108357903827, 0.8070263823691252, 0.8016077090979602, 0.7962538590394117, 0.7908556580424672, 0.7855391825482797, 0.7800420915838964, 0.7743405697213793, 0.7688023284385551, 0.7632242442052741, 0.7576742929680441, 0.7520153802410184, 0.7462306744215965, 0.7405273054860844, 0.7347926778044287, 0.7291707279260035, 0.7233629526043769, 0.717445769052298, 0.711618368462362, 0.7057717030319944, 0.6999939955393023, 0.6941037110915548, 0.6881288389648194, 0.6822319826401614, 0.6763245887465549, 0.6704741142459693, 0.6645429982866056, 0.6585243427322883, 0.6526028862563362, 0.6466779363057673, 0.6407757095408199, 0.6348468468539513, 0.6288356006489456, 0.622927141661049, 0.6170211480204113, 0.6111855620076067, 0.6052832320710393, 0.5994007742581616, 0.5935250767021221, 0.5876658518322794, 0.5818038761900879, 0.5759846538227512, 0.5702507349998501, 0.5644643239159374, 0.5587045566577528, 0.5529276171689692, 0.5472299854900687, 0.5415390238282674, 0.5359002690609472, 0.5302907237197474, 0.5247913919036932, 0.5192350903963118, 0.5136309609709417, 0.5081633342219404, 0.5027311097664969, 0.49728417576180056, 0.49193419938208083, 0.486711233731129, 0.48142639793730724, 0.4761876052272, 0.470902679224238, 0.46577074980995425, 0.46077235915713327, 0.45571846750647593, 0.4507168318414162, 0.445751041431879, 0.4408586367061922, 0.4359993611983144, 0.43121823567837503, 0.42649174760050296, 0.42183136840410146, 0.4172161608878777, 0.4127215203651604, 0.4082162758489015, 0.40377477023071157, 0.3993386988275519, 0.3950332036969127, 0.3907479218033457, 0.3865718262112265, 0.38245682062138164, 0.37841442371903156, 0.37442370575721323, 0.3704599572989257, 0.36660474918567343, 0.362813985325731, 0.35905419970402047, 0.3553997247101766, 0.3518796354513697, 0.34834823391249176, 0.34488809226381933, 0.3415167638682268, 0.3381978324101788, 0.3349139918135783, 0.33174604670611607, 0.32864918527170567, 0.3255961736341671, 0.32264604041660966, 0.3198733929911702, 0.31705120471540316, 0.3143063665417908, 0.3115934751351963, 0.30900742857028995, 0.3065257744163636, 0.3040824033301269, 0.30171395815151786, 0.2993165581461704, 0.2971100021220945, 0.2950577986903475, 0.2929769936935107, 0.2909700040114596, 0.2889950247992762, 0.28713971564654933, 0.28543062266460983, 0.28370623064035333, 0.2820561913033044, 0.280331330833293, 0.2788464307202455, 0.2775150041098041, 0.2761467403596873, 0.2748480887886068, 0.27352882902324255, 0.27237923000722764, 0.2712995454214899, 0.27027525093832827, 0.26931454687281337, 0.2684932315329702, 0.26764965688343073, 0.26681809595181083, 0.2661149802909141, 0.26547404400368724, 0.2648429995848184, 0.2643313410389658, 0.2638496213544263, 0.2634562882813331, 0.26311834317275906, 0.26283556949551284, 0.26260764373835077, 0.26253767159975916, 0.26240500125095156, 0.2623314696435529, 0.2622603685702615, 0.2623076506565985, 0.2624411074194433, 0.26258640839121317, 0.26278338444861454, 0.26296863843622487, 0.2632729851466048, 0.2635871980938692, 0.2639839029929152, 0.26442148021307493, 0.26495801058590107, 0.26546808203316447, 0.2660237830656818, 0.26661650126266634, 0.26724904259071014, 0.2678890460844434, 0.2686012547823354, 0.2694166619689262, 0.27018746224376805, 0.2709631437950017, 0.2718080986093067, 0.2726839948061933, 0.27351360099634575, 0.27445705063757536, 0.2754750301706745, 0.27645678737645035, 0.27746278495055243, 0.27856426272651774, 0.27960588819624865, 0.28056859758903047, 0.28167071333594723, 0.2827880598328672, 0.28389217721386306, 0.2850408728524991, 0.2862419733485616, 0.2874066713881983, 0.28858312879163334, 0.28967697815550486, 0.2908851494480918, 0.2922239401224179, 0.2934213865691967, 0.29462793391724407, 0.29576945757416134, 0.29699845555736804, 0.2981828165230115, 0.2994170134279021, 0.3006470440851223, 0.30195166427176184, 0.30316141841090855, 0.30430386325706404, 0.3055169982523845, 0.306721898609078, 0.30790393408149563, 0.3090915979622525, 0.31031254197839625, 0.3114705732175607, 0.3126179134718286, 0.313680877413672, 0.31481237097202536, 0.31588066306029905, 0.31698058262613626, 0.3180584623045644, 0.3192416868358554, 0.3202583684544767, 0.3212107385820667, 0.3221999951184031, 0.3231675459372615, 0.324198662754274, 0.3251089120876186, 0.3259924529317647, 0.3268623280278332, 0.32770885004129446, 0.32845127847316535, 0.32925710491414684, 0.3299795010493051, 0.33072804497233144, 0.33144101972740514, 0.33215628965292976, 0.3327929840129862, 0.33345445709366117, 0.33401541450952216, 0.334544687259454, 0.3349998546044821, 0.33546802921909447, 0.33590280896482155, 0.33629636434068416, 0.33665229850910194, 0.3369735716035522, 0.3372523738339898, 0.33743021786567406, 0.33763872894719266, 0.3378040143752933, 0.33791925794989613, 0.337999182677232, 0.3380736006700131, 0.3380618354519005, 0.3380087902658295, 0.3378934447617208, 0.33775953152944277, 0.3376098963343551, 0.3373857454078965, 0.3371196372382412, 0.3368595769982409, 0.33650255737318197, 0.3360985673603001, 0.33566168539717606, 0.3351832316415945, 0.3346628178518644, 0.33410011839888504, 0.33349486640786374, 0.3328468501780024, 0.33215590986181176, 0.33147714865307826, 0.33069309237065764, 0.3297792907288961, 0.3289261098470107, 0.32802711634105003, 0.3270448268632326, 0.32606042614895037, 0.32503638376919874, 0.3239587798448781, 0.3228364903149723, 0.3216494319365799, 0.3204422305242884, 0.31930485667581354, 0.3179958798302123, 0.3166506613821119, 0.3152240883660149, 0.31381139388660584, 0.31229042922488665, 0.3108083128716102, 0.30928380909546094, 0.3077282308852027, 0.3061204782678018, 0.30454268564619397, 0.3028488473388311, 0.30112131736726316, 0.2992739891468794, 0.2974905358175051, 0.2957451273634573, 0.29387733950812195, 0.2919779236761993, 0.2899850895828774, 0.28803129239580766, 0.28612975899512827, 0.28409798514322837, 0.28203891439525086, 0.2799423997029515, 0.27783072749996524, 0.27566093039424444, 0.2734995234318487, 0.27131029172857696, 0.2690457227188084, 0.26680935238033615, 0.2645828139002864, 0.2622865853323626, 0.2599667082004984, 0.2576584977963386, 0.25528938154174213, 0.2528319607925532, 0.2504335322613759, 0.2480130497972127, 0.24564414118848552, 0.2431738271941114, 0.240650932345735, 0.23815664781114634, 0.23564660033000845, 0.23305953528634613, 0.2305283975167621, 0.22804960624195433, 0.22547775437159065, 0.22289575037601633, 0.22027666574608296, 0.21767990032538181, 0.2150355572732472, 0.21242530033791918, 0.20980516852290504, 0.20719018412547405, 0.20455216182509495, 0.20194650488522944, 0.19929346076962307, 0.19663886057573465, 0.19399021972324973, 0.19133349279752757, 0.18872234909426833, 0.18606199762980719, 0.18340611277875613, 0.18068250485521925, 0.17804561146209325, 0.17537561539715024, 0.17274691615684218, 0.17011969187756623, 0.16758490012853933, 0.1649529230778649, 0.16233097895020296, 0.1597194097797557, 0.15711859898408145, 0.15452896649486092, 0.1519509642420683, 0.14932985770298546, 0.1467835595915276, 0.1442472991789535, 0.1416979038254993, 0.13918768197026374, 0.1366544611109473, 0.13417268155684406, 0.13170253472114654, 0.12939018051742707, 0.12692855712389464, 0.1244694161847148, 0.12205661040948043, 0.11966555807550208, 0.11723773465699057, 0.11489806993574787, 0.11257740759900586, 0.11027646894158238, 0.10799594335900824, 0.1056881773133229, 0.10345653353935573, 0.10122032482953532, 0.09903188005635823, 0.09699465472467948, 0.09483081535490524, 0.09269636212312085, 0.09059799015544061, 0.08852087445457608, 0.08645582467627744, 0.08443942308564469, 0.08245120327742693, 0.08045677320363291, 0.07852964794613043, 0.07661191249562554, 0.0747406936167913, 0.07289599678320087, 0.07109214835548051, 0.06930027664683866, 0.06748538268162814, 0.06575782983312306, 0.06405667493085944, 0.062358426098864335, 0.06071504139108619, 0.05909157689638999, 0.05750336448026289, 0.055942816188758744, 0.054541619907111046, 0.05302140715005826, 0.05142723267113388, 0.049993207794664346, 0.04858810963919586, 0.04725021532893197, 0.04589907072171, 0.044634996076240205, 0.04334044894234316, 0.04208058726588004, 0.040778908151039635, 0.03959631689222186, 0.038477055340421305, 0.03734790457673002, 0.03624979421077391, 0.03524464554758953, 0.034200177469733715, 0.033079219963608096, 0.03211589218788419, 0.03117896452132037, 0.030303242978138616, 0.029415578830432533, 0.02855695306466329, 0.027727205357210565, 0.026926158938180532, 0.026177777496380356, 0.02543048687287384, 0.024716082151404518, 0.02402679540045732, 0.02336628854131454, 0.022689262372417897, 0.022090684990043657, 0.02157230095322083, 0.021016650432366068, 0.020488938071081778, 0.01988506810790799, 0.01942463544490564, 0.019081309548044118, 0.018649943224445787, 0.018245031081237727, 0.017807280360359463, 0.017460833199144342, 0.017128827240806263, 0.016825841634986023, 0.016543574066903533, 0.016388877237355774, 0.01613410290708489, 0.015805476134497162, 0.015614699819937787, 0.015442401358991002, 0.015419558729357224, 0.015267129992564061, 0.015084744390017354, 0.014988495587556026, 0.014911875706722236, 0.014819697656272895, 0.014784691680448638, 0.014820637210921746, 0.014809798271714513, 0.014817127562097071, 0.014848728256108126, 0.0148891682486508, 0.014973498865585104, 0.015042277015173161, 0.01512744926771662, 0.015224676505243956, 0.015340466653251643, 0.015487215307337023, 0.015627528692304393, 0.015781146435335017, 0.016057728150608932, 0.01622173486819694, 0.016385823741617733, 0.016585160556501367, 0.01679796165679083, 0.01706107721929518, 0.017292779490120817, 0.017461120174071344, 0.01772639438222417, 0.017997789879205438, 0.018306040123305587, 0.01858478996079106, 0.018904973837531314, 0.019192667312220937, 0.019488173360356808, 0.01983560391110388, 0.02013887846410266, 0.020553947283815047, 0.020859731417408437, 0.02117781215044929, 0.02149969285273502, 0.021838631852481125, 0.022140347287500042, 0.0224991741103681, 0.02286112197288759, 0.02333960026573662, 0.023692034816720563, 0.024076880055527338, 0.024441524781316056, 0.024813440631381217, 0.025250138873828293, 0.025625863363323176, 0.0260056596080495, 0.026395632243031205, 0.02679062956411707, 0.027227713948406743, 0.0276253960393369, 0.027979595947312537, 0.028392185453397462, 0.02880529817018212, 0.02926701416246209, 0.02967442078240557, 0.030170789495033004, 0.030572187791641746, 0.030980241274962, 0.03132146641678637, 0.031749100347586524, 0.03226644136573509, 0.03268267739771583, 0.03310392627029507, 0.03348465247297535, 0.03391969431486846, 0.03440386071932503, 0.03483442047616022, 0.03526854654002069, 0.035671416284960344, 0.036116174443125516, 0.0365583943230507, 0.037005585715352875, 0.03745385954623152, 0.03805184096551144, 0.0384842413981114, 0.03890609299690515, 0.0393605008270287, 0.03982221235184763, 0.04031837466037089, 0.04078992936940623, 0.04130377432928531, 0.04178613482436409, 0.04227753057372075, 0.04279474380472217, 0.043300730837156874, 0.04371212289346827, 0.04424877262519433, 0.04478806602707989, 0.045389403837075404, 0.04592875265741689, 0.04646582839934918, 0.04702284830154298, 0.04758781320264277, 0.04814383131422044, 0.04872797727696048, 0.04945483461476199, 0.050038777208935105, 0.05063951678285247, 0.05118405890432515, 0.05182610990698681, 0.05250730427216968, 0.053169352919685345, 0.0538453427471879, 0.054538964049437526, 0.05524316449232422, 0.0560106645372099, 0.056739067466461256, 0.05748587853408717, 0.05817174445174065, 0.05896553498788106, 0.059849471904180454, 0.06066297907342661, 0.061496673304894264, 0.062343857646826234, 0.06321946781279422, 0.06408459239778716, 0.06500568128070687, 0.06594644512911516, 0.06687999258046576, 0.06786573707409153, 0.06895800545226874, 0.06997426221918893, 0.071017411636948, 0.0720254951279791, 0.07313081238369165, 0.0742912303822082, 0.07544151544534011, 0.0765363612525358, 0.0777523984009316, 0.07899221349933473, 0.0802949687652281, 0.08158107268576727, 0.08285851402534437, 0.08420870283819944, 0.08558742116005476, 0.0871302123866097, 0.08855179583398255, 0.08992590901192728, 0.09143573303811771, 0.09297906820112145, 0.09451165223168005, 0.09612946830322629, 0.09779729655512297, 0.09947937351479903, 0.10119697532569406, 0.10292662817495032, 0.10472035162753476, 0.1065674595806485, 0.10843205589621313, 0.11033529143667853, 0.11230533721633755, 0.11428402940502248, 0.11629763261376119, 0.11836110039880098, 0.1204665570116902, 0.12263160538125918, 0.12481990222892413, 0.1270867059055397, 0.12935883929525308, 0.13167732876504046, 0.13390063952202494, 0.13632962766759485, 0.1387970090747347, 0.14130398462529248, 0.1438516412668958, 0.14653068450650805, 0.1491512109256929, 0.15173039938049745, 0.1544590374760683, 0.1572310350638097, 0.1600919999693725, 0.16294720406236252, 0.16579507858127382, 0.16875319909872563, 0.17175642042505132, 0.174805318181018, 0.1779003963072284, 0.1811145614226501, 0.18429409116058867, 0.1875250056600999, 0.19074142595317475, 0.19408248809379458, 0.19742897804351847, 0.20086923036115809, 0.20435450076321812, 0.20792671108665028, 0.21149822958613443, 0.21505280614944192, 0.2187298048416183, 0.2224516033534859, 0.2262117162239772, 0.2300251465512223, 0.23390468270714723, 0.23780652101576086, 0.2417552953548485, 0.24581648487236454, 0.24985053484645106, 0.25395551609375455, 0.25808666491679316, 0.2622677623550162, 0.2663702817452293, 0.27066493164012695, 0.2749965054824526, 0.27937263633127796, 0.2837894381105135, 0.2882746482073566, 0.2927696038891183, 0.2973586762147275, 0.3019314581844002, 0.3065487862043522, 0.31111320431339123, 0.3158293632093375, 0.32066501647209694, 0.32544403354201945, 0.3302642504125304, 0.33510065884054796, 0.3400037811124101, 0.3449269579667471, 0.3499062389289084, 0.3549205564570473, 0.3598934448689026, 0.364985757354103, 0.37022097288690997, 0.37535688980541027, 0.380528024621577, 0.3856365863736747, 0.3908868985273925, 0.3961635732519186, 0.401466280259745, 0.40679460643060134, 0.4121860223277501, 0.4175592500532284, 0.42301031969072067, 0.42842817357870994, 0.4338730228853455, 0.4392433589982638, 0.4447505906332522, 0.4502853617906675, 0.45582512766031646, 0.4613815251460293, 0.46698485443258153, 0.47256826228721754, 0.47808134558035154, 0.4837064033536996, 0.4893402504070494, 0.4950755809630393, 0.5007136917597336, 0.5063330471553549, 0.5119982014042754, 0.5176709600087476, 0.5232880095623631, 0.5289802244609926, 0.5347384919648465, 0.5404226523306345, 0.5461094336818315, 0.5518112386452457, 0.5574973203355579, 0.5631619082862753, 0.5688475368107062, 0.5745282451478864, 0.5801820358139206, 0.5858516397949104, 0.5915354256993401, 0.5971808867749413, 0.6028154247007526, 0.6082720163083746, 0.6139015129807491, 0.6195791279209049, 0.625150722470919, 0.6307017941657427, 0.6362107083552015, 0.6417205051185342, 0.6472643232950462, 0.6527164944969999, 0.658145411354442, 0.6635392132765873, 0.6689184174564936, 0.6742244337871595, 0.6795512658813346, 0.6848444719003846, 0.6901754928883581, 0.6953891603733294, 0.7004975998085455, 0.705653193376235, 0.7107685708682421, 0.7158461366821474, 0.7208774742045794, 0.7258275985275097, 0.730776071425554, 0.7356768299191111, 0.7405289927643944, 0.7453316308282796, 0.7501320859739052, 0.7548266190841577, 0.7594713266877867, 0.7640440546379331, 0.7685874105447383, 0.7730099487111819, 0.7774498922049236, 0.7818285091800875, 0.7861934507478445, 0.7904412655211449, 0.7946248675936691, 0.7987503974884231, 0.8028125894718775, 0.8068033986370678, 0.8107363697213109, 0.8144641869537312, 0.8182793243746119, 0.8220175051459367, 0.8257443729265339, 0.8293204541227174, 0.8328472797958745, 0.8362726965025163, 0.8396244634174498, 0.8428014886287696, 0.8460155737890461, 0.8492992249242861, 0.8523294003391458, 0.8552854120797919, 0.8580207865356957, 0.8608422786025988, 0.8635702309126284, 0.8662192063873783, 0.8687808613828207, 0.8712377560223864, 0.8736263381855717, 0.8760328902186569, 0.8782297395420993, 0.8802637814746435, 0.8823026495161334, 0.8842514140308728, 0.8860855567532483, 0.8878560693309195, 0.8896513327559448, 0.8912216598093138, 0.8927055846489194, 0.8939673465905114, 0.8952920593933066, 0.8965989655247265, 0.8977194888094199, 0.8987476413935815, 0.8996621921282727, 0.900506690070848, 0.9012424121435921, 0.9018984868603669, 0.9024583891919281, 0.9029565607631496, 0.903319564047681, 0.9035433023289423, 0.9037228639579861, 0.9038049413714466, 0.9037275716549551, 0.9036229954181058, 0.9034834835120964, 0.9031702786545097, 0.9027615316387824, 0.9022400311407112, 0.9016425393913985, 0.9009556546811284, 0.9001649698594641, 0.8992789282275446, 0.898256359580486, 0.8971855841760543, 0.8960972887628498, 0.8948233416262935, 0.8934582312504534, 0.8919501734062474, 0.8904092902616085, 0.8888262507011587, 0.8870915824824134, 0.8852671071537805, 0.8833806354829594, 0.8813737311368058, 0.8792034510863823, 0.8770313984263146, 0.8747680409969587, 0.8723832543355589, 0.8699440099770427, 0.8674662699228072, 0.8648411393946487, 0.8621309796363641, 0.8593261466650561, 0.8564493961672587, 0.8534927097002437, 0.8504496367155633, 0.8473251655302476, 0.8441409013249903, 0.8408537392732731, 0.8374718575192188, 0.8340327507622043, 0.8305168626039923, 0.8269528282383632, 0.8232829932494716, 0.8195617821598367, 0.8157460384416167, 0.8118611682511038, 0.8078596594994738, 0.803845109215889, 0.7996991916445346, 0.7955553571416237, 0.7913415164161156, 0.7870629885854268, 0.7827142451735927, 0.7783459863804875, 0.7738645016643718, 0.7693244907063692, 0.7647306607396409, 0.7600769478078544, 0.7553411172341652, 0.7505831544595385, 0.7457717131432893, 0.7409221385038679, 0.7360066107165016, 0.7309670589636778, 0.72596632949739, 0.7209160605932137, 0.7158942086361837, 0.7107413061665957, 0.7054972804343806, 0.7002734511632226, 0.6950098825683293, 0.6897980181429021, 0.6844487619414671, 0.6789974195951659, 0.6735990212290466, 0.6681688706606098, 0.6627189706387772, 0.6572289441979333, 0.6516988563607791, 0.6461595920820724, 0.6405963617282315, 0.6350211639570471, 0.6294136178213005, 0.623735824364004, 0.6180993826116978, 0.6124446074230795, 0.6068010498414356, 0.601111897138594, 0.5954357972088621, 0.5897229632660447, 0.5840035296641799, 0.5782339980725398, 0.57251114049115, 0.5668661155420904, 0.561124568734803, 0.5553861646879695, 0.5495967139247403, 0.543874702178011, 0.5382215244104306, 0.5324993633615914, 0.5267873425269223, 0.5210278378189568, 0.51534668454405, 0.5096756364703755, 0.5040163290081662, 0.4983703691888317, 0.4927220821494441, 0.4871097112110949, 0.4815005753391636, 0.4759256670290759, 0.47037026082933026, 0.46484292755711226, 0.45933060834081474, 0.4539051496592465, 0.4484359337703801, 0.44299784836864564, 0.4376021446971848, 0.4322277364892779, 0.42685331022603723, 0.4215531365824787, 0.41628732313955064, 0.4111053978173727, 0.40590582607492265, 0.40069515801874794, 0.39558423948732974, 0.3905126610334092, 0.38540229567509454, 0.3804231297096172, 0.3755411456856123, 0.3706333795242753, 0.36577087871804553, 0.36096164350739757, 0.3561920595343458, 0.3514506095368853, 0.3467822583488685, 0.34216343029914537, 0.33761242926852447, 0.3330935672781841, 0.32866616614085425, 0.3242502832384297, 0.3198915609483221, 0.3155214055150776, 0.31128701655082175, 0.3070865190827967, 0.30296495054326755, 0.2988987688108316, 0.29483380705874906, 0.2908884423984964, 0.2870086265920004, 0.28317361231294297, 0.2793967884254763, 0.2757895351114906, 0.27211789345408377, 0.2684476595328552, 0.26491806563301973, 0.2614514208329471, 0.25803777672354006, 0.25469951289018367, 0.25138330405575676, 0.2481775824719273, 0.24503370780172964, 0.24199371086903862, 0.2389700728572547, 0.23606398984895852, 0.23316544965497266, 0.23033570054079472, 0.22754673107900736, 0.22485687019612252, 0.22218825741839923, 0.21963617716162992, 0.21714745507186917, 0.2147188645285842, 0.21235790886066092, 0.21001920618746076, 0.2077908983713902, 0.20562404660091257, 0.20358453220533243, 0.20153315770120703, 0.19959246589513008, 0.1976666041381504, 0.1958081622222912, 0.19390243338529922, 0.1921907849005728, 0.19055849594561092, 0.18896172332804156, 0.18746990837970834, 0.18598750034504521, 0.18456733827392396, 0.1831811893228566, 0.18188712778139518, 0.1806656740221654, 0.17948705467630016, 0.17836713707655258, 0.1772466556857019, 0.1762497394577849, 0.17529947529496345, 0.17441035667125362, 0.17357396307730535, 0.17280037375786444, 0.17206722953855466, 0.1713725588207658, 0.17074515956216338, 0.1701681085552482, 0.1696339734263703, 0.1691568473495248, 0.16879350442026275, 0.16840390166719243, 0.16806490953784364, 0.1677718412657496, 0.1675308254988716, 0.1672882829875213, 0.1671458093625861, 0.16704514942917983, 0.1670442463678575, 0.16701759380711972, 0.16700271590937238, 0.16706436019863313, 0.1671645336578976, 0.16733675656039557, 0.16750665257098463, 0.16763120710779467, 0.16788524833960447, 0.16816957743128272, 0.1684594709444528, 0.16880566772569788, 0.16917891881926075, 0.16957868556251748, 0.17000435994945357, 0.17053464187345044, 0.17100002885945087, 0.1714590956067181, 0.1719837637278075, 0.17253180450243158, 0.17311246411782522, 0.1737026207129343, 0.1743065071313672, 0.17493760858039983, 0.17558658354228987, 0.176179849788283, 0.17687039672393617, 0.1775748698354243, 0.17828541012711316, 0.17900550925741052, 0.1798173107055892, 0.18054397226033175, 0.1812895643735226, 0.1820379343073451, 0.18279581639576062, 0.18348585396077663, 0.184268097005909, 0.18502036595109073, 0.18580801355628532, 0.1865935852813523, 0.1873662193582312, 0.18814736212737732, 0.1890104234617832, 0.18977136970369446, 0.19053159201114583, 0.19128972361993754, 0.1920444471732418, 0.19271857225888564, 0.1934723094274785, 0.1942146930062324, 0.19500730140079686, 0.1957174725558423, 0.19642840503440223, 0.197116947253433, 0.1977942429173411, 0.1984039323016656, 0.19906232436948593, 0.1997548305648524, 0.20037080589301243, 0.20097087308135864, 0.20151605264261635, 0.20208608515950027, 0.20261443645465502, 0.20314453799014487, 0.2036513048224819, 0.20411359769069953, 0.20457499164954235, 0.20501743392466165, 0.2054259330663326, 0.20580830567509412, 0.20616067528789647, 0.20648994085618416, 0.20682953209773572, 0.2070983019370411, 0.2073407047559735, 0.20750078189099708, 0.20769523455633543, 0.20790985897411915, 0.2080343886601756, 0.20812981966851163, 0.2081713451911955, 0.20820971931684978, 0.2082779161410142, 0.20824350422520363, 0.2081796040091216, 0.208040531213995, 0.20792093295771824, 0.20772221790046697, 0.20753952802159914, 0.20731957435754153, 0.20703833951374648, 0.20674730021184376, 0.20642832898054295, 0.20605967183109855, 0.20565379159237882, 0.20517283129160913, 0.2046975940477191, 0.2042557283652031, 0.20369349817826865, 0.20309692033161175, 0.20244498694117014, 0.20178146370985905, 0.20106783725297012, 0.20033343850919783, 0.19956193730570052, 0.1987983149433551, 0.19794729857286789, 0.1970310082873696, 0.1961152590290738, 0.19516314729783676, 0.1942024033853462, 0.19317446127433893, 0.19210867164512369, 0.19101232146134847, 0.18988132268627647, 0.1886674248649536, 0.18747345859137005, 0.1861941099512471, 0.1849326625863269, 0.18363251606217343, 0.18241880702349675, 0.18102820873062922, 0.17957391533633268, 0.1781290545413556, 0.17665264820676066, 0.17512072534306097, 0.173584874499083, 0.17201333502767047, 0.1704139278064089, 0.16878306093290346, 0.1671212577674008, 0.1654290452807499, 0.1637518163155066, 0.16199471214741668, 0.16021132625101203, 0.15838804277633906, 0.15655445301516557, 0.1546807160277925, 0.15279662455512283, 0.1508863215373445, 0.14887448886030408, 0.1469231740006387, 0.14506054524945067, 0.14303834304922175, 0.14099648452362054, 0.1389316822693758, 0.13685150050003833, 0.13465206581187053, 0.13254654529607524, 0.1304169994506229, 0.1283095392421028, 0.12612995477617397, 0.1239255229948352, 0.12171163469726616, 0.11948084060520606, 0.11719594715605831, 0.114938431111485, 0.11266415317275813, 0.11037416210652891, 0.10806946290947717, 0.10571306133422068, 0.10338660616781944, 0.10112547596060797, 0.09876206904366175, 0.09639135658151594, 0.0941034780304683, 0.09170808815292296, 0.08921168530654257, 0.08682684800833981, 0.08443511587830291, 0.08203727843827165, 0.07963411563091419, 0.07724020189813138, 0.07482694723213018, 0.07243213467672717, 0.07001237128783781, 0.0675927842793819, 0.06516695271617637, 0.06275005848428632, 0.060261998682958104, 0.05785747477744687, 0.055451399088373564, 0.05312779337907908, 0.05071167773103509, 0.04836418271749142, 0.045953575549900434, 0.04355369700578718, 0.04106438559583355, 0.03869844666085121, 0.03634796546899444, 0.03399187863331502, 0.031643340493641, 0.02942737495538751, 0.027080579397179897, 0.02467469210624746, 0.022370877491329492, 0.020079186247627404, 0.01775183824674134, 0.015492104946653614, 0.013198534489763518, 0.010967453756385921, 0.00874669458060649, 0.006620276603110182, 0.004413197056276081, 0.0021623123234422656, 0.0