0.04514510471084564, 0.04482194775775648, 0.044506542131163555, 0.044233181134282186, 0.043925622267119394, 0.04359656669340301, 0.04330522242868463, 0.04301722510304034, 0.04265063207564896, 0.04237813572291606, 0.042106625560472254, 0.04182892646426332, 0.04154955366697748, 0.041272325417022485, 0.040989974819495435, 0.04076003152067645, 0.04046978209702268, 0.04018220792054725, 0.03986873934349459, 0.03958938899074024, 0.039314036978321115, 0.03903524659887149, 0.038757296020896, 0.038466089165571524, 0.03819180310050616, 0.03798148172456036, 0.03769981437840062, 0.037422325020129286, 0.037162821278619, 0.03689089319109358, 0.0366548926742821, 0.03638674774557918, 0.036123862224989624, 0.03578787490302538, 0.03554398262399816, 0.035356384613708984, 0.03510498149709772, 0.03485706846489676, 0.03452752267980413, 0.03429687538805495, 0.03416367719794519, 0.03391776783451768, 0.0336769111647081, 0.033433724625591736, 0.03320300900647609, 0.03295494108587048, 0.03273457071802986, 0.03251669270981072, 0.03219167492781221, 0.0319929775447656, 0.0319112927727191, 0.031691671951961306, 0.03144900368991438, 0.031243317403563137, 0.031040961963076937, 0.030859730195139552, 0.03066207331846384, 0.030422987898343655, 0.030240271089652677, 0.030059455657952882, 0.02979591863345776, 0.02963062238757744, 0.02950584741999849, 0.029332188067419773, 0.029160693355476004, 0.028995276642892684, 0.028828736613516204, 0.028792982816108807, 0.028617243216381254, 0.02845241199870813, 0.028113550820824083, 0.027991335626601107, 0.027924061372865596, 0.027792192077281973, 0.02766350595379772, 0.027538250930277102, 0.027416645528070223, 0.027408621482808253, 0.027280995400474555, 0.027163690537671255, 0.027063038021599574, 0.026963328704909095, 0.02669182816451997, 0.026631892463646233, 0.026569552944607003, 0.026629757745462144, 0.02654997496519247, 0.02641736819500481, 0.026359638661244453, 0.026305390569289187, 0.02627615087858808, 0.026227011837524933, 0.02621872126637895, 0.02617604006201421, 0.02614086651592386, 0.026059852547428233, 0.026045697885754455, 0.025978788183564444, 0.025979837718950568, 0.025982113208055484, 0.026096030459360944, 0.02608883395313517, 0.026115603322456358, 0.026123226866172668, 0.026140641297810376, 0.026050508704468792, 0.02610078586572792, 0.02631223526014882, 0.02634672135514642, 0.02639316084159313, 0.026355170223663623, 0.026435292497417027, 0.0264951131370998, 0.026587570484311273, 0.026683586618433255, 0.026857907212322958, 0.026952818579291667, 0.027081337534573893, 0.027190465495836508, 0.027309242770597122, 0.02739476544748095, 0.027536998390877, 0.027802213344727638, 0.02794207820712733, 0.028094814959547958, 0.028210001306202874, 0.02839227558721891, 0.0286248671576528, 0.028817294032993466, 0.0290196731738015, 0.029344854445333024, 0.029551596498775406, 0.029656740178232763, 0.029907538189383857, 0.03016484992842913, 0.03045354268682468, 0.030721023136608037, 0.0311029027914119, 0.031373272743684816, 0.031657666818771316, 0.03203308408486392, 0.03233316719839153, 0.03264583647248604, 0.032977459466270446, 0.03332285895866948, 0.03372016323091969, 0.0340858893911887, 0.03443012282701732, 0.034827365814364075, 0.035235113108824226, 0.035677901283263494, 0.036102860931296506, 0.036609976270211876, 0.037048428983622116, 0.03750174376887525, 0.03793027125232286, 0.03841622636135718, 0.03902281985049684, 0.03951662697273828, 0.04002739471484609, 0.04059319370396469, 0.04113049471741679, 0.04164580687677109, 0.04222113257740994, 0.04280976080325628, 0.04341146413219031, 0.044026084161297496, 0.0446889221269431, 0.0453246560359714, 0.04597514586888119, 0.04675696202015927, 0.047421515266354915, 0.04812806957561738, 0.048830451495455125, 0.049552931695070725, 0.05023091725067326, 0.050999179254824854, 0.051756993694939045, 0.0525570902681838, 0.05337024205760688, 0.054246317952726456, 0.055080245129510146, 0.05594510406568746, 0.056810698575113776, 0.05769373400080729, 0.05866489682607844, 0.059573572670488066, 0.06051762504326309, 0.061466391268308294, 0.06243616664324915, 0.06343355930807185, 0.06444313782339327, 0.06539864337788372, 0.06645787988216952, 0.0675327350839463, 0.06870862833719275, 0.06980534123820943, 0.0710051874996842, 0.07213475934760687, 0.07329013393875003, 0.07445989188881966, 0.0756659515053505, 0.07693415058299159, 0.07818133664274701, 0.07945329435227257, 0.08073536319895278, 0.08205725883282837, 0.08328865692600729, 0.08467033495148461, 0.08606828927492956, 0.08763565643106437, 0.08904960277076597, 0.09036702424848726, 0.09185088989108126, 0.093354285128883, 0.09495577567791595, 0.09649039634953835, 0.09794818255761979, 0.09954736437052539, 0.10116651347780281, 0.10281000272415954, 0.10447106617608765, 0.10628202561235868, 0.10797249904288396, 0.10969374948661659, 0.11138862646026515, 0.11317714513992885, 0.11491763819337848, 0.11676835953979983, 0.11864157938233041, 0.12064781944579739, 0.12255443827645209, 0.12444583691624042, 0.12641958056618535, 0.12842101216021912, 0.13035473685780993, 0.13242418160719618, 0.13457668045039414, 0.1366852148850452, 0.13882180333241684, 0.14099026686810257, 0.1431833396308203, 0.14532049238524516, 0.14758258482253064, 0.14986933500735802, 0.1523196617931844, 0.1546407576384479, 0.15698594682685785, 0.159377307510949, 0.16180184574274317, 0.1642380344829932, 0.16673079779956224, 0.1691804792474399, 0.17174516494586875, 0.1743829836915193, 0.17699670534105244, 0.17964131330506372, 0.18217534164753918, 0.18490001563081115, 0.18770818137914685, 0.190473116422835, 0.1932670829803665, 0.19607285873616243, 0.19892849652297176, 0.2017886440845594, 0.20470644383416073, 0.20765297788549694, 0.21073851256208942, 0.21373014522088818, 0.21663059157031206, 0.2197102799347051, 0.22281799664540125, 0.22591890463153158, 0.22908875779713683, 0.23237459585322018, 0.23558884928878823, 0.23883669538718305, 0.24200811765832891, 0.24533620104848972, 0.24868737219174333, 0.25206978734005286, 0.2554797857966532, 0.2589921677211567, 0.2624492281843452, 0.26597457195190155, 0.26949254969027425, 0.27304466007295375, 0.27653822530255184, 0.28016836643902787, 0.2838681661446867, 0.28754751422777397, 0.29125680553246225, 0.2948648249603537, 0.2986498469746275, 0.3025239889031624, 0.30634502115951173, 0.3101931375408081, 0.31399044832792694, 0.31790250213530485, 0.3219185219063385, 0.3258658624576646, 0.3298411822547728, 0.33384056024952613, 0.3378711319053256, 0.3419530888007636, 0.3460333556740156, 0.3501408417456106, 0.3542784826439123, 0.35843816120914446, 0.36251020768418424, 0.3667349084117822, 0.37097772212830105, 0.37534518711913106, 0.37961171285738216, 0.3837543479697694, 0.3880884493773191, 0.39243742349353045, 0.39689375645897973, 0.401262052347732, 0.4056371976451014, 0.41004866269557544, 0.4144790599373498, 0.41891369776694654, 0.4233821375578511, 0.42774317066852907, 0.43225979448055235, 0.4367849964653055, 0.44126261168121184, 0.4458134068109014, 0.45046617322972643, 0.45501819301275404, 0.4595828532036369, 0.4641348145711395, 0.4687261703162038, 0.47327742184162114, 0.47789348607522, 0.4825152338296928, 0.4872132928683108, 0.491836848713286, 0.4964657391868517, 0.5011065018552907, 0.5057539647372269, 0.5102797356861699, 0.5149538529120187, 0.5196069600614289, 0.5242767671003603, 0.5289422885595445, 0.5335857981361176, 0.5382447862758571, 0.5430538250364664, 0.5476814929440216, 0.5523116694969403, 0.5569002156083394, 0.5615358744205743, 0.5660606908646673, 0.5706993710607807, 0.575325220758561, 0.5800371167588882, 0.584623950873238, 0.5890573755461693, 0.5936447225531616, 0.5982130891777099, 0.6027871812130755, 0.6073141118806534, 0.6118972221593562, 0.6163778360607818, 0.6208432046179786, 0.6252743158491805, 0.6297075207077077, 0.6341560250534639, 0.6385434557031178, 0.6429105805807335, 0.6472241650200662, 0.6515506213374463, 0.6558899140883504, 0.6601582308664132, 0.6644006095251821, 0.6685484664193014, 0.6727435389823123, 0.6768094590090893, 0.6809487911435634, 0.6850477900019253, 0.6891949710412524, 0.6932020359053478, 0.6971769564636754, 0.7011111682746364, 0.7050078177845303, 0.7088339753562701, 0.7126563217909481, 0.7163900979597007, 0.7201323582795292, 0.7238278510061734, 0.7274619314534208, 0.7310641584073632, 0.7345534569426336, 0.7380647733268703, 0.7415221458198165, 0.7450210029641886, 0.7483578409153969, 0.7515709901178544, 0.7548173157305818, 0.7580077131640582, 0.7611876249791496, 0.7642585616108822, 0.767373384462136, 0.7703202341139674, 0.7732152484780849, 0.7759645285618363, 0.7787620434056166, 0.7816530677320035, 0.7843055846742265, 0.7869029803370245, 0.7894007153603614, 0.791887217642377, 0.7943034139599708, 0.7966630737551245, 0.7989566168138397, 0.801094464384193, 0.8032637835813865, 0.8053695712740477, 0.8073890382108249, 0.8093344937697837, 0.8111807859692218, 0.8129802131325344, 0.8147596981846565, 0.8163985714715357, 0.8179635464702852, 0.8193370508749578, 0.8207667690590851, 0.8222979384335177, 0.8235393986152126, 0.8247090152371911, 0.825649653319847, 0.8266912623712811, 0.8276520321810559, 0.8285246280635787, 0.8293133634472892, 0.830106779196034, 0.8307166829197381, 0.8312441472333748, 0.8316959127886215, 0.8320670680284793, 0.8322543149561382, 0.8324753643149551, 0.8326826161777097, 0.8327183253668097, 0.8326706777534943, 0.8325216014530126, 0.8323083939789037, 0.83205937530427, 0.8316690252006113, 0.8311958295261952, 0.8305614041454431, 0.8299309153547654, 0.8292083485874944, 0.8284015379312102, 0.8275065811651172, 0.826445893338832, 0.8253853570480191, 0.8243251784876352, 0.8230705227807135, 0.8216673101180234, 0.820251021854217, 0.8187463212847206, 0.8171997853119897, 0.8155140798478254, 0.8137228826241901, 0.8118714641927001, 0.809934842370313, 0.8080407924074863, 0.8059186693718773, 0.8036274963166745, 0.8013623369867118, 0.7990138404629085, 0.7966602490949936, 0.794136350956634, 0.7914603277387, 0.7887900857997194, 0.7860376500512076, 0.7831788732258551, 0.7802670984419883, 0.7773267905590264, 0.7742459236635109, 0.7710881728795328, 0.7678964704602472, 0.7645809919065804, 0.7610757089226674, 0.7576292918937231, 0.7541039443549042, 0.7506001540653952, 0.7469084771938614, 0.7431509594059137, 0.7393205378285794, 0.73542193713501, 0.7313601566093764, 0.7273390851304617, 0.7231897627733409, 0.7190341633441447, 0.7148067984809621, 0.7105024980024434, 0.70613813849742, 0.7017743505033622, 0.6972698428510237, 0.6927058186900936, 0.6881789233080025, 0.6834869964176132, 0.6786839871208172, 0.6738982137284151, 0.6690589743918862, 0.6641779413128691, 0.6592336204375479, 0.6542042935190289, 0.6491663056312794, 0.6440789054628538, 0.63891166708594, 0.6337337724872314, 0.6284842014211269, 0.6232173403975361, 0.6179055507593806, 0.6125365115088853, 0.6071421250915167, 0.6017711174650399, 0.5962898224821177, 0.5907753762704592, 0.5852998106354158, 0.5797138366028014, 0.573957328834573, 0.5683396614566604, 0.562690039056885, 0.5571096732279338, 0.5513898192250531, 0.5455292987645408, 0.5397851640128054, 0.5340162502961012, 0.5282601379375543, 0.5224436542984596, 0.5165611343861919, 0.510719648100658, 0.5048622511082125, 0.4989591253931249, 0.49307999358556925, 0.4872138741288728, 0.4813101909213202, 0.47540028371175097, 0.469507157015011, 0.46358737010656853, 0.45772082849156653, 0.4517961051972373, 0.4458774723142231, 0.4398633161481923, 0.43397302753263034, 0.4281606802966817, 0.42227019461825804, 0.41639141131115487, 0.4104902011666572, 0.4046431275156151, 0.3987813115946552, 0.39296657438096855, 0.38716700235400076, 0.3815011956696479, 0.37572247748493404, 0.36980076035362397, 0.3640980697714683, 0.35841424771602054, 0.3528506279759431, 0.34719854514132925, 0.3415382791379313, 0.3359537496261636, 0.33040003956995345, 0.32498126460693233, 0.3194805537530849, 0.31385432823553744, 0.308456928985989, 0.30309222649658646, 0.29791800684136704, 0.2926049789983436, 0.28720817931292864, 0.28200660439554737, 0.27684591267234954, 0.27181272690269587, 0.26672797316800245, 0.2616369965722838, 0.2566610030872194, 0.2517338007139933, 0.2468814298277528, 0.242052415533776, 0.2372382984276591, 0.23252281923216495, 0.22786085378802476, 0.22336336393785772, 0.21879816478312183, 0.2142430467795078, 0.20981110893383811, 0.20543980668711537, 0.20114756964043815, 0.19689748316380443, 0.19269349261568194, 0.18857379649736683, 0.1845180293311822, 0.1805375202853168, 0.1766103765585212, 0.17282062553558517, 0.16901827916278422, 0.1652876127773053, 0.16156133503571954, 0.15798249212904117, 0.1543618760082256, 0.1509334880045939, 0.147568166589728, 0.14425674856634435, 0.14102312687569893, 0.13797627671258045, 0.13486139689868476, 0.13182182715737958, 0.12872297180138625, 0.12585081110877303, 0.12308160956161136, 0.12034111802784639, 0.11767209122299974, 0.11508209352365369, 0.1125564754753577, 0.1101499612096146, 0.10776489933542853, 0.10545586010761669, 0.10324734906497886, 0.10108639458251305, 0.0989559953032471, 0.09695351661398798, 0.09502406029685376, 0.09324894986032893, 0.09145491873104071, 0.08957524146643389, 0.0879553243812711, 0.08640178750765562, 0.08491870530221647, 0.08349895515591277, 0.08215762850725415, 0.0808722891845319, 0.07965554384282808, 0.07859930359361507, 0.07750765148937565, 0.07649624054570116, 0.07554894461610089, 0.07467309888106466, 0.07386409824783391, 0.07312843683062324, 0.07235826254449715, 0.07177091755574637, 0.07124405950078165, 0.07080944230458738, 0.0703991178413871, 0.0700433944391201, 0.06975670256060384, 0.06953000227977742, 0.06945822213960216, 0.06933742364242337, 0.06921263857341647, 0.06922534596952966, 0.06929452236936226, 0.06933785546900839, 0.06952756338383374, 0.0699257253999205, 0.07019330063906298, 0.07049702668850218, 0.07088029370276414, 0.07131628420660306, 0.07179645559097868, 0.07233443833640577, 0.07293462865060366, 0.07356561113617152, 0.07424284346858333, 0.07492600003074007, 0.07569652423830038, 0.07656013066901604, 0.07740290248342713, 0.07828660701003147, 0.0791637506998059, 0.0801307503647447, 0.08104327324090474, 0.08208848939626914, 0.08316070016604972, 0.08437282961211232, 0.08548353190830528, 0.08660142177567565, 0.08777762634243019, 0.08898130767177151, 0.09027133843450139, 0.09151844491007838, 0.09275354863222043, 0.09405766528210015, 0.09538302051997437, 0.09663267757339986, 0.09800853323314604, 0.09940684283371722, 0.1008044645772527, 0.10221331095415646, 0.10374585149165579, 0.1051603366791077, 0.1065331651025749, 0.10798289921999528, 0.1094407535327798, 0.11090190366380645, 0.11237259717187897, 0.11380489319153073, 0.11528788104489333, 0.11677008753991441, 0.1182435390884054, 0.11972235902654789, 0.12124322982297908, 0.12270735756873666, 0.12416819625157108, 0.12558544313156175, 0.12704056190600171, 0.1285038883164243, 0.1299368051484856, 0.1313592478839983, 0.1328196257594128, 0.134211411578794, 0.13556376080319196, 0.13693537447583676, 0.1382913052057689, 0.1396410007640525, 0.14096073256818095, 0.14230441879661002, 0.1435805492039582, 0.14483821456502244, 0.14606180435423588, 0.14728005395700186, 0.14844305465719534, 0.14961742976918693, 0.15076442612049454, 0.151957606861126, 0.15303812851485507, 0.15398340903648508, 0.1550254630963917, 0.1560332663109995, 0.15699945013910105, 0.15793874644282102, 0.15886721009065166, 0.15973182846686307, 0.16056155840856104, 0.16135937209139573, 0.1621171815667068, 0.1628881815191584, 0.1635664180296942, 0.1642099459642328, 0.16487093177691928, 0.16543559753195697, 0.16592345619081397, 0.166423671204531, 0.16688495127579453, 0.16734208311959975, 0.167719230817678, 0.16792676639795492, 0.16824245911230779, 0.16851074857618598, 0.1688984700026604, 0.16905222459122476, 0.16913724693453364, 0.16922024354153958, 0.16926262423320418, 0.16926030822027194, 0.16922035865981783, 0.1691311162240192, 0.169007337662426, 0.16884041067669928, 0.16851692774511132, 0.16827768509953364, 0.16800991985450603, 0.16766937265712284, 0.167281990479333, 0.16695810452223242, 0.16646491656672138, 0.16586192415629936, 0.1652992938771643, 0.16469300551244276, 0.16401509454727167, 0.16332614192436493, 0.1627523245800223, 0.1619555084798284, 0.16112466093478786, 0.16008561634883486, 0.1592066649147232, 0.15826455882571822, 0.15729803123626906, 0.15628718725503243, 0.15525439313403439, 0.15415554704865014, 0.15317607350810297, 0.15197802415776643, 0.1507505503125753, 0.14944710800456093, 0.148165178070829, 0.14683239773932907, 0.14548665624055523, 0.14410734136624967, 0.14260647694482853, 0.14117281353944067, 0.13980141362643547, 0.1382828507698561, 0.13673562727627775, 0.13509292501507028, 0.13349826293509345, 0.13204610787835855, 0.13036874511471497, 0.12867241044874658, 0.12691078073556974, 0.12518156607387, 0.12331705992325505, 0.12155863434033429, 0.11977289082604894, 0.11805340272162082, 0.11620593227525867, 0.11430888885480706, 0.11243066187914555, 0.11053426742435059, 0.10859945939207546, 0.10667240595179629, 0.10478564062907397, 0.10281991252047806, 0.10084337630588086, 0.09883903875749482, 0.09684528853489714, 0.09484552539570718, 0.09283319072675758, 0.09081345391977212, 0.08895012116256253, 0.0868979087059947, 0.08486099886684707, 0.08281650828186178, 0.0807768677598659, 0.0787809595358719, 0.076746073933421, 0.0747220275521092, 0.07270132871889984, 0.07068834583532217, 0.06861610343347486, 0.06662802755500913, 0.06477252732279144, 0.06277975382313411, 0.060801567961923195, 0.05873545371392416, 0.05679998650550609, 0.0550476201097758, 0.05311083113900416, 0.051196059679840845, 0.04929259453147291, 0.047423086247003816, 0.04559642503476404, 0.04376786460938907, 0.04196303989387087, 0.04025318317523676, 0.038488272406321446, 0.03663582437909373, 0.034944360873748956, 0.03327598076520722, 0.031787740784927736, 0.030149711291367415, 0.02853318949020518, 0.026968276583458527, 0.02543835236822994, 0.023965012409944753, 0.02250353545739312, 0.02115389830129059, 0.01975843737627496, 0.018341834763549027, 0.017039544365739717, 0.015776301501267454, 0.014676717481661335, 0.013478075737905507, 0.012274568836069871, 0.011178908854793073, 0.010128239920081872, 0.009176147011947668, 0.008210255127272637, 0.007286859026835705, 0.006421203476710695, 0.005605186431853251, 0.005002043115518101, 0.00426595563922024, 0.003515642410402273, 0.0029083991287089167, 0.002355722731549263, 0.0019356656135617863, 0.0014828686923401028, 0.0011109776402198537, 0.0007745624647095079, 0.0004985964423391837, 0.00034658932729662476, 0.0001829478861218773, 2.9923761946016485e-05, 0.0, 3.008749251624645e-05, 6.0254303403634135e-05, 0.00021876351768693463, 0.000587001679211083, 0.000842132870201048, 0.0011649758917846751, 0.0015232213220589877, 0.001984281207987166, 0.0025562624559904833, 0.0031414120340157105, 0.0037942970979129727, 0.0044403877759609505, 0.00523764333377921, 0.0060626949553405024, 0.006991407396715348, 0.007982475008368583, 0.00908626483203911, 0.010198129405206539, 0.011377347431210976, 0.012624128771217968, 0.01393867227558303, 0.015271604079432035, 0.016728480362460108, 0.01840660734880661, 0.01997530973700993, 0.021619250205070925, 0.023305722838816868, 0.025101725349034855, 0.026997236093604035, 0.02893169973548578, 0.03093830386355142, 0.03299530607292131, 0.03514741933120631, 0.03733017732164793, 0.03962618044439751, 0.04198918667315471, 0.04449366041937773, 0.046981612494266876, 0.04938170858688045, 0.05203210919448741, 0.054743896426610796, 0.05761342651794996, 0.06043810332342332, 0.0633881223822225, 0.06634269366044793, 0.06936844235912147, 0.07237251370198246, 0.07554985750223243, 0.07868116984658957, 0.08199985782174435, 0.08537614177285044, 0.08891350006262962, 0.0923942920088799, 0.09598290839698573, 0.0995885707142177, 0.10326104651123766, 0.10690039012553641, 0.11071657129686838, 0.11459513680412939, 0.11852859610720597, 0.12252109009263634, 0.12656892983710982, 0.13067942888428202, 0.13486582761645596, 0.13909018964281028, 0.14337309473061446, 0.14772816137431824, 0.15212471238512068, 0.1565789022343946, 0.16109000544275917, 0.16565729132389445, 0.17023754458615525, 0.17492035517163762, 0.17954146403587287, 0.18434134323265372, 0.18918557719815543, 0.19408165655010215, 0.19901478426541389, 0.20395451289151517, 0.20898358306987946, 0.21405577829989714, 0.21933398718545952, 0.22447186949680936, 0.22965472676293308, 0.23489602112372893, 0.24018586105773923, 0.24536001308763286, 0.2507634028985991, 0.2563189920270997, 0.2617784348576618, 0.2672798184419671, 0.27268397718088627, 0.2782833957492049, 0.2839916182364219, 0.2896430913853999, 0.29532984092364445, 0.300994418734973, 0.30675643409831965, 0.31262239583879603, 0.3184338129200848, 0.3242781117641401, 0.33007626723119843, 0.3359927560412477, 0.3419449880378429, 0.34790990824144785, 0.3538995390762507, 0.35981762228128455, 0.36586668107582654, 0.37192939065687924, 0.3780132572588896, 0.3841139489172361, 0.3902878761700699, 0.3964142660195692, 0.40251719328031327, 0.4086860253138705, 0.41486954742566606, 0.4211272865017182, 0.4273305681944831, 0.43359228449541526, 0.43982082676968676, 0.4460651757542513, 0.45229543959539087, 0.4585703310639155, 0.4647451730057605, 0.4710521522947802, 0.4773603506155815, 0.48370492403775023, 0.4900102625027919, 0.4962080723825729, 0.5025309320839167, 0.5088482629166216, 0.5152663134244972, 0.52155917439139, 0.527813290567377, 0.5341103025350126, 0.5404030106921477, 0.546736607956197, 0.5530123826326416, 0.5592201590445495, 0.5654941658136585, 0.5717578130806609, 0.5779891627015289, 0.5842326436886246, 0.5904411294570753, 0.5966591574141743, 0.602860936003777, 0.609127340352525, 0.6152846364564155, 0.6212514578752106, 0.6274028311190314, 0.6335281370277064, 0.6396133693264957, 0.6456886512540609, 0.6517371250958276, 0.6577586792601926, 0.6637530876891002, 0.6697589622150575, 0.6756930819941986, 0.6815266583239035, 0.6874168882538331, 0.693274957179395, 0.6992173592924783, 0.7049952726632903, 0.7107782111873717, 0.7164969289884703, 0.7221876614836212, 0.7277992065211367, 0.7334353895819336, 0.7390573599197169, 0.7446189380520601, 0.7501442430393093, 0.7554586627488685, 0.7609299285132964, 0.76642263062617, 0.7717865597707139, 0.7771056378106678, 0.7824183038447159, 0.7876412099474656, 0.7928127407236035, 0.7979470206974076, 0.8029710371746185, 0.8080194319099198, 0.8130160024014145, 0.8179214747835989, 0.8228182589774761, 0.827652781770827, 0.8324399207390158, 0.837171047167616, 0.8418458919232337, 0.8464641172863107, 0.8510784248721558, 0.8555754512250967, 0.8600174935910642, 0.8644035897894696, 0.8687327970783465, 0.8730572918988194, 0.8772632579288698, 0.8814126049098655, 0.8855606817976189, 0.889585830366653, 0.8934689205385254, 0.8973890696939386, 0.9012443791946454, 0.9050129669864998, 0.9087393663082186, 0.9124403177874246, 0.9160250503692935, 0.9195433471022109, 0.9229094465125096, 0.9263032420606925, 0.9297403488077687, 0.9329723371887759, 0.9361372755213908, 0.939255338189406, 0.942280367717335, 0.9452507164024817, 0.9481352405362488, 0.9509497297777124, 0.9536188473100762, 0.9562997533551811, 0.958935551630728, 0.9614583128301067, 0.9639055177697236, 0.9662271437650075, 0.9685281348194871, 0.9706397232720699, 0.9727952578805962, 0.9748649287355616, 0.9770017714299818, 0.9788827852565498, 0.98062128175617, 0.9823595170798758, 0.9840172430241927, 0.9856403631360368, 0.9871308862738172, 0.988489986647798, 0.989830049301413, 0.991087790799304, 0.9922100841072152, 0.9933097956760865, 0.9944408894363505, 0.9953553102480999, 0.9961914953742773, 0.9968390049990092, 0.9975305618115982, 0.998185387075612, 0.9986984731352402, 0.9991287526074745, 0.9995362870554461, 0.9997930015253992, 0.999867307704128, 0.9999769380988973, 1.0, 0.9999722946477019, 0.9998189098896902, 0.9996209782195885, 0.9992957156479816, 0.9988892024674103, 0.9983763916917501, 0.9978097624940298, 0.997188168252218, 0.9964514730838112, 0.9956332719017467, 0.9947299230602727, 0.9937489015261789, 0.9925514956770979, 0.9914238167542594, 0.9902068904191489, 0.98902937437453, 0.9876213960383892, 0.9860497298574759, 0.9844949636026491, 0.9828566134165271, 0.9811743424134742, 0.9793660383763132, 0.9774925728081229, 0.9755241632334539, 0.9734779029882308, 0.9712867881952876, 0.9690941326124036, 0.9669340018322243, 0.9645664134643835, 0.962126190389007, 0.959468117457264, 0.9569008352026948, 0.9543271413820731, 0.9515902938496643, 0.9487794649180434, 0.9459058733203739, 0.9429475525006682, 0.939861055113838, 0.9367673874600057, 0.9336001642116174, 0.930346302487954, 0.9270369595319368, 0.9237873916095322, 0.9203201959290791, 0.9167913483658542, 0.9130450975674379, 0.909412771605528, 0.9058767730159742, 0.9020848709211529, 0.8982353116595825, 0.8941901318404716, 0.8902431128653484, 0.8863268821048803, 0.882239711604973, 0.8780960940881877, 0.8737869422209879, 0.8695463172562791, 0.8653053855382926, 0.8609378690723953, 0.8565165589011584, 0.8519257198885779, 0.8474148532917383, 0.8429566548967234, 0.838319822059454, 0.8336360720596389, 0.8288532726814481, 0.8240853292174873, 0.8192244448883217, 0.8143699433061365, 0.8094688380088306, 0.8045653859764573, 0.7995709651850794, 0.7945693174700618, 0.7894939474993317, 0.784383779253911, 0.779278741878177, 0.7740970531826594, 0.7687335927928717, 0.7635128087666142, 0.7582555222025043, 0.7530098640501871, 0.7476799901351873, 0.7423080877499297, 0.7369257452298682, 0.7315176721209612, 0.7260358564482051, 0.7205871992691586, 0.7152668001221807, 0.7097528377120735, 0.704227112369553, 0.6986016319177538, 0.6930651882644288, 0.6876093969608802, 0.6820324985665008, 0.6764489901203743, 0.670834779547824, 0.6652433311459639, 0.659483349841182, 0.6539022160918577, 0.6483085136172901, 0.6427755326305687, 0.6371550792086518, 0.631536652766757, 0.6259142813583001, 0.62029367749596, 0.61471879210497, 0.6091007455425417, 0.6033354453831491, 0.5977551751685402, 0.5921768388221932, 0.5867656474937976, 0.581177572242092, 0.5754621552687532, 0.5699287196308701, 0.5644063856663801, 0.558904210175709, 0.5534090190026981, 0.5479769978353697, 0.5425119461484356, 0.5370698771128395, 0.5315988541403597, 0.5262129447789144, 0.5209460815216208, 0.5155965868798187, 0.5102789942994013, 0.5048913263462338, 0.49965260739473816, 0.4945625612872573, 0.4893668772044598, 0.48414926026767224, 0.4790381976212907, 0.47396310137434733, 0.46897818462012536, 0.46397163348129666, 0.45893298626590917, 0.4540209635531842, 0.4491483346286051, 0.4443411888607806, 0.43954809599133476, 0.4348597570966571, 0.4301491810153588, 0.42548849530116023, 0.42070824343200836, 0.41617025202797786, 0.4117095237967344, 0.40725272147037206, 0.4028435008260854, 0.39854695742011315, 0.3942288848404618, 0.3900047833584009, 0.3857924718556646, 0.3816386146804966, 0.3774833279057604, 0.37345490516208846, 0.3695285509079201, 0.3656072619913327, 0.3617462701134137, 0.3579388941303212, 0.35420059336023185, 0.3504632224623158, 0.3468552124024643, 0.34330585006672165, 0.3397240203711199, 0.3363062891356026, 0.33307911390800343, 0.32975790351755396, 0.32650303619293447, 0.3233499914731634, 0.32022357893399384, 0.3170383089589358, 0.3140649747037207, 0.31115270659021516, 0.3082563703981701, 0.3054746035761744, 0.30276782637282623, 0.3001068885194004, 0.2975093639583311, 0.29496876753209295, 0.292500652265698, 0.2901890936789231, 0.2878387593863906, 0.2855587916351516, 0.28324247519694234, 0.2811151405129077, 0.2790648822065256, 0.2770619786523824, 0.27512346754763917, 0.27338041877477565, 0.27155433788482414, 0.2696549383808408, 0.2679897002865491, 0.26638591628557784, 0.2649003878569206, 0.2634127509084463, 0.2620183021037584, 0.26065629017047187, 0.25935966270662686, 0.25803913872911294, 0.2568821403722406, 0.2559460971837114, 0.25488471052881945, 0.25389043353210594, 0.25286265007415804, 0.2520107269774497, 0.2511524084733182, 0.2504227366618066, 0.24974586991815895, 0.24912887582455215, 0.24855658968606326, 0.24812922384537459, 0.2476507236144718, 0.24722952275863738, 0.24679714995716281, 0.2464954488260795, 0.24618000985765273, 0.24598574070911006, 0.2458366537336298, 0.24576798048733736, 0.24570417215275084, 0.24584248003990017, 0.2458509511547049, 0.24591299330723584, 0.24598050819563586, 0.24614939299139335, 0.24633151215134472, 0.2465932230825979, 0.2468954979251055, 0.24710983528018912, 0.24750616052143692, 0.24797871921323147, 0.24842960263266223, 0.24891304787610885, 0.24949563967411084, 0.25003361624470527, 0.25051367941660163, 0.2511301537841469, 0.251772824810342, 0.252529575403324, 0.25321152409113784, 0.2539473436635276, 0.25468280503713214, 0.2554457076050651, 0.2561777378282601, 0.25699771358662155, 0.2578158394533091, 0.2586762019966325, 0.25955258693125877, 0.26051839115065095, 0.26141455857067086, 0.26225365079709334, 0.2631921103955925, 0.2641404401341777, 0.26507291595056215, 0.26604125299188774, 0.2671213399273526, 0.26808651757976554, 0.26906149253595185, 0.27010112949445547, 0.27108328327431724, 0.2720520535553691, 0.27305056975555364, 0.27405179020449577, 0.2749266237393841, 0.27594448017169804, 0.2769956185750391, 0.27798927552527186, 0.2789751795822607, 0.27986037844565, 0.2808396586891258, 0.28184925530856414, 0.2827910962290748, 0.2837192875016781, 0.28470385441051194, 0.2855934392140439, 0.2863859718707148, 0.28726068525835946, 0.2881157334510645, 0.2890531304868454, 0.2898538942926822, 0.29046525005961016, 0.29125447689404094, 0.29201495913445996, 0.2928741131322193, 0.2935608213621373, 0.2942645097985746, 0.2949010537861433, 0.2955152379023082, 0.29593208155189354, 0.29651900238297346, 0.2971474079576579, 0.297651818812258, 0.29812435863701237, 0.29852186110880835, 0.29893397109483, 0.29939827163519, 0.2997262409093399, 0.3000221674117285, 0.30028140543662485, 0.3005104434285235, 0.30059437996118266, 0.30076568031732803, 0.3008937362619476, 0.30101404464422277, 0.30105136601092736, 0.30109710545318824, 0.3010455317295223, 0.3009549042326737, 0.300902357772131, 0.30072159628507156, 0.30045097874463805, 0.30020220372154865, 0.299911389249176, 0.29961692970968334, 0.29923553201692754, 0.29873138717057635, 0.29827692661810706, 0.29777525120464066, 0.29719461919080986, 0.2966028890549763, 0.29593063112857104, 0.2952459531602609, 0.2945115074416135, 0.2938800710065463, 0.29302846570749236, 0.29212300001833363, 0.29119298348577716, 0.2902209911130126, 0.28904726911086576, 0.28801018961432373, 0.28690692780389193, 0.2857686651380016, 0.2845796394666864, 0.2834152087420035, 0.28211823108179945, 0.28075624155841145, 0.2793746093878812, 0.2779413614225468, 0.27647196830462656, 0.27495847324012157, 0.2733624115845989, 0.2717670587491788, 0.27027551816074735, 0.2685724229668836, 0.26683435081814527, 0.26488029672631264, 0.26309382365797473, 0.2613001483588567, 0.2594178000057093, 0.257494076957638, 0.2556112632806209, 0.2535970663189956, 0.25152027020627254, 0.2494412457123922, 0.24732672258167193, 0.2451665923519336, 0.24298398069203775, 0.240784602165626, 0.2385315068890383, 0.23624633093008318, 0.23398629364350584, 0.2316315690902642, 0.22916836468558668, 0.22677003611340768, 0.22434060791170438, 0.22197315954662358, 0.21947300588076613, 0.21691461182651975, 0.21437352939957208, 0.21180825995195732, 0.20921599076506864, 0.20660501327656322, 0.20403565826812844, 0.2013732870202228, 0.1986941330388903, 0.1958499090415992, 0.19315724608756452, 0.19044795251489186, 0.18770878542920302, 0.18494984145449495, 0.1821974877196733, 0.17940055339411148, 0.17669246398044985, 0.173856131508296, 0.17101414366620282, 0.16819516156101535, 0.16533939020121688, 0.16237108116000745, 0.1595239290141122, 0.15666859103562866, 0.15385247897850518, 0.1509790890778864, 0.14828116019682944, 0.14538323376543516, 0.14249555590444205, 0.1396141138715796, 0.13674615196146758, 0.1338165716030319, 0.13097599145329075, 0.12814088779371113, 0.12540064798067757, 0.1225680063049197, 0.11973441014597064, 0.11693023421666332, 0.11413910628727637, 0.11149258748073355, 0.10871281175111382, 0.10582794402229345, 0.10310868861898963, 0.10040423000290132, 0.09789971537045486, 0.09520479301248792, 0.09244619419494587, 0.0898192452675385, 0.08721489851834843, 0.08470465007760643, 0.08213869817613274, 0.07960509982153369, 0.07709658710956524, 0.07461770573626456, 0.07231401260247465, 0.06987737613557966, 0.06747645677719209, 0.06511823880543356, 0.06279818650164479, 0.06056924990384407, 0.058318514220609935, 0.05596376125527605, 0.053813432243908145, 0.05169585413117643, 0.04962644599249133, 0.04757632526175404, 0.045765209903806274, 0.04376507803889156, 0.041815571596943144, 0.03995501369509601, 0.038100162823919925, 0.036225986195676345, 0.03448257718764147, 0.03278591303241178, 0.031193043383591895, 0.02958398882618522, 0.02796605197698251, 0.02646728106445826, 0.025016672296815416, 0.023678660481638494, 0.022318464044440066, 0.020987363669553137, 0.019738239212164947, 0.01854202550492876, 0.017431062270173096, 0.016338091485826677, 0.015269424119698852, 0.014293047215236223, 0.01337155271651744, 0.012487787057343432, 0.011679918884580464, 0.01099125038085971, 0.010286923390089958, 0.009642889641199802, 0.009108759349300952, 0.008579225198162833, 0.008112994559724414, 0.007709786654625951, 0.007369383132857605, 0.00708099943631289, 0.006867099283256238, 0.006789383290212225, 0.006689811068816644, 0.006656347207984893, 0.006585800680582487, 0.006696019869581539, 0.006967884850040832, 0.0071836057191388076, 0.007465042273495286, 0.007790541751732489, 0.008204913660519746, 0.00872875392399429, 0.009264111151107968, 0.009865327151356707, 0.010468243846420226, 0.011207970820078182, 0.012090234586758127, 0.012942111765045266, 0.013860064046214503, 0.014744465507340975, 0.0158056309923925, 0.016911773688093164, 0.01809342433977091, 0.019334190354462193, 0.02060615385909662, 0.021969862506310677, 0.023413324365244927, 0.02489179533215146, 0.02643072547287938, 0.028097454989656483, 0.029748988138229997, 0.03139404150362841, 0.0331825567901847, 0.035030225011549766, 0.036852092161417396, 0.03882877102450054, 0.04093757451811672, 0.0430134375029172, 0.045148870921635845, 0.04729752811949662, 0.04955691302392499, 0.05201028513605094, 0.05436404005704349, 0.056781343737973486, 0.0590803910507376, 0.06164390220424331, 0.06434576978052298, 0.06699821435940814, 0.06970618029691504, 0.07231691697488121, 0.07515356507728871, 0.07808512288511775, 0.08100686482093, 0.08397789664192751, 0.087005252691191, 0.09007374996476651, 0.09311721917935124, 0.09629341204983469, 0.09951403803758156, 0.1029244059702378, 0.10621594070774734, 0.10940092750999417, 0.1128167931363497, 0.11627390563964583, 0.11988562786151276, 0.12341105446340486, 0.12697694329536535, 0.13059723076292115, 0.1342624612739011, 0.13794686171330126, 0.14170215485609522, 0.14549100899153858, 0.14932775029734877, 0.15310415195181198, 0.15703030090439743, 0.1609882870210937, 0.16499236035362064, 0.1690123926527843, 0.17300129348127494, 0.17709424063901766, 0.18121549931302555, 0.1854430201517769, 0.18961115356993544, 0.19369149004355535, 0.19793909930980438, 0.20221077809320298, 0.2064995381804287, 0.21082040351492357, 0.21518964031480992, 0.219554373391855, 0.22394362924763972, 0.22836746747808648, 0.2328026953961364, 0.23720457843160395, 0.2416927799329334, 0.24619952077099028, 0.2507102778383696, 0.25525472573545677, 0.25994659929746666, 0.26450693879143766, 0.2690901305979956, 0.2736874831156539, 0.2783125224177095, 0.2827890443319265, 0.2874695160274289, 0.2921559147571156, 0.2968554392771036, 0.3015530347340418, 0.30634192676257094, 0.31104119661883706, 0.3157509779927389, 0.32037106395807174, 0.32511116081413843, 0.3298707116358919, 0.3346118538371251, 0.33935521452019973, 0.3441250567462731, 0.3488681261677226, 0.35351400584899656, 0.3582726311398316, 0.3630259463228803, 0.3677562022849767, 0.37250088535719666, 0.37735918114041594, 0.3820749728443119, 0.38679032215005155, 0.3913446136445888, 0.3960753188972324, 0.4008494760985084, 0.40554674669151636, 0.41023409306290654, 0.4149852758624712, 0.41964160019468755, 0.4242938671334405, 0.42893327390789965, 0.4335627817479577, 0.4380643647086193, 0.44268527088216914, 0.4472614575489028, 0.45184547826478416, 0.4564078100669541, 0.46108996008972214, 0.4655906473660906, 0.47002396304515703, 0.47450135398025667, 0.4789586402205389, 0.48327103571483193, 0.4877011303408554, 0.4920519856481957, 0.49642913378064923, 0.5007740019813044, 0.5051825014932082, 0.5094515816873229, 0.5137863780217372, 0.5179903638130383, 0.5221715668815908, 0.5262788726891934, 0.5304162039882733, 0.5343713566633878, 0.5384671116608493, 0.5425225794210452, 0.5466761802080579, 0.550634568895605, 0.5545044780806926, 0.5584052413872996, 0.562268815025586, 0.5661618894198549, 0.5699408534255738, 0.5735147222628719, 0.5772436583049644, 0.5809256190357929, 0.5847202162740475, 0.588288902263699, 0.5916891598496005, 0.5951982110656191, 0.5986599407007841, 0.6021981417625734, 0.6055491753167705, 0.6087779029047077, 0.612056170436543, 0.6152864831586274, 0.6184329536966957, 0.6215703522815069, 0.624663376823183, 0.6276967247199357, 0.6306784755157963, 0.6336861190538751, 0.6365536327392791, 0.6393018735754026, 0.6420803055868907, 0.6448041784952077, 0.6474801716240044, 0.6500928105080813, 0.6526394123737106, 0.6551420543208432, 0.6575876683823562, 0.6599722883449157, 0.6623030039588443, 0.6645220822641924, 0.6667420100209064, 0.6688995584828497, 0.6711079911893045, 0.6731263539038096, 0.6750566219811241, 0.676965464189578, 0.6788141998991033, 0.6805950693147221, 0.6823224792768191, 0.684068858511173, 0.6856605412322326, 0.6871932982080656, 0.6885066831910607, 0.6899383869051181, 0.6914123512024934, 0.6926881016527137, 0.6938999212089663, 0.6949834297519313, 0.6960735092918283, 0.6971473375449698, 0.6980919845271625, 0.6989702007809884, 0.6998416741586982, 0.7005779794070197, 0.7012463175233935, 0.7018533380719604, 0.7023940657780582, 0.7027085224977435, 0.7031348380078732, 0.7035194872010733, 0.7037879892469651, 0.7039828957764543, 0.7041469972676857, 0.7041902256971663, 0.7041771954895778, 0.7040776380291431, 0.7039081502935327, 0.7036083020748447, 0.7033058362121627, 0.7029364662573416, 0.7024854439997389, 0.7019614116773257, 0.7013999500737669, 0.7007259450812333, 0.699999103907647, 0.6991816369246489, 0.6982943492255242, 0.6974679772078932, 0.6964238030540607, 0.6952846993938563, 0.6941172427155389, 0.6928827540007098, 0.6914673608843938, 0.6901114593313042, 0.6886736242697159, 0.6871695258077908, 0.6855913763118653, 0.6840566105114414, 0.6823174065083829, 0.680353172408497, 0.6785022478706147, 0.6765759518971844, 0.6746638534868376, 0.6725787582417587, 0.6704404084345438, 0.6682188505046674, 0.6659310227599012, 0.6635593400438917, 0.6611416022974664, 0.6586783253026741, 0.6561247354388664, 0.6535063637996743, 0.6507243557303894, 0.6479897885855245, 0.6453521730158137, 0.6424588959350572, 0.6394511881178309, 0.6364492152565439, 0.6333858408038214, 0.6301871316842891, 0.6270116148226832, 0.6237010684534778, 0.6204071658768773, 0.6170472655874275, 0.6138141438058075, 0.6103028320523173, 0.6065496575268109, 0.6029609213674285, 0.5993105034684763, 0.595646007453472, 0.5918710712459126, 0.5881229530937669, 0.584229499708947, 0.5802879605385062, 0.5762773974772752, 0.5722433515642111, 0.5680903507483278, 0.563969624941933, 0.5597981671293448, 0.5555419000263769, 0.5512773845329858, 0.5470808314533784, 0.5427053440886783, 0.5382905218955125, 0.5338262097161122, 0.5293355277345168, 0.5248136024038091, 0.520246131902743, 0.5156422894571389, 0.5108683440405019, 0.5062111773201712, 0.5016223316033462, 0.496870455419362, 0.49208722751047795, 0.48714968648736445, 0.4823222658391635, 0.4776010469203186, 0.4726869534198978, 0.4677493625358641, 0.4626438389958659, 0.4576797787935186, 0.45271469223364624, 0.4476904049197985, 0.44264235671995483, 0.4376890035265254, 0.43258352572814535, 0.42743375551207646, 0.4223080109908295, 0.4171692703820154, 0.41201498070657205, 0.4068536946821622, 0.40163626659454804, 0.3964616747750337, 0.3912766442240565, 0.38618891325355115, 0.3809741707417533, 0.3756816168201585, 0.3704774764424098, 0.36527035995012613, 0.35992362074697654, 0.3547322377795037, 0.3495909862543141, 0.34438192700306464, 0.339174396510733, 0.3340586649635737, 0.32884825336581575, 0.3236565508076514, 0.3184693941760372, 0.31329609075167375, 0.30812339724508003, 0.3029823821277695, 0.2977900366012968, 0.2926905259734925, 0.2876054690251306, 0.2825613557286486, 0.27750714690013095, 0.27259410682898055, 0.26756765470491745, 0.2625714586923081, 0.2573757717972862, 0.2524703369324291, 0.2475871340843474, 0.24272111044310915, 0.23787876859709361, 0.2332569505436424, 0.22844365797652358, 0.22347633386080018, 0.21876921960158136, 0.21409239665210048, 0.20960713872158634, 0.2049765648306047, 0.200263366710535, 0.19573890736693716, 0.19125292352169496, 0.18684942090518167, 0.18243952186035867, 0.1781244057349427, 0.17379966836746283, 0.1695248828704057, 0.16529706176631626, 0.1611243194112661, 0.15691812638630823, 0.15285981248222938, 0.14884959401125505, 0.14500213176394294, 0.14107785180189975, 0.1371694711090877, 0.13336758214523692, 0.12962226471205696, 0.12584572050310328, 0.1222268345527964, 0.11867580166023774, 0.11516390533135253, 0.11170918580640632, 0.1083233532167399, 0.10498484440017204, 0.10179213065073697, 0.09856535744100936, 0.09540575303858506, 0.0922708689148612, 0.08925110851254492, 0.08623262624099394, 0.08335139710291248, 0.08053253010252673, 0.07772741932942466, 0.0750423198046654, 0.07244419507107756, 0.06988146786523354, 0.06738443852154054, 0.06492901507965378, 0.062568501210737, 0.060373251962676164, 0.058133168516431154, 0.05596605030212737, 0.053853905497841116, 0.051834104032879844, 0.04991378683624362, 0.04803264428080781, 0.046224071499642534, 0.044491279219727516, 0.042826430364718254, 0.041109517787807304, 0.03960369307780625, 0.03816213701949073, 0.03678909077922787, 0.03547760764641228, 0.034405802112208166, 0.03320516396193409, 0.032081065764195595, 0.030851737643015575, 0.029899946238604893, 0.029096098765566247, 0.028260003345559278, 0.027492481002030257, 0.026846191835449035, 0.026207768207299923, 0.025611213038671875, 0.025115832418710845, 0.024687258059343225, 0.024328408992600095, 0.024031133199216743, 0.0237635870271509, 0.023600379529901683, 0.02349897640072087, 0.023490842200697207, 0.02350778943356114, 0.02361533166036993, 0.0237524698041778, 0.023951907868280227, 0.024163064386706755, 0.024490321304052712, 0.024884702404895626, 0.02532304537888691, 0.025817287464317062, 0.026377302018869734, 0.026979732587208358, 0.027579697721477586, 0.028296725802079488, 0.02906291021193584, 0.029902543685682535, 0.030762374458889394, 0.03161090074409223, 0.03257520354042986, 0.03358319728345164, 0.03459901518187141, 0.03569737603605975, 0.03688179886392571, 0.03805399710317737, 0.039267859320968546, 0.040522389053419657, 0.04181655021138265, 0.04318467042725359, 0.044550369721600265, 0.045954376144877955, 0.047420024183279924, 0.04889318723475673, 0.05043006525288549, 0.05196882514826853, 0.05354137751440991, 0.055153026035849664, 0.056786995378367656, 0.058319009115646435, 0.06002590405725139, 0.06176177548321302, 0.0635035017330557, 0.06526300981535771, 0.06707843858255214, 0.06886611933535644, 0.0707419757157262, 0.07255416776298465, 0.0743851229904446