0.040351767523724553, 0.039942049556122634, 0.03956872700413524, 0.03928474261483227, 0.0389619273342966, 0.03864473291057052, 0.038372543040673536, 0.038117947209765406, 0.037703831125816684, 0.03749878810777308, 0.037480687211619075, 0.037253736500173266, 0.036822763573990495, 0.03664372778329883, 0.03646106095378879, 0.036371473949895955, 0.03617176409657229, 0.03606626082429755, 0.035863336665409515, 0.03566963287294831, 0.035283994829441744, 0.035132504631102957, 0.03498348164665839, 0.03482598615934702, 0.03466821322386756, 0.03449971113004608, 0.034346295314089316, 0.034189410829635676, 0.034042446924712984, 0.03389947203927504, 0.03394162746470753, 0.033786506795775405, 0.03362475109635206, 0.033505063977479765, 0.0333993180242726, 0.033138580744489415, 0.0330811103366178, 0.03313779424004704, 0.033074958894303265, 0.03302433259600042, 0.033006369427441104, 0.03297791921143345, 0.03298061754745318, 0.03297735457799541, 0.03298876375868349, 0.03297694991531718, 0.0330222064097639, 0.032995517553998745, 0.03307645205520819, 0.03316562171403333, 0.03340934344038991, 0.033499431603602296, 0.03339926806733644, 0.03355346681290074, 0.03371415748443523, 0.03392342516887067, 0.034095974992975245, 0.03428104669362608, 0.03447930959211121, 0.03469136847654406, 0.034868353311164196, 0.03511584304486789, 0.03549212593267091, 0.03575075727080458, 0.036029965781664716, 0.03641958243423758, 0.03672775361272828, 0.036848655722071605, 0.03723266092219523, 0.037628089769961785, 0.03819009566293967, 0.03859205106890736, 0.038865878896722876, 0.03933257630157252, 0.039813034451627635, 0.04047969207954533, 0.04096869611427887, 0.041402240017722934, 0.04195272349452134, 0.042523325888834736, 0.04309679095311856, 0.04371040067855116, 0.044288500300570965, 0.04494888430173618, 0.04562657635285868, 0.046322347685784526, 0.04703690484124772, 0.04781449932694735, 0.04856300613430432, 0.049334536352876886, 0.050044943519332016, 0.05087364440383742, 0.05186354906650422, 0.05271261487144075, 0.05359004584261852, 0.05432097259824686, 0.055275895926969895, 0.056280225152350295, 0.0572671166408293, 0.05827541551870723, 0.05928834667189526, 0.06034359791210581, 0.06144143141899093, 0.0625392025672859, 0.06366153213343759, 0.06477387068457373, 0.06595069287899723, 0.0671132249032135, 0.06834234253616428, 0.06959381441434256, 0.07092648413580309, 0.07221734278263892, 0.07368974678890831, 0.07501608620097173, 0.07637854866938142, 0.07770321476294693, 0.07914352084266381, 0.08061837923424604, 0.08211517124776398, 0.08364055303916468, 0.08509254978696726, 0.08668730905438288, 0.08827527643623935, 0.08991893815689944, 0.0915845110455129, 0.09335123408634471, 0.09505286724329767, 0.09684674528583465, 0.09859673611363468, 0.10037832937779363, 0.1020600675256275, 0.10391953040193441, 0.10594975760434658, 0.10783608384283905, 0.10975432541663804, 0.11162232075264361, 0.11361245679637956, 0.11568018416080478, 0.11771433315743347, 0.11977684804109145, 0.12183246789083507, 0.12395501869184349, 0.12608548193614505, 0.12826092020935045, 0.13046066471732198, 0.13270223627085967, 0.13494859175473614, 0.1370924652933659, 0.13940567688421382, 0.14173680172030748, 0.14405180126773548, 0.146425555585523, 0.14886971392223167, 0.15127375202551743, 0.15370014552706615, 0.15629719764092204, 0.15874964850675574, 0.16125309519713724, 0.16376295816391517, 0.16630209259782186, 0.1687471295283468, 0.17135650935512142, 0.17390919075817746, 0.17656586892489182, 0.1792370987235753, 0.18210650994461589, 0.18478505718312374, 0.18728900545581212, 0.190043572659843, 0.1928103659542135, 0.19573813503129245, 0.1985120059796417, 0.20117384049635403, 0.2040069493418171, 0.2068522281549501, 0.20976214991189687, 0.21262551036296998, 0.21564369674103243, 0.21851949121267458, 0.22141737117926477, 0.22427172510882007, 0.22721701126052565, 0.22999886614393114, 0.23299355321141563, 0.23599061017167208, 0.23899362396127333, 0.24199693761805405, 0.24507413726970426, 0.24807710200486066, 0.2510884517683981, 0.2541803140165062, 0.2571975875345601, 0.26028085526125605, 0.2633114822497349, 0.2663536500046375, 0.26933897494078946, 0.2724082046814984, 0.2754373396724322, 0.27851838797430906, 0.28159908084194846, 0.28463837272796333, 0.2877224143193898, 0.29077940006262926, 0.29385865027244334, 0.2969324626323743, 0.30004145425057144, 0.30309892495738605, 0.3061295101846141, 0.30918203108307085, 0.3122283375801899, 0.3151836491095613, 0.3182267046717014, 0.3214200456653979, 0.32441760808572484, 0.3274118759197387, 0.33021537798660777, 0.3332223623115301, 0.33634234177142464, 0.33929741856008994, 0.342201718657819, 0.3451407428815253, 0.34806535160157975, 0.35088767404252846, 0.3537924669698998, 0.356760202384664, 0.3596116068422973, 0.36244625611190084, 0.36516734154718267, 0.3679779705933921, 0.37085685175542266, 0.37360608631054837, 0.376335491277113, 0.37894231168312653, 0.38164190223421396, 0.3843449514538239, 0.3869833296124706, 0.3895946321770214, 0.39232074880322404, 0.3948582123862148, 0.397203347497775, 0.3997190741661102, 0.402200917086957, 0.40473882140620643, 0.4071409270701627, 0.40949315054654345, 0.4118376821367097, 0.41414942160006407, 0.41632288588970445, 0.41857978458420075, 0.42094381363204025, 0.42309977825313505, 0.4252229598548787, 0.4273818185489397, 0.42942677514474437, 0.4312444145023909, 0.4332472372728207, 0.4352034066495206, 0.4371566913833997, 0.439014450471362, 0.44083987744067693, 0.4426078302577849, 0.44433162547453287, 0.44592932833462645, 0.44757347464874997, 0.4493678479572448, 0.4508860527098506, 0.4523653225313918, 0.4538069254832113, 0.4552031826172114, 0.45642825949224725, 0.4577528613881871, 0.4590245716444082, 0.4602549838225644, 0.46141930320510227, 0.46260385250971936, 0.4636538781304336, 0.4646550885754026, 0.4655049185270435, 0.46641895695047186, 0.4672442151959802, 0.46804886417752645, 0.46879521669898727, 0.4695446570183886, 0.47016764628490687, 0.4706784432438008, 0.47120033740623884, 0.47166425344079677, 0.472236042713198, 0.4725634842127761, 0.47283969249164515, 0.4730695661869928, 0.47324852529430145, 0.47329127949544975, 0.4733762128413783, 0.4733418214716237, 0.4733179189389511, 0.47323232619330546, 0.4731146186940652, 0.47290343513832067, 0.4726161144341564, 0.472289874065473, 0.47190421125303456, 0.4715349641776997, 0.4710216576718991, 0.47030273428652913, 0.46969922829685085, 0.4690320560117963, 0.4684416958271843, 0.46763229767217734, 0.4666969653857467, 0.46578981159583055, 0.46482455226315356, 0.46372591864424256, 0.4626549299184113, 0.4615632060859087, 0.46036511494928267, 0.4591096146718582, 0.4577506344491616, 0.4563874990204781, 0.4549394556300069, 0.4534629115549436, 0.4519276511801042, 0.45040142096911384, 0.4487428734509523, 0.4469998648116055, 0.44524057239046816, 0.4434273914614793, 0.4416974384311332, 0.439760677188105, 0.4377733453191736, 0.43574719346333607, 0.43367487416410494, 0.4315241145586776, 0.42936272489211347, 0.4271499037617257, 0.4248921034354542, 0.4225862126577641, 0.42009891475304884, 0.4177149962047779, 0.41540471747384344, 0.4128976978265246, 0.4103466911320641, 0.40779568580164466, 0.4051523965487179, 0.4023991025898007, 0.39968432956718564, 0.39692583203382237, 0.39402566824844354, 0.3911948958532831, 0.3883146218150788, 0.38539271351944276, 0.38242732133532276, 0.3795595000119573, 0.3764939875791775, 0.3734378549830232, 0.37030474875814984, 0.36714306341531733, 0.36392374753170437, 0.3607087426804224, 0.3572749530295388, 0.35402471869455177, 0.3507352028019615, 0.3474027638970945, 0.34404179160954595, 0.34069672374817983, 0.3372643016449979, 0.33380467622657745, 0.33033068940302535, 0.32681878941917936, 0.32332746797352613, 0.3197650181286007, 0.3161840012282696, 0.3126955138535345, 0.3090653326008834, 0.3053433909220045, 0.3017026059042824, 0.29804670159917657, 0.2942456217682747, 0.29057831151642555, 0.2868908916129686, 0.28318524956396823, 0.27946316388508396, 0.27574375571847914, 0.2719915273646984, 0.268307100348741, 0.2645248754378162, 0.26073891649610764, 0.25692945066348344, 0.2531403625586347, 0.24952846870127993, 0.24571137483072727, 0.2419030703939137, 0.23796635135195696, 0.23419134901036742, 0.23050638872137486, 0.2267208773334913, 0.2229424090186171, 0.21920617111673266, 0.21543838061586812, 0.21165750518686738, 0.20791325690453252, 0.20417849277218403, 0.2005410498668717, 0.19681617045280242, 0.19300596837429368, 0.18932685644733233, 0.18565870502837828, 0.18209564449913307, 0.1784409736969788, 0.17494822607257007, 0.17131485092981982, 0.16770970657214757, 0.1639838846067633, 0.16045218104230521, 0.1570756329811886, 0.15356479997173544, 0.15008232618181794, 0.1466979497910232, 0.1432634181387146, 0.13980330639533267, 0.13644098955349632, 0.1332384293976481, 0.12991797239340522, 0.12663487870164972, 0.12332185980210054, 0.12012083096861602, 0.11692646367359019, 0.11379495994065204, 0.11069600225363287, 0.10777580857541728, 0.10472619281766464, 0.1017635221726307, 0.09879479266572633, 0.09587142534575296, 0.09303956156705881, 0.09020008281124109, 0.08731197898924306, 0.08457889320035791, 0.08188719130643543, 0.07928990334398307, 0.07667648740199234, 0.074153156341923, 0.07162750796550388, 0.06915147718760603, 0.06676873257130628, 0.06438669882574065, 0.062074594262945135, 0.05979525159733652, 0.057569309260920166, 0.055312419244923465, 0.05320387759784942, 0.05117317346871698, 0.04915934289123925, 0.04719757907320213, 0.045459940507758805, 0.04358227601438634, 0.041581902727693965, 0.039853580101223786, 0.03817661566376292, 0.03661009594879162, 0.03503128072929474, 0.03346614541980092, 0.03200771337761362, 0.03060472778983136, 0.029467143762871077, 0.028150518167236124, 0.026862231046070623, 0.02568766909485576, 0.024577724008276725, 0.023587123333803566, 0.022598012150074773, 0.021666657059956396, 0.020810903681339456, 0.020019858677825568, 0.019109980228592907, 0.018470367196705844, 0.017901638012950423, 0.017367981479742903, 0.016891168548472304, 0.01654475542748915, 0.016174997304601813, 0.015819116941675444, 0.0155822316817816, 0.015405933625868194, 0.015453432605595126, 0.015378941955878285, 0.015261914372228697, 0.015342383217513125, 0.015485361498577018, 0.015830475376416988, 0.01608109602803122, 0.016381935769385524, 0.01677518084766615, 0.017235806240844555, 0.01777474923717574, 0.01836666995952175, 0.018934656903072493, 0.019669748394068643, 0.020464858144104068, 0.021334777571393695, 0.022248813594575097, 0.023253395628725162, 0.02428672691773248, 0.02538317739688799, 0.026661668670801626, 0.02786851244163222, 0.02899033616023944, 0.03035354868729559, 0.03177487612153376, 0.03327492978730259, 0.03481064436185616, 0.03649634602102752, 0.03814034783675154, 0.03984912240376226, 0.04168287234480303, 0.043511012950001426, 0.045233507744777114, 0.04721389740832776, 0.04924831118709566, 0.051345887950046847, 0.05348841316985897, 0.05569807487600025, 0.05795024987798103, 0.060258729908319986, 0.06276875217253806, 0.06517110236244857, 0.06770433499350695, 0.07022489487083584, 0.07281057693582342, 0.07543060870758994, 0.07814525942898792, 0.08080247583873494, 0.08364847126872292, 0.08654478665051844, 0.08965716901699033, 0.09263328607739854, 0.09563996902848745, 0.09873761465149808, 0.10189055571444416, 0.10511819466233682, 0.10837638703739783, 0.11169710407878879, 0.1150608807066893, 0.11847717709303919, 0.12173874050145322, 0.12528364393534713, 0.12892230062991372, 0.13253821992503043, 0.1361975041386759, 0.13988290399203357, 0.14363161576841132, 0.14750443865144713, 0.15132839664087863, 0.1551997623113248, 0.15902190002128536, 0.16299809985019867, 0.16708400514664684, 0.17113136338079324, 0.17522269001683038, 0.17931375628590723, 0.18349665601939183, 0.187722105171839, 0.19198364481461566, 0.19628439076676882, 0.20060651665335652, 0.20498669258024219, 0.209505587264271, 0.21394652065172567, 0.21842943470915446, 0.22305484426238353, 0.22760524590951345, 0.23216497995559882, 0.23680637109634395, 0.24148647174435284, 0.24622144715840108, 0.25097302495239704, 0.25575200832449346, 0.26057577394159953, 0.2654329258598962, 0.270319619518732, 0.27524115737240645, 0.27999269871106075, 0.28499999792278347, 0.2900251404821064, 0.29522892880692336, 0.3002721402354905, 0.3053269955532002, 0.3104297516973659, 0.3155589836245725, 0.3206210393405605, 0.32581309824776594, 0.3311175617384166, 0.3363367636688003, 0.3415807559548161, 0.34672667113222433, 0.35203336875218927, 0.35734410464188177, 0.36268386393400953, 0.3680390491649879, 0.37340108927224697, 0.3787885790621141, 0.3841126810317151, 0.38954024261229264, 0.39497831928813865, 0.4004302462471155, 0.40589012709066424, 0.41143713520320396, 0.416910573802012, 0.42239973851315943, 0.427918386403553, 0.43343483033073055, 0.4389393144614494, 0.44448657274274045, 0.4500447849525285, 0.4555231811121362, 0.4611127157062631, 0.46683405140944356, 0.47241525081742264, 0.47800751436006983, 0.48347305181311545, 0.4891012721379347, 0.4949243052890792, 0.5005280781052632, 0.5061428904809391, 0.5115490564034602, 0.5172086258488567, 0.5229786127051267, 0.5286121693959895, 0.5340871962636046, 0.5397428920553184, 0.5453894249943098, 0.551207552909839, 0.5568144127136244, 0.5622634999529434, 0.5678934632656487, 0.5735139809571578, 0.5790902646459294, 0.584696483710192, 0.5902854756352179, 0.5958697039926855, 0.6014422864772428, 0.6070583970242943, 0.6126004407673354, 0.6180259446199207, 0.6235628688591842, 0.6290832631040888, 0.6345843165038884, 0.6400721924067386, 0.6457410028540513, 0.6511702302686204, 0.6565933612490475, 0.6619270718596888, 0.6673426415561249, 0.6726694684408495, 0.6780611733032241, 0.6834309228609126, 0.6887522629704627, 0.6940804774778117, 0.6995208541597687, 0.7047826375274544, 0.7100270961224017, 0.7151830101351464, 0.7203973618141604, 0.7254962418878093, 0.730670608621915, 0.735813226845191, 0.7410520484699847, 0.7461150480773192, 0.7510283508258709, 0.7560565178517481, 0.7610505550939828, 0.7661178978967231, 0.7710296408946762, 0.7757208551858322, 0.7805983193191075, 0.7854340148294107, 0.7903214138193578, 0.7950630166370942, 0.7997544615104849, 0.8044259581035935, 0.8090596071924845, 0.8135763159367281, 0.8181423494730848, 0.8228648172437928, 0.8273171681061993, 0.8317364640543927, 0.836077276132104, 0.8404306261649227, 0.8446474404189563, 0.8489305769475249, 0.853165521952969, 0.8573462071002712, 0.8614846887957606, 0.8655010667061811, 0.86954952694268, 0.873543739780211, 0.8775449061632807, 0.8814232681866645, 0.8851812050528427, 0.8889664494009778, 0.8926958653976017, 0.8964507615999813, 0.9000578973580445, 0.9035609682783748, 0.9070702907180399, 0.9105230679874489, 0.914069986118942, 0.917389116726954, 0.9205336970913317, 0.923767771846936, 0.9269419081511501, 0.9300846874692973, 0.9331337982529545, 0.9361260168700243, 0.9390544159543923, 0.9419217119902293, 0.9446457910353097, 0.9473990353802683, 0.9500728939660261, 0.9526920980229011, 0.9552428436719154, 0.9578646498352918, 0.9602607427814529, 0.9625960073407359, 0.9648691599010201, 0.9670790189967179, 0.9692244972993264, 0.9713045942233859, 0.9732050197462772, 0.975165998375383, 0.9770526837029654, 0.9788187572745496, 0.9805632558404295, 0.9822516114451761, 0.9838409693012173, 0.9853557219808566, 0.9868134014252837, 0.9881769639348209, 0.9894263427101576, 0.9906479062690082, 0.9917933463888241, 0.9929238443827971, 0.9939096822953979, 0.9947649619179373, 0.9956128363638205, 0.996384112956483, 0.9972300088191882, 0.9978291261413346, 0.9982904641547437, 0.9987611538906895, 0.999157610179415, 0.9995230411037612, 0.9997643786038837, 0.9998718384548756, 0.9999746177821975, 1.0, 0.9999131428523436, 0.9997882735144615, 0.9996219929478964, 0.9993342980966596, 0.9989702094914487, 0.9984832263911688, 0.9979722825249907, 0.9974376622386314, 0.996762370439226, 0.996012147001181, 0.9949892839191645, 0.9941141114347545, 0.9931703500933403, 0.9921225690373054, 0.9909928859273723, 0.9897941330603635, 0.9885026761848683, 0.9871303495599757, 0.9856841438297108, 0.9841613654215248, 0.9825627255262391, 0.9808888845779339, 0.9791288325005882, 0.9773078764160386, 0.9754128184766881, 0.9734006776300227, 0.9713647665976016, 0.9693267629293001, 0.9671330339773313, 0.9648703633230195, 0.9626407044994187, 0.960227955257644, 0.9576102701891163, 0.9550900270403961, 0.9524984098262803, 0.9497985223004116, 0.9470715868332648, 0.9444336360850144, 0.9415458233896097, 0.9385982912698979, 0.9355849724892268, 0.9325180986130511, 0.9294169385002722, 0.9262259931442955, 0.922976424455028, 0.9196479812119897, 0.9162841331973001, 0.9128669263209472, 0.909384543540616, 0.9058444650116788, 0.9021949792936431, 0.8985480190832043, 0.8948802173188186, 0.8911124037326092, 0.8872904449179541, 0.8834181144598233, 0.8794901291545898, 0.8753567877195482, 0.8713466308434965, 0.8672784229296441, 0.8630904307600993, 0.8589207305733495, 0.8548264741345698, 0.85053187668504, 0.8461938460467475, 0.8417668945680794, 0.8373509493851986, 0.8327990178090472, 0.8283103104292691, 0.8237761909249705, 0.8192219921423642, 0.8146002166236022, 0.8099227657733034, 0.8052282838744704, 0.8006400753426902, 0.7958568301776132, 0.7910484993975545, 0.7862299244036152, 0.7813705972047699, 0.776453306345215, 0.7715526725890272, 0.7666279759029009, 0.7615580165223077, 0.7566033376974229, 0.7516670320901555, 0.7466521711203007, 0.7416156354992977, 0.7364861740330105, 0.7314197120280583, 0.7264770206146818, 0.7213509595377853, 0.7162152421486744, 0.7109803374562681, 0.705838520172099, 0.7007740562603705, 0.6955968236843942, 0.6904148499727517, 0.6852375607393086, 0.6800471767599502, 0.6746891360072966, 0.6695165713173132, 0.6643343881334476, 0.6592494598243138, 0.6540413583946897, 0.6488765205161894, 0.6436694508120803, 0.6384693301448963, 0.6331082954412592, 0.6279456499095226, 0.6229601631131072, 0.6177769948970097, 0.6126079250729033, 0.6072296618825861, 0.6021187730007019, 0.5972379650428777, 0.5921076060188443, 0.5869981623619758, 0.5819012647864898, 0.5768358884050939, 0.571739898461946, 0.5667251945139035, 0.561730582544501, 0.556626395809202, 0.551691921172294, 0.5469160148185319, 0.5419979344793613, 0.5371081176306307, 0.5320728663057418, 0.5272637951923989, 0.5225160949015177, 0.5177453889403482, 0.5130018005153753, 0.5082461519829242, 0.5035664036682616, 0.4990407585334059, 0.49440499686221023, 0.4898083974898878, 0.4852135239418166, 0.4807011158022986, 0.47631991284409914, 0.47187284549578257, 0.4674706310461102, 0.46299694231685967, 0.45869905661866994, 0.45439014289542207, 0.4501763655753503, 0.4460003013835275, 0.44195341549539296, 0.4378453309579471, 0.43365004169380794, 0.42965222063154346, 0.4256940761629734, 0.4218031858008613, 0.41792520090173185, 0.4141125704693845, 0.41032286645673827, 0.40658091776447025, 0.4028029567764159, 0.399168730541478, 0.39569817889394354, 0.3921389525947099, 0.38863295812246895, 0.3851830004020966, 0.38178281476298964, 0.37840670210734195, 0.37511639761878807, 0.37187746028321034, 0.36861448920451095, 0.36548835605330127, 0.3625319090891219, 0.3594862542841546, 0.3564963967443886, 0.3534049209754429, 0.35054521660322047, 0.3478330274033783, 0.3450529291543101, 0.34232602818279956, 0.3395620628232582, 0.3369524971653085, 0.33449815361566193, 0.33197086803698367, 0.3294982751925641, 0.3270973033334412, 0.32473037318072057, 0.3224612410221824, 0.3201965892408604, 0.3179874139357208, 0.3156409666455019, 0.3135643868050508, 0.3117160624849687, 0.30970120542033513, 0.3077404892927735, 0.30577771954278493, 0.30392943851430576, 0.3020800643528014, 0.3003343188671152, 0.29863338626014396, 0.29688715628933915, 0.2952871876970602, 0.2938023699784615, 0.2922725298382297, 0.2907874422696187, 0.28946594958859695, 0.2880542323167308, 0.2864806022121725, 0.2851948756510169, 0.28394477061796103, 0.2828760731300803, 0.2816800114372712, 0.28047630315257555, 0.2793750864050966, 0.2783133941049514, 0.27737198099017746, 0.27637710703531526, 0.27523539106122086, 0.2743472599288283, 0.27348797165375865, 0.2727740763649977, 0.27195845494199805, 0.27114082885734947, 0.27040051418836386, 0.2696917931676658, 0.26905464792812306, 0.26840179752364246, 0.26780676313310087, 0.2672127962054372, 0.2666497391168442, 0.2661715357879178, 0.26565949706494046, 0.26518645362374116, 0.264732249427568, 0.264305672919302, 0.26375404983354206, 0.2633973739811942, 0.2631834303098218, 0.26284015462392596, 0.2625186224233945, 0.262150684576079, 0.26187727260263594, 0.26161812876019325, 0.26137263836651875, 0.2611401571924461, 0.2609432694240072, 0.2607318291435331, 0.2604541336306618, 0.26027615536478427, 0.2601041613355626, 0.2598535688530202, 0.2597032804282535, 0.25956771782469457, 0.2594161693615968, 0.2592658806253675, 0.25920096952146116, 0.25904189959656243, 0.25879207064766546, 0.2586543518518652, 0.25851420564324196, 0.25843527525944693, 0.25828118489617585, 0.25806024790562054, 0.2579136064264961, 0.2577611789185022, 0.25781470222844943, 0.25762241918263346, 0.25731552613230496, 0.2571451500563442, 0.25696822145279063, 0.25670524734385614, 0.2565221483888086, 0.2564007436063044, 0.2561800320432843, 0.2559490542802318, 0.2557504261544485, 0.25549047781775786, 0.2552169526697163, 0.25493480293479276, 0.2545260693469016, 0.25423076567401953, 0.2539138300502257, 0.25367407002098513, 0.25330123382869135, 0.2528219472826926, 0.2524268541792471, 0.25200847089757605, 0.25172653812716916, 0.251240905602564, 0.25056892438274136, 0.2500737722398555, 0.2495512467159451, 0.2491497180923913, 0.24855400020518487, 0.2479568646225526, 0.24732000326939088, 0.24666293362504196, 0.24578684108570148, 0.24511102308363156, 0.24446765116186334, 0.24371530518692228, 0.2429336889459531, 0.24223326770424974, 0.24137913262795485, 0.24043792508466308, 0.2395446982464086, 0.2386229887053618, 0.23768710028938025, 0.23670591664116272, 0.2357429472001468, 0.234699005390074, 0.23362884228370226, 0.23243884609234114, 0.2313263064840278, 0.23015752395900985, 0.22898232113471534, 0.22777353728340907, 0.22655492688582862, 0.22527749183939305, 0.2240592589289762, 0.22270879727467371, 0.22133285649921983, 0.21994542792687471, 0.2185151504012282, 0.21705883948803237, 0.21557608201124231, 0.2140665496145237, 0.21243987801650568, 0.21088751006375536, 0.20941904406445513, 0.20778789899587308, 0.20613221732124887, 0.20448655764129578, 0.20277651095190294, 0.20097632031006896, 0.19922780363012826, 0.19745164853576186, 0.19566858834230527, 0.19383575914969378, 0.191896255308543, 0.1900234329314097, 0.18812135494371846, 0.18625788317587683, 0.18429179986166064, 0.1822187776700782, 0.18021840673066913, 0.17819135976082245, 0.17615324044000688, 0.1740741541390686, 0.17204492269817726, 0.1699118125034883, 0.16776153828986806, 0.16573670843472718, 0.16353466270133432, 0.16136481618537446, 0.15913981028239085, 0.15690713803067388, 0.15468926423559579, 0.15243614253703242, 0.1502213648794829, 0.14794558350620457, 0.14566352088854578, 0.14324386454567395, 0.14096445444538902, 0.13881288030599506, 0.13648729696071937, 0.1341571871315312, 0.13167128740680784, 0.12935106241026006, 0.12711384496093017, 0.12475713593836658, 0.12239580844981969, 0.12002466175523899, 0.11765672158229146, 0.11524221588069246, 0.11287465585279967, 0.11050329552100614, 0.10819618442180194, 0.1058123181040848, 0.10353945949365483, 0.10114948294955992, 0.09877020897727778, 0.0963287710605493, 0.09397965132026133, 0.09163989318793753, 0.08930408914695738, 0.08697647916647452, 0.08472763211815591, 0.08241002235226753, 0.08015060148244958, 0.07785695111129709, 0.07558101955252151, 0.07335779718287312, 0.07111332378878452, 0.06883393120756667, 0.06663718137760884, 0.06445798607541847, 0.06234362218153586, 0.060195984875012855, 0.058117407656134504, 0.056009457670072954, 0.053927667762276636, 0.05194201613548166, 0.04990445713839806, 0.047909509668538186, 0.04593234957229576, 0.04398676124228032, 0.04214547553590983, 0.040254132822219645, 0.03844836579258359, 0.03662287292395317, 0.034836025031996815, 0.033090397008635454, 0.03137964212805676, 0.029617065789802124, 0.027994377183719492, 0.02640521474943058, 0.02501630070445913, 0.023476325546159478, 0.02192702194336703, 0.02048551691026569, 0.019086332110023727, 0.01779383488636814, 0.0164725154959656, 0.015163652094227525, 0.013941486414225277, 0.012764934296916563, 0.011707203313054852, 0.010614336058841167, 0.00946823311441037, 0.00849147440563398, 0.0075604510524569365, 0.006664600307822178, 0.005829676232600246, 0.005103965843255609, 0.004358710717795377, 0.0036671023364514836, 0.0031807654953931396, 0.0025787535317539855, 0.0020577582195712182, 0.0015799820932028683, 0.0011654979914541214, 0.000770148561628646, 0.0004862401566889322, 0.0003316845476026673, 0.00015829859619834313, 4.8804926760032535e-05, 0.0, 1.7874087864518364e-05, 0.00011051825094274461, 0.0002532113966276266, 0.0004597739685757779, 0.0006604728979867488, 0.0010037513192280492, 0.001395619674990761, 0.0018615446953300042, 0.0023884809076365012, 0.0031457906783032173, 0.0037756711735846622, 0.004295036558878674, 0.00509258081412424, 0.0059511305330221965, 0.006886196046751475, 0.007867759846970726, 0.008887655587624716, 0.010002129986001139, 0.011180802239577342, 0.012561010456995144, 0.013852868600831418, 0.015076070356143667, 0.01653290204718777, 0.018054396655487186, 0.019830187168786633, 0.021459086172019113, 0.023019712895731924, 0.02482006463342595, 0.026687313656923964, 0.028578183581843573, 0.03058567188443635, 0.03276309384163302, 0.0348884583214794, 0.03708597073722934, 0.03945109242368448, 0.041779405747526456, 0.04394848682792277, 0.046457871823962854, 0.049109472652981906, 0.05173116946903563, 0.054420028155729876, 0.05712084489633932, 0.05995105251962637, 0.06287435569098085, 0.0658292991753087, 0.06885052848942635, 0.0718740465278276, 0.07503575163750492, 0.0782627900753988, 0.08154932091508592, 0.08489902137145046, 0.08853003366432771, 0.09197880179596064, 0.09529381917655408, 0.09891829503309797, 0.10260303257090679, 0.10647606745814263, 0.11026547051632708, 0.11398875243202823, 0.11792913228701038, 0.12192742278579424, 0.12601567296235702, 0.13012587826991917, 0.13421437299912062, 0.13845382191398767, 0.1427475276322831, 0.14711601743931543, 0.15151609171063754, 0.15593108715934703, 0.16044725862507558, 0.16501613382198183, 0.16972484419569983, 0.1743877821124564, 0.17900898972398904, 0.1837976054731786, 0.18863574286040688, 0.1935057625018829, 0.19844447036055016, 0.2034163480290352, 0.20845201475856645, 0.2135339150768328, 0.21884195398784267, 0.22399248639968938, 0.22902084820980523, 0.2343021150807173, 0.23962473001080495, 0.2450871983647628, 0.2504789479878827, 0.25582626615975457, 0.26131944003687846, 0.2668506112187478, 0.27239017846212843, 0.27799936604378483, 0.28371001612645347, 0.2893795040773851, 0.295086369296356, 0.3008236713282596, 0.3066026548317402, 0.31251126239881466, 0.3183444541030831, 0.32421461573318433, 0.33001527452215934, 0.3359672307969009, 0.34200322854555915, 0.34799891912988556, 0.35402229820266357, 0.35995002107257396, 0.36604047781155746, 0.3722352959946775, 0.3783488379262875, 0.3844839314373504, 0.3905639036580229, 0.39674837847439287, 0.40284514782195807, 0.40907007737077467, 0.41530229508485544, 0.4217164077546508, 0.4279415646493425, 0.4340153028755717, 0.44029448781341035, 0.44657814131750634, 0.45303176289070507, 0.45930269961829095, 0.4655922810344152, 0.4718862879424905, 0.47818981643393027, 0.48446041502380754, 0.4907829382516407, 0.49699427082587266, 0.503334250317744, 0.5096675884178555, 0.5160724712110334, 0.5223815996893698, 0.5286291554149584, 0.5349375562709183, 0.5412368455428327, 0.5474943135829157, 0.5537771676654524, 0.5599973415718505, 0.5662592967762029, 0.5725039031720183, 0.5787976632293437, 0.5849979454943605, 0.5911076811247845, 0.5972864107833367, 0.6034435760790405, 0.6095466222109869, 0.6156628863614098, 0.6218352212220462, 0.6278900179822361, 0.6339229123460597, 0.6398250027754433, 0.6458236673052534, 0.6518485368290694, 0.6577755477287729, 0.6636729232208829, 0.6696558629075118, 0.6754760239967281, 0.6811041176828281, 0.6868904401654458, 0.6926371203796183, 0.6984599395976474, 0.7041110785092801, 0.7097012502256961, 0.7152844695715368, 0.7208282494065887, 0.7263603836298755, 0.7318178167064232, 0.7372453413371116, 0.7426168177153663, 0.7479446392082186, 0.7530413666859576, 0.7583012686434393, 0.7636542166987008, 0.7687790455273616, 0.7738546355450611, 0.7787402427429777, 0.7837313983413112, 0.7886764966432074, 0.793544650526324, 0.7983529605219234, 0.8032115894560055, 0.8078852771683979, 0.8124722453857451, 0.8170391170561188, 0.8215467706995612, 0.8259971216203447, 0.8303830205604424, 0.834674984369135, 0.8389400621147808, 0.843139519570299, 0.8472465548161789, 0.8513161514444266, 0.8552876473928194, 0.8592224073040082, 0.8630855782488438, 0.8667693372230328, 0.8705020767053474, 0.8743510086041119, 0.8779024511934752, 0.8813870527358947, 0.8847860146037533, 0.8881351540214709, 0.8913225411714757, 0.8945388221931401, 0.8976765088287441, 0.9007121960138258, 0.9036951409725656, 0.9065336600651084, 0.9093636663155279, 0.9121094060640312, 0.9148991268616744, 0.9174610933357938, 0.9199321802306054, 0.9223423451435201, 0.9246735120850567, 0.9270354302077758, 0.929192536597317, 0.9312399446051919, 0.9332503494167356, 0.9351811670136966, 0.9370460152990393, 0.938813161383581, 0.9404438195404162, 0.9420546532885561, 0.9435796527098583, 0.944957600198822, 0.9463181491096146, 0.9476442041339332, 0.9488186906666158, 0.9499072500932103, 0.9509358902935742, 0.9518488478463364, 0.9525519551696602, 0.9533107121669535, 0.9539770521697462, 0.9545168903779498, 0.9550051174682789, 0.9554970511536931, 0.9557895640466688, 0.9560288383503444, 0.9561467948281651, 0.9561811887104973, 0.9560997552240382, 0.9559702583610838, 0.9558535436874677, 0.9555395793489645, 0.9551453948554396, 0.9544843242519605, 0.9539514660285608, 0.9535153640214994, 0.9527754265494632, 0.9519561985810723, 0.951025205443253, 0.9500500593286583, 0.9488386053098018, 0.9477185336179139, 0.9465077895615902, 0.9453269854654882, 0.9439240125755547, 0.9424788363332457, 0.9409112957999405, 0.9392663243553127, 0.9375962332618701, 0.935789826905538, 0.9338742431665799, 0.9319234521064944, 0.92989611419486, 0.9278186912048988, 0.9256359149683043, 0.9231989188980219, 0.9208912131470334, 0.918500010581495, 0.9160794964105508, 0.9135201515225363, 0.9108535177210165, 0.9081487178574242, 0.9053690365203412, 0.9026785897711609, 0.8997324993877706, 0.8965471799679914, 0.893499576045459, 0.8903800058373025, 0.8871551395945124, 0.8839006368762188, 0.8807220139954622, 0.8773118531482619, 0.8738436016663902, 0.8702158467485382, 0.8666453463576214, 0.8629686686953761, 0.859279908909482, 0.8555288417205296, 0.8518188661166305, 0.847935222500262, 0.8440637039752739, 0.8400689757983718, 0.8360273747590753, 0.8319682177848143, 0.8278300519666081, 0.8235023716872251, 0.8192945681279385, 0.8150352012246852, 0.8108393520237098, 0.806467610659463, 0.8018899676496821, 0.7974594267483293, 0.7929807906847225, 0.7884358581727676, 0.7838699442030207, 0.7794498888662335, 0.774775941915652, 0.770073490447275, 0.7653515982257473, 0.7605921792579456, 0.7557770401671313, 0.7509685826015449, 0.7461331143989105, 0.7412367564694072, 0.7363547377267962, 0.7314323697098274, 0.726501976178857, 0.7215477869861601, 0.716591685302499, 0.7115919220216963, 0.7065915083994205, 0.7015546871073745, 0.6965034230062045, 0.6913778776931054, 0.6863090892548357, 0.6811447255204878, 0.6760596223922724, 0.6709592398789995, 0.6657819499955953, 0.6606659453621309, 0.6555638545198722, 0.650422552747052, 0.6452753311579794, 0.6401445408649633, 0.6349888150370279, 0.6299241429311403, 0.6247604705516895, 0.6196058779654159, 0.6144785503564194, 0.6093421913373801, 0.604072916318885, 0.5989805259668743, 0.5938939268688589, 0.5889110473000964, 0.5838298004293403, 0.5788322891492534, 0.5737772910066445, 0.5687448378605108, 0.5636830525191142, 0.5587037275471836, 0.5537281462827266, 0.5487944833125836, 0.5438832048748263, 0.5389374081460159, 0.5340819391762566, 0.52917948379925, 0.5243800481705165, 0.5196027097101946, 0.51499197781163, 0.5102469049922093, 0.5055784463219324, 0.5009006246325086, 0.4962621689471694, 0.4915703703481333, 0.4870234154372697, 0.4824129137120133, 0.4779502800490581, 0.4735198406182943, 0.46932122023502654, 0.4649359045302236, 0.460544107804011, 0.4562632603719457, 0.45202812355963223, 0.44774046204980245, 0.4436110558793994, 0.4396079534680037, 0.4355533248663652, 0.4315481959280941, 0.42749430419260864, 0.4236023912255053, 0.41988406025566566, 0.4160687033385311, 0.4123088439555169, 0.40856102696797536, 0.40491816184468304, 0.4012707709925921, 0.39774308487359694, 0.3942669357646292, 0.39099160675373873, 0.38760280245261264, 0.38426509224605426, 0.38100282252947265, 0.37780194858605, 0.37450827769109496, 0.3714493463573136, 0.36842549120122603, 0.3654750455002157, 0.36257850581862916, 0.3598881792757365, 0.3570836617274389, 0.35435334068871, 0.35167826560924664, 0.3490683973469891, 0.3463751090402746, 0.3439133227810638, 0.34166150290956576, 0.33929298045177786, 0.33699077103318653, 0.3347281887874649, 0.33256039463183, 0.33029033072934894, 0.32827015520235814, 0.3263037525833828, 0.32465099759931826, 0.32276274605862637, 0.3207045131991077, 0.3189879743581932, 0.317326563580805, 0.3157908536334696, 0.3142331601858631, 0.3128266390785998, 0.31137953064162477, 0.3099982237569946, 0.30855678506961326, 0.3073201308515881, 0.30622972574748003, 0.3050941612883976, 0.30402012684193214, 0.3030069404570805, 0.30205393424495774, 0.30106743033215705, 0.3002445823894945, 0.29947474362261445, 0.29886848255068293, 0.2981909226870768, 0.2974999494372125, 0.2969490601870204, 0.2964803863362134, 0.29603173348659384, 0.29563705233589405, 0.29519390106522253, 0.2949179160869679, 0.29472875734196613, 0.2945399712884987, 0.29439965634970516, 0.29438874777622276, 0.29433365657777794, 0.2941905430261907, 0.2942548508471356, 0.294360354345737, 0.2946581464992829, 0.29482662315737446, 0.2949715929203762, 0.29524601150575874, 0.29556243073884064, 0.2958880121648709, 0.296289870900197, 0.29668278731775366, 0.2971650087040051, 0.2976808331464447, 0.29818338081115425, 0.2987710982128971, 0.29957740029788615, 0.3002002717916949, 0.30086281847149593, 0.3015340176337816, 0.302273829325716, 0.3028542596098772, 0.3036818296062494, 0.30452825592584437, 0.3056059214780553, 0.30646361272624834, 0.3072998336778646, 0.30822390194703453, 0.3091720931314576, 0.31001225871504834, 0.3110212497259777, 0.31208088137415607, 0.3131105879187411, 0.3141547407232454, 0.3152852934471486, 0.3163469436222389, 0.3174248174442492, 0.31851747827271415, 0.3196235275017657, 0.32054683912627063, 0.3217002312820372, 0.3229334769016208, 0.32407378872267933, 0.3252175404132463, 0.3263582336177723, 0.32750749165706644, 0.3286314896508898, 0.3297850765475007, 0.3309364884864526, 0.33221879097809365, 0.33334693332060894, 0.33436200951468914, 0.33550939663236573, 0.3366498110953808, 0.3377417992636982, 0.3388711087119935, 0.34002658261816565, 0.3411273456893503, 0.3422175077296714, 0.3433775265778309, 0.344433381493112, 0.3452768933783009, 0.34633915065855636, 0.3473779974296499, 0.34841687349368927, 0.34940637873379143, 0.3504175488451297, 0.3513573029883523, 0.352276774610901, 0.35330011969524244, 0.3541606921198735, 0.3550228969698842, 0.35584778877796097, 0.35665426285109075, 0.35746382188267456, 0.35822538919287494, 0.3588574007514694, 0.35958697719358995, 0.3602854609125375, 0.36086515386445145, 0.36151100010197346, 0.362093210430355, 0.3626676163397159, 0.36320339174208055, 0.36373857151330274, 0.3641929493293268, 0.36460256117923423, 0.36498564267913397, 0.36533154689430547, 0.36561964050312007, 0.36589288269907094, 0.36615304210809185, 0.36634430414996283, 0.36649739277847143, 0.36658569527351986, 0.36666439830431596, 0.36672247398233865, 0.3667164347093258, 0.3666701105580514, 0.3667429742350097, 0.3665946593740772, 0.3662481627116866, 0.36605417554067143, 0.3658152876807991, 0.36560710484836917, 0.3652689225344724, 0.3648639539490453, 0.3644472131260979, 0.3639872134682767, 0.3634429853276358, 0.36290082909404897, 0.36225718223021186, 0.3616296436608832, 0.3609530424878227, 0.36028028254317307, 0.35950061945866, 0.35876360463502666, 0.35788380072341325, 0.3569643524801475, 0.35589122238115817, 0.35490491705476734, 0.3538912482207609, 0.35280747426156, 0.3516781537494483, 0.35059661221514654, 0.3493653491740613, 0.3481179249213791, 0.346804445699012, 0.34545206587135896, 0.3438510442964492, 0.3424460979051859, 0.3410388941927945, 0.3395258761612351, 0.33796687990225766, 0.3363831386864704, 0.33473221478433846, 0.33306221152236076, 0.33132425921777897, 0.3295464250198096, 0.32778430833193034, 0.3259208468459275, 0.3238880353821296, 0.32197018489403756, 0.32000920585146164, 0.31815162206859415, 0.3160894721427215, 0.3138794001027716, 0.3117684752753336, 0.30961910480855664, 0.307475824201446, 0.3052468093277956, 0.3030455336875345, 0.3007426768605887, 0.29841093665378793, 0.295861402314458, 0.29349597834754737, 0.2912047811589791, 0.288748513808068, 0.28626288991969917, 0.2837688802849214, 0.2812238488321579, 0.27873098926386153, 0.27612389728284426, 0.2734959109940965, 0.2707597452336439, 0.26810086743759315, 0.26540755229259855, 0.2626992542490867, 0.2599665624523822, 0.2572714862536552, 0.2544851666301368, 0.2516254970896334, 0.2488103554840526, 0.2459749098040078, 0.2432335001898736, 0.24034601117824825, 0.2375521012524874, 0.23462926444123414, 0.2317013795239791, 0.22876201110588124, 0.22582308912864069, 0.22280771013945674, 0.21986416308553555, 0.2169100137217571, 0.2139024037775194, 0.21093483282815276, 0.20798852167792417, 0.20499665926517308, 0.20199821969005674, 0.19910163971134603, 0.19607910156225417, 0.19300927827672165, 0.1899972936947699, 0.18698486080598486, 0.1839900686248572, 0.18097651475565427, 0.17806728463904548, 0.17504663765072068, 0.17216053361298028, 0.16914304098697364, 0.16614197460689265, 0.16301400852501013, 0.16006136966220672, 0.15713551049303429, 0.15419403414740762, 0.1512618956964453, 0.14849099732642526, 0.14556068387137508, 0.14255458190442052, 0.13967628098765505, 0.13681211234319354, 0.13410811088160438, 0.13125593433060906, 0.12843112225130354, 0.12562710194067536, 0.1228470827784701, 0.120099678443684, 0.11736636833397948, 0.11466923089986018, 0.11198370912070814, 0.10932381764098881, 0.10677411088897902, 0.10415566802534373, 0.10148138213348833, 0.09893648773908147, 0.09641778778346284, 0.09405975058167432, 0.09157880306356707, 0.08901176519797156, 0.08661796717407547, 0.08425288100430299, 0.08205989666334021, 0.07973706384470815, 0.0773171167996637, 0.07509033075794, 0.07289501211519007, 0.07094153456095584, 0.06878587516445658, 0.06656025540809278, 0.06451119747138208, 0.06250063553688685, 0.06054362589924447, 0.05860980007992107, 0.056763406593557886, 0.05490598540278296, 0.053092998290709216, 0.05127512906073791, 0.04955761831192663, 0.047978161363326895, 0.04633341917992812, 0.044737463012806615, 0.04320467225194521, 0.04170406475060006, 0.04036037822279906, 0.0389448418520524, 0.03758465259955942, 0.0362702906500576, 0.03501965910228747, 0.0336853201845269, 0.03255749003355535, 0.031474395390949844, 0.030573639229051586, 0.029565617179606693, 0.02866508168835109, 0.02776047873678765, 0.026913480394202417, 0.02609737452178148, 0.02536736060070025, 0.02474158881923202, 0.024114948988661428, 0.023545906385264357, 0.023010880940875923, 0.02255908660980688, 0.022078562534116084, 0.021748660704699475, 0.021469818021891452, 0.021303911291988567, 0.021121902375332964, 0.020877508844613597, 0.020824330491504155, 0.02082159911284921, 0.02100416762951722, 0.021088713516668033, 0.021248812361153897, 0.021453297000340214, 0.021719138292310636, 0.022095457711713156, 0.022476924293714763, 0.022915956778810403, 0.02342435078472472, 0.023994744940630617, 0.024472705320980507, 0.025185531437123182, 0.02611064889684215, 0.02690910326625802, 0.027770864659138063, 0.028579168452330755, 0.029580841065708754, 0.030582774651893876, 0.03170302257470102, 0.032876803231368136, 0.03407595409403702, 0.035363075267077555, 0.036870161722310266, 0.03824568875878293, 0.03968629104805247, 0.04109238648456152, 0.04267346009658394, 0.04421899248988001, 0.04592701330223105, 0.04768769519668339, 0.04952516899540554, 0.05139072340507164, 0.05323398846678094, 0.05522217683817529, 0.057262711573473, 0.05950754909469023, 0.06163591519350772, 0.06357709779018585, 0.06586188828817564, 0.06819389653483063, 0.07065580852487115, 0.07307562805623696, 0.07529178341400741, 0.0778544770522197, 0.08045775239462727, 0.08318790996847716, 0.08586737334118835, 0.0885507180560189, 0.09133730661040566, 0.09417245172323718, 0.09699857206478196, 0.09993968798159909, 0.10272090541945406, 0.10578168386039762, 0.10887836486436635, 0.1121785549245535, 0.11533148680015688, 0.11842099436309503, 0.1216878030395051, 0.12499741902010532, 0.12820490960137151, 0.13161957970556884, 0.13513939878283418, 0.1386171286085733, 0.142136119175176, 0.14574583796531093, 0.1493411110236632, 0.15282900264719437, 0.15653021997190697, 0.16026523922377175, 0.164031559290413, 0.16783558346301655, 0.17165939813044573, 0.17553384680366135, 0.1794415471385069, 0.18350439571673144, 0.18746246702403033, 0.19125915193765808, 0.19531948021131165, 0.19940481844449465, 0.20349212365973712, 0.2076308970263923, 0.21191272699138466, 0.2160841433788145, 0.22028591484103116, 0.2244789997496519, 0.22874251432084416, 0.23312937504856038, 0.23742850287692088, 0.24175583725305608, 0.24591776858098247, 0.25032059106984555, 0.2548114022172261, 0.25922949386230926, 0.26366411862734734, 0.26813477455555823, 0.27259731080652916, 0.27719406431052507, 0.28167050310539954, 0.286166469829856, 0.29067700068797414, 0.295206338469444, 0.2997521208428649, 0.3043064544641406, 0.30887114845653785, 0.3132498629656532, 0.3178552388566381, 0.32265899291429445, 0.32722860209370447, 0.33180472112586706, 0.3364117669452665, 0.3409924435244776, 0.3454888904357498, 0.35008481005002134, 0.3546754196331315, 0.35924530342573713, 0.36382446439410115, 0.3683308370612535, 0.37289958043884075, 0.37755594343823834, 0.38208319425523646, 0.3866011687201931, 0.39102418285633134, 0.39553013393710496, 0.39997729299545903, 0.4044515501913808, 0.4089040605504137, 0.4133227404956398, 0.4177317601765825, 0.42220683807729165, 0.42655571980930646, 0.4308842529036706, 0.43512987440981726, 0.4394208957539224, 0.4437185335171956, 0.44794764357945477, 0.45214846513061296, 0.45646501239781384, 0.4605868884861707, 0.46468173773331667, 0.46875324833516774, 0.47279563816470543, 0.47668172423273986, 0.48067523728892947, 0.48471651652685066, 0.4886130844169973, 0.4924706143086973, 0.4961304852716173, 0.4999249019840941, 0.503672515785849, 0.5073607420160748, 0.51099612204929, 0.5146130574536196, 0.5181368062788481, 0.5216225125440161, 0.5250382804498938, 0.5284002840361836, 0.5317422544463252, 0.5349888609834922, 0.5380958986511541, 0.5412411903514859, 0.5443236466365885, 0.5473803696157499, 0.5503302628840361, 0.5531678138599851, 0.5559969788778091, 0.5587581968608264