0.04899219437836503, 0.04847308835502946, 0.04797182774674277, 0.04748107350803736, 0.047008787355435316, 0.046532989997154106, 0.0460826103297675, 0.04563924115419515, 0.04520499134740106, 0.044772153822111076, 0.04438846671960727, 0.0439581812623119, 0.043533657693452334, 0.043096551598336086, 0.04268358991693032, 0.04222237792616747, 0.04182134431407197, 0.041419872709053875, 0.041053407299509875, 0.040647543035802834, 0.04023457113046189, 0.039834911312497015, 0.039437307751802236, 0.039062707950175336, 0.03866715821882648, 0.0382354934537469, 0.03785267531232837, 0.03747156297862763, 0.03708618976333863, 0.03671054174325514, 0.03636459589916195, 0.035991024576146675, 0.03562232182699027, 0.035215504572265494, 0.034862419907558236, 0.034532981633009635, 0.03418353238623728, 0.03383907927100588, 0.03350785508597339, 0.03317310961656375, 0.03284130997881425, 0.032519389280661705, 0.03220370630641226, 0.03186087785749871, 0.03156237897073928, 0.031292648168060246, 0.031001148929588086, 0.03071658361827924, 0.030439095420769162, 0.030168820271445174, 0.029897901743852887, 0.029643445851829025, 0.02939612818273464, 0.029152934198795593, 0.028920825383861804, 0.02865625286567241, 0.028444301842593077, 0.02823791783068888, 0.02805354996780611, 0.027857663824344375, 0.027663144974312118, 0.027483798823093954, 0.027312272133985016, 0.02711685824842819, 0.026965701909308783, 0.02682921304269113, 0.026690850947019135, 0.02656045552837251, 0.026441512715702158, 0.02632749354010275, 0.026230401017105512, 0.026133445682353935, 0.02604624847782684, 0.025936964691107716, 0.025873617641620737, 0.025848871876779346, 0.02579854495957628, 0.02575883970182167, 0.02566750750308968, 0.025657053450155815, 0.02575928159831812, 0.025750588262667715, 0.025756133001940837, 0.02569246128362115, 0.0257358434643454, 0.02583249702505676, 0.02588775292062587, 0.02595488797754523, 0.02598119050371706, 0.02607874985469377, 0.026199631744159395, 0.02631372417283963, 0.026438438538155806, 0.026597990773355697, 0.02674167237301299, 0.026866089225530583, 0.027039177177910975, 0.027223177249920277, 0.027403995672275226, 0.027612455563695362, 0.027798249082306957, 0.028033027022913954, 0.028277418114548734, 0.02859744044634335, 0.028854314490821927, 0.029113119537627123, 0.029400866830067346, 0.029702306774501776, 0.030023810221653232, 0.030351777740574116, 0.030661809862638535, 0.031021775089976042, 0.031393847546539407, 0.031797408284314946, 0.03219189037129039, 0.03261609803322448, 0.033036059292084204, 0.033470653847454915, 0.03387023131389967, 0.034339957452224, 0.034814782577184754, 0.03530859351756056, 0.03581409707558533, 0.036341153794416055, 0.03686962341662607, 0.03745895713256243, 0.03800735652884142, 0.03857155801826424, 0.03910331442428586, 0.03970421675383369, 0.0402917733570024, 0.0409204631525329, 0.041560176216938485, 0.04221599612830917, 0.04287797788205264, 0.04360629354733326, 0.04428558918173713, 0.04498017520856197, 0.04565613683550976, 0.04638445269775458, 0.047096388554576714, 0.04785305123961958, 0.0486204010632897, 0.04938583724091162, 0.05017666688634306, 0.05098426746148559, 0.051795221206235906, 0.052617207249508885, 0.05345664724531168, 0.05429995877140256, 0.05513710364193456, 0.056005341800183454, 0.056883780326354584, 0.057799582183573735, 0.058694988734998385, 0.05960685282505966, 0.06052469360507574, 0.06145388998258343, 0.0623541894667222, 0.06331018693258707, 0.06428713292325791, 0.06525787631437671, 0.06623751276993405, 0.0672466572822468, 0.06824099266203137, 0.06920176976697207, 0.07022033155122735, 0.07124533014169249, 0.07229913017437693, 0.07333414980888289, 0.07437357195009324, 0.07542391375486797, 0.07648111708178194, 0.07753853358713549, 0.07860948171707775, 0.07970050725105093, 0.08078081395725231, 0.08186715981661942, 0.08294160759701746, 0.08404115342438631, 0.08516382666369751, 0.08626865473640842, 0.08737807203704892, 0.0884661242859946, 0.08958676089130013, 0.09072694364784409, 0.09184913604761281, 0.09294516727032637, 0.09407581337446812, 0.09520671714464332, 0.09640163869676593, 0.09752456601144496, 0.0986141312834099, 0.09974772970144802, 0.10088123972460876, 0.10198396811378449, 0.1031200967825742, 0.1042981087609136, 0.1054227954023442, 0.10654689986854983, 0.1076650983459741, 0.10878706549516982, 0.10985392843373055, 0.11097732126726614, 0.11209447549500587, 0.1131942027055557, 0.11430022274989406, 0.11543755001378136, 0.11652462621081128, 0.11760669126247585, 0.11872163793207524, 0.11978751465242489, 0.12079810458676973, 0.12186134775735323, 0.12291609888672574, 0.12394453173605621, 0.12498373111868084, 0.1260286007533814, 0.12704501187235093, 0.1280516567253063, 0.12906894761188897, 0.1300523719124578, 0.13098299210859882, 0.13195196965964356, 0.132907781937889, 0.1338917920105464, 0.1348155001941493, 0.13567668370355024, 0.13658344806835307, 0.1374747940731065, 0.13839052389762008, 0.13924556696631032, 0.14008854933278206, 0.140915536513103, 0.14172789599985688, 0.14250594292468016, 0.1432899317428286, 0.14406469641455638, 0.14481293706161966, 0.14554377409939293, 0.1462711902695147, 0.1469642307283906, 0.14758520660495283, 0.14824910058085783, 0.14889121888806373, 0.14956744338058522, 0.15015884332793683, 0.15069949123407828, 0.1512567446446512, 0.15179228782328305, 0.15233780970637534, 0.1528251217952891, 0.1532549983424799, 0.1537050296945458, 0.15413127689299957, 0.15452238529505966, 0.15490194392703016, 0.1552421611770406, 0.1555734910167806, 0.15587880328441564, 0.15617883106152203, 0.15642936377537198, 0.15668522137359245, 0.1568816044286419, 0.15705413511330188, 0.15717675349363155, 0.1573033319904168, 0.15743196304268342, 0.1575013115411875, 0.15754517853961697, 0.1576094588367365, 0.1575952669807642, 0.15755382407361834, 0.15749122034873966, 0.15740304936714655, 0.15727440047517718, 0.1571353636745515, 0.15698289094284723, 0.15678615579020888, 0.15656192873576927, 0.1563562129672583, 0.15607023853855345, 0.15576013968129082, 0.15542194402862936, 0.15505704213309426, 0.15470013236298696, 0.15427612053142578, 0.15386937092085, 0.1533876403066931, 0.1528814699217721, 0.15237249515202686, 0.15181255445820202, 0.15124355309019724, 0.1506309303464361, 0.1499930831408119, 0.1493294877266423, 0.14863972249681595, 0.14800331847464068, 0.14725021098810964, 0.14647466825121733, 0.14566636090135268, 0.14484506107200631, 0.14401971973963884, 0.1431458945468478, 0.1422479424315755, 0.14137828971990737, 0.14042466952391597, 0.13948285170373223, 0.13848106335606017, 0.13745864066943175, 0.13646460746846886, 0.13539331741934993, 0.1343238452214308, 0.13321150363788103, 0.13208045596266774, 0.13095103660307167, 0.1297787992975059, 0.12864722329003692, 0.127430413118462, 0.1261981421236838, 0.12499784488086257, 0.12372730161809926, 0.12242701216042959, 0.12113048535331897, 0.11981853513313809, 0.11856140911171381, 0.11720974675371199, 0.11585322055599569, 0.11447794306722903, 0.11309131382390175, 0.11170443690275353, 0.11029358402860358, 0.1089088680484857, 0.10747233510205606, 0.10602768708599954, 0.10457177990799683, 0.10311156920723509, 0.10170103994907054, 0.10021830048092642, 0.09873180042733117, 0.09724159725138676, 0.09574786433711986, 0.09428761410373553, 0.09278309844841383, 0.09127820928611714, 0.08977796453660207, 0.08827250145425664, 0.08679984588775835, 0.08529252612495117, 0.08378884819683291, 0.08232269279959112, 0.08082316553886781, 0.07933842636876871, 0.07785180388000405, 0.07637314844261311, 0.07493642899422744, 0.07347083303587583, 0.0720198050245162, 0.07057693353973063, 0.06914646868705264, 0.0677113688694098, 0.06630959648778872, 0.06494340400915913, 0.06356610978531992, 0.06220505774903738, 0.06092009445300468, 0.05958635106607934, 0.05822024555132537, 0.05693765260357436, 0.05567484102915932, 0.05446635605813464, 0.053241894092835196, 0.052000625632458206, 0.05083163025226864, 0.049686614697864354, 0.04860509718506244, 0.0475067399009399, 0.04642845510166888, 0.04539146654735691, 0.04438531431122653, 0.04343812434113693, 0.04249314237185943, 0.041521178998797696, 0.04065547273104971, 0.03982317219930602, 0.03904957497115108, 0.038285036153558445, 0.03758470740710833, 0.03689528492395398, 0.03624801984508936, 0.035658104240295994, 0.035095805445702156, 0.0346109162945427, 0.03413625589988955, 0.033681621381185585, 0.03330868262901279, 0.03298402629991374, 0.03269413708800681, 0.03247045111594833, 0.032250525743761874, 0.03213385117838037, 0.032066635980037304, 0.03210293157603551, 0.032131942500299826, 0.03217570136462072, 0.03232326883985678, 0.03252629633484369, 0.03277470013358177, 0.033093311177408075, 0.03344756522693443, 0.03388608345303176, 0.03438344941632603, 0.03495360466568686, 0.03557047988747077, 0.036240646036920565, 0.03698536879638391, 0.03779416567486358, 0.03869348431603974, 0.03962983257383763, 0.04059750510793779, 0.04167518509411044, 0.04281998697080436, 0.04405990470145218, 0.045337993725802564, 0.046687112517680325, 0.048107749831420854, 0.0496003819716987, 0.05115109742846651, 0.05279091343954483, 0.054466530940582555, 0.05625660314745912, 0.05811819498060184, 0.060055274540171275, 0.06206175808482024, 0.0641245023571253, 0.06628143340968153, 0.0685122903812757, 0.07082566909352918, 0.07320513521404486, 0.07565742753405665, 0.0781897092141667, 0.08079852973336242, 0.08343308986307905, 0.0862023421973214, 0.0890700317444663, 0.0919858133713796, 0.0949785313234407, 0.09803564607402816, 0.10118451482896565, 0.10444370611122832, 0.10774209041611717, 0.1111194704093532, 0.11454531472560923, 0.11808395369288686, 0.12168171351335241, 0.12537596344629084, 0.1291458879158207, 0.13299314089118633, 0.1369143218483106, 0.14086813346758434, 0.14494614931529962, 0.14909719415620235, 0.1533389592778438, 0.15763411916817216, 0.16198423741958856, 0.1664298071899089, 0.17094784709687705, 0.17554293747522653, 0.18020461215480535, 0.1849413935290719, 0.189746054651814, 0.19462189006775119, 0.1995683451082135, 0.20458482495252137, 0.2096706966822787, 0.21482529113505502, 0.22004790457540505, 0.22529467544536014, 0.23065653681138112, 0.23609926094026157, 0.24158500514481313, 0.24713399179344858, 0.25271830603426226, 0.2583948791934713, 0.2641435304423789, 0.2699364183105128, 0.27578791787667917, 0.28166518673534185, 0.28763521061018543, 0.2936688144256531, 0.2997448558048911, 0.30587383515074484, 0.31205637718038914, 0.31828806415485783, 0.32456173189920295, 0.33089323998431974, 0.33727198406205433, 0.3436600963361424, 0.3501345196138633, 0.35666816842553956, 0.36322272918322146, 0.3698179544710015, 0.37642226700720066, 0.3830989252303216, 0.3898378829920687, 0.39658029817472445, 0.40335711261327895, 0.4101716736493073, 0.4170123215639707, 0.4238369085291059, 0.43074237264317766, 0.43767236575235013, 0.4446416435225749, 0.4516149649912063, 0.45857314939517246, 0.4655928011443141, 0.4726289355865481, 0.4797058332285152, 0.48676781544659875, 0.4938245435469619, 0.5009151248121891, 0.5080152241445224, 0.515083377273137, 0.5222029234513067, 0.529328234961524, 0.5364512086196204, 0.5435742456356271, 0.5506767181316508, 0.5577978711030545, 0.5649134828766502, 0.5720221115139269, 0.5791222606172711, 0.5862555100956613, 0.5933285706036229, 0.6003764396976495, 0.6074276802014196, 0.6144633029611893, 0.6214223508681762, 0.628428628524843, 0.6354407371029179, 0.6423927618515947, 0.649319149795604, 0.6561766398123113, 0.6630517903682317, 0.6699272764626527, 0.6767303422765641, 0.6834991731321847, 0.6901904514808684, 0.6968906906224175, 0.703552183856158, 0.7101666812868473, 0.7167364650867897, 0.7232104678545342, 0.7296923983978877, 0.7361364801067253, 0.7425109284823772, 0.748831463508832, 0.7551221921580098, 0.7613272924885707, 0.7674515208617957, 0.7735440901296667, 0.7795749448576329, 0.7855265929029419, 0.7914314665187079, 0.7972595555263408, 0.8030298234455198, 0.8087295060330607, 0.8143700142484345, 0.8199227927931227, 0.8253536383701382, 0.8307629331396571, 0.8360925123091347, 0.8413716173197132, 0.8465345764190783, 0.8515969408101315, 0.8565980311070284, 0.8615137593575439, 0.8663476643790109, 0.8710883027076994, 0.8757336996450708, 0.880296155376795, 0.88476684276905, 0.8891397652410644, 0.8934239183440477, 0.8975853034835715, 0.9016805339137415, 0.9056763886090841, 0.9095592124062141, 0.9133552895987562, 0.9170422297835672, 0.9206328295447752, 0.9241187355579688, 0.9275183630886167, 0.9307901980865699, 0.9339593411125932, 0.9370180885122281, 0.9399166244385225, 0.9427661447208134, 0.9455034663924133, 0.9481218039661141, 0.9506343270066729, 0.9530905507427478, 0.9553678205076046, 0.9575337384212584, 0.9595666802878813, 0.9615099965883545, 0.9633112349563647, 0.9650276105125232, 0.966626524165112, 0.9681556553273312, 0.9695128844068945, 0.9707498666716303, 0.9718762038792206, 0.9728857075808557, 0.9737539991490379, 0.9745316597989243, 0.9752044229706688, 0.9757416578038659, 0.9761603281244889, 0.9764012155494961, 0.976589908420953, 0.9766980154563878, 0.9766377161954664, 0.9764585883830198, 0.9761272151683127, 0.9757150801897604, 0.9751843116173429, 0.9745320142806899, 0.9737605808988364, 0.9728800919936037, 0.971870677546471, 0.9707154422806678, 0.9694759814020303, 0.9681187848191499, 0.9666637669707323, 0.9650709202812442, 0.9633684552411257, 0.9615467898023852, 0.9596122272341521, 0.9575877575151437, 0.9554264967352167, 0.9531332285594789, 0.9507560601153204, 0.9482691647567154, 0.9456765893008827, 0.9429724251555099, 0.9401342133049729, 0.9372206140729072, 0.9342004749933179, 0.9311005612971035, 0.9278677481708609, 0.9245095246060597, 0.9210778684407737, 0.9175455186384487, 0.9139009985340713, 0.9101727927873564, 0.9063662854390108, 0.9024421661070224, 0.8984245501417452, 0.894287586682621, 0.8900903425863184, 0.8857988692761899, 0.8814215595437948, 0.8769562349621945, 0.8724476465345138, 0.8678057192081373, 0.8630782883544506, 0.8582768306580454, 0.8533970166771658, 0.8484163103145247, 0.8433871182859535, 0.8382586488382393, 0.8330835734255658, 0.8278352953853407, 0.8225668631771316, 0.8171715174329053, 0.8116413359191095, 0.8061272529849712, 0.8005477003528415, 0.7949335726773757, 0.7892258486186183, 0.7834510289213156, 0.7776313225156626, 0.7717572354329643, 0.7658674276190472, 0.7598857056798215, 0.7538063239956709, 0.7477395942935654, 0.7416267407838091, 0.7354858465282428, 0.7292850394772977, 0.7230740318859902, 0.7167936202762066, 0.7104797367258452, 0.7041005451095612, 0.69772910545226, 0.691321128560074, 0.6848922589304922, 0.678436989364762, 0.6719574088337058, 0.6654555901500661, 0.6589272021949903, 0.652387873966486, 0.6458320803983241, 0.6393177926287618, 0.6327281882767712, 0.6260802975585025, 0.6194843714936451, 0.6128815758828638, 0.6062947275907364, 0.5996817066621349, 0.593053108552141, 0.5864447242800316, 0.579839495480723, 0.5732154225179247, 0.5666253924061777, 0.5600685531886166, 0.5534926633039617, 0.5469300029831046, 0.5403376658422276, 0.5338125543607263, 0.527330727079261, 0.5208365847523697, 0.5143643178860423, 0.5078949711379596, 0.5014744815956839, 0.4950816527046878, 0.4887149920167144, 0.48237824815976893, 0.4760716289409678, 0.4698002972385848, 0.463586454770454, 0.45738425929495924, 0.4512218249318167, 0.44508463615122473, 0.4390081017954735, 0.4329555998627178, 0.4269694335744214, 0.4210284530579185, 0.41514068609902416, 0.40929413663262415, 0.4034771380430087, 0.39773528805625297, 0.39204543972704237, 0.3863883668525753, 0.38080970297378725, 0.3753470145373078, 0.36987278191720135, 0.3644602517939922, 0.35909596817675654, 0.35381141566532653, 0.3485521751111623, 0.3434007810749421, 0.33831290076382814, 0.33325148315798914, 0.3282992596156335, 0.323440806958463, 0.31861639913116013, 0.31386134959084916, 0.30917026619686705, 0.3045576778840018, 0.300055255049569, 0.2955823799873299, 0.2911852255731179, 0.2868626773428926, 0.2826186037632708, 0.27838289548778616, 0.27430205401394825, 0.27029530100991367, 0.2664131225561619, 0.2625511149164583, 0.25872231174276566, 0.2550255312212972, 0.2514062972171064, 0.24786206120771057, 0.24440018973611133, 0.2410797021969866, 0.23776860758109503, 0.23454097222252526, 0.23137906898657692, 0.22832010478256673, 0.2253591233724674, 0.2224621493122175, 0.21964803714461867, 0.21683993645357072, 0.21420068088470398, 0.21168732278983213, 0.2091983737026125, 0.20679080981218054, 0.20442454361799997, 0.20218429552735104, 0.200048181011468, 0.19796192811670763, 0.1959557568894958, 0.19401821433129715, 0.1921727652848952, 0.19037230082526543, 0.1886878531816928, 0.18711775364611807, 0.18558037837445418, 0.1841208722113151, 0.18273867064671748, 0.18143318181571752, 0.18015906505607943, 0.17901077328348727, 0.17793474874594636, 0.17694183411452627, 0.17600784712155257, 0.17514553649395342, 0.17435427882224377, 0.1736334052252286, 0.17301734273933397, 0.1724306196396985, 0.17188205579284926, 0.17143847105574728, 0.1710609834712311, 0.17073596586281067, 0.1704897061831774, 0.17029180451774625, 0.1701719861663137, 0.17011236878750338, 0.1701424933155199, 0.17019697264318537, 0.17026127785732376, 0.17043950694457569, 0.1706719084070346, 0.1709480885903932, 0.17128755646536942, 0.17168444494822047, 0.17212427306943584, 0.1726136457923358, 0.17317546987972793, 0.17375770955424055, 0.17440034882967606, 0.1750748666659682, 0.1757950183114507, 0.17654177212388703, 0.17735103444337483, 0.17819419381347773, 0.17908353810004174, 0.18001020341476, 0.18096653357060336, 0.18196483138412695, 0.18299624535779793, 0.18405951838545415, 0.1851533762975682, 0.18625097443431402, 0.18740535200182148, 0.18858976560803886, 0.18979290720012507, 0.19101929019352085, 0.19228685956390779, 0.1935536157794811, 0.1948601291473706, 0.19616421165489345, 0.19748710308420933, 0.19877931362201182, 0.20014118648816823, 0.20155925630777433, 0.20293730969881849, 0.20432709207418917, 0.20564722046171868, 0.2070660162657951, 0.20854506673691137, 0.2099612953038782, 0.2113818339372402, 0.21278613898249527, 0.21421360303158982, 0.2156657657719909, 0.21708710329116954, 0.2185066495159113, 0.2199118292318908, 0.22132504718916193, 0.22270138928137065, 0.22410415439935533, 0.22549623532012206, 0.22685909905835153, 0.22822912480045432, 0.22957655523932616, 0.23091750846125847, 0.23224165179688336, 0.23357529291075546, 0.2348598245584938, 0.23612646779136523, 0.23737410077888285, 0.23860161758738316, 0.2398111236037508, 0.24099475488752278, 0.24215363927625927, 0.24329011435319717, 0.24440125586261396, 0.24547648155611473, 0.2465351929569536, 0.24759385318438465, 0.24859047402669393, 0.24955821426309938, 0.25044171343704863, 0.25135543764204904, 0.2523044780103612, 0.25313890562722247, 0.25394132493009725, 0.25465315913538344, 0.25539566390592494, 0.2560871115094679, 0.2567542383068624, 0.25738149570331015, 0.2579318113770064, 0.25848295401952587, 0.25903744510107507, 0.25949672571645244, 0.25991546888822453, 0.2602947661903027, 0.2606307363560575, 0.26092959652881487, 0.26118070390212855, 0.26138929585210413, 0.2615437495221513, 0.2616674273548045, 0.26171478150935984, 0.2617534768627491, 0.2617454934446297, 0.2617483628087086, 0.2616398361669123, 0.261454381339169, 0.2612628681478481, 0.261025234170217, 0.2607126548143556, 0.2603862071063165, 0.26002622816245746, 0.259602361161784, 0.2591318066065152, 0.2586050612869134, 0.2580425950629788, 0.2574491519413815, 0.25679096424033154, 0.256087121724142, 0.2552913864007783, 0.2545023591304685, 0.25368615989546656, 0.2527991644883131, 0.2518664344402623, 0.2508898902600298, 0.24986646651150216, 0.24878241997217676, 0.24767205202553422, 0.2465168256903821, 0.24534119262081958, 0.24409469989060847, 0.24280777049841942, 0.24147731268529815, 0.24010554881470314, 0.23874074420781247, 0.23728138616393052, 0.23573503163662354, 0.23420701682491712, 0.23263891212600524, 0.23105686254870567, 0.2294071300673041, 0.22765347051993273, 0.22593895773177977, 0.22418472796906336, 0.22246529436132284, 0.2206254330259417, 0.2187290511156179, 0.21682745999462374, 0.2148927460331951, 0.21288563820640377, 0.21089172555451235, 0.2088724736239964, 0.20681193925039754, 0.20472058256316045, 0.20259614146408553, 0.2004463319128142, 0.19826829201764926, 0.19606295701691268, 0.19383125406717006, 0.19163958938334463, 0.18934962744993564, 0.18699340128158246, 0.18466978761985817, 0.1823244565804782, 0.17993751920001533, 0.1775540088027734, 0.17519018731789873, 0.17276220362593953, 0.17031831970898068, 0.16787202017506633, 0.1653968680890909, 0.16287998247048313, 0.1603831756038313, 0.15787315925104092, 0.1554259725312686, 0.1528829539896106, 0.1503258561739253, 0.14777202022007133, 0.14521243361696598, 0.1426811981998555, 0.14010760073578984, 0.1375623079336285, 0.13498121384185427, 0.1324006989102463, 0.1297779485910697, 0.12720505871237478, 0.12468899977325602, 0.12210838352533443, 0.11952731092574079, 0.11695641689244285, 0.11439054738736251, 0.11183989492602521, 0.10928473674422567, 0.10679619774751908, 0.10424926503111039, 0.10171451530182705, 0.09926566965146294, 0.09674683173023513, 0.09421974388587925, 0.09173863768241426, 0.0892733136839652, 0.08687043416845586, 0.08443192499952916, 0.08204179872389318, 0.07963909427782365, 0.07725807940870665, 0.07495797316392222, 0.07261333396367564, 0.07028956846696051, 0.06799678091761852, 0.0657293456104303, 0.06353536823663096, 0.06131323869965786, 0.059140744739970164, 0.05697377683507845, 0.054837038431341634, 0.05279289513247085, 0.05070906358405493, 0.048659468906955265, 0.04664394766152895, 0.0446624626162476, 0.04275821148005864, 0.04083966123265312, 0.039044310380488625, 0.03718873142521623, 0.035374999094777426, 0.0335690482172888, 0.031841841699664857, 0.030185441469536733, 0.02853209745603729, 0.02691983827929284, 0.025372682026678247, 0.0238398285982952, 0.02238017536442213, 0.02092927918098937, 0.019523190685291448, 0.018168282679631987, 0.016851037990066587, 0.015585541070945374, 0.014358356695177526, 0.013177247891224063, 0.012117488257456193, 0.011019699584014185, 0.00998731927199139, 0.008989496727821027, 0.008043047050916768, 0.007174909411470935, 0.006327220918335566, 0.0055879455296369, 0.004838010302723233, 0.004143406257419012, 0.0034892642629990455, 0.002905774587143241, 0.0023341359175772713, 0.0018625833836445782, 0.001442000132049534, 0.0010935280645654735, 0.000773395170603855, 0.0005241047647544119, 0.0003085053846919644, 0.0001475960978810028, 5.26479222140157e-05, 0.0, 2.2172271538419568e-05, 7.84640695662496e-05, 0.00019161760895534006, 0.00038553011283761754, 0.0006092267435925461, 0.0009118000288843944, 0.001248922974000775, 0.0016450167343600515, 0.0020566914053603024, 0.002575433501956679, 0.0031852116703031024, 0.003811516533972263, 0.004496100175557293, 0.00522449087328139, 0.00602718036062568, 0.006898291688318457, 0.007814121325888818, 0.008787958146209734, 0.009829357751623483, 0.010917919165661972, 0.012037802556455623, 0.013246649934838074, 0.0145122643219208, 0.0158459633568866, 0.017224086915616308, 0.018704671054671135, 0.020192599408026063, 0.021740731306686755, 0.023302352190351552, 0.024975596411069428, 0.026722928671608106, 0.028507058317091005, 0.030348808235356742, 0.0322879916235308, 0.03423957904410153, 0.03618677776398066, 0.038264992700130354, 0.04039825702548872, 0.042591491203656864, 0.04483459772632975, 0.04712371670050073, 0.04947921263818609, 0.05188971400586096, 0.05437440221960105, 0.056892504495385285, 0.05942671080687762, 0.062061704159419154, 0.06475003286949715, 0.0675380995732441, 0.07032744797319464, 0.07316965579519737, 0.07607110303703137, 0.0790276113843625, 0.0820340247456306, 0.08510017383951457, 0.08823441399410693, 0.09140586765524507, 0.0946312225980791, 0.09783338433047903, 0.10117496239499686, 0.10456329201819316, 0.10800198935422319, 0.11148931650174453, 0.11501738836025321, 0.11860322895653172, 0.1222182165344949, 0.1259031117966272, 0.12963520139771248, 0.13342572482527532, 0.1372509047027549, 0.14112230671335435, 0.14504312830073504, 0.14901124750088807, 0.15301203828871712, 0.15707578753892396, 0.16121713364290485, 0.16536793473161973, 0.16956571691112463, 0.17379556714751837, 0.1780875181097147, 0.18238730349781593, 0.18677262697676428, 0.1911996219270933, 0.19567134322385862, 0.20018081249837444, 0.20471081630132185, 0.2093052167377008, 0.21393913799285005, 0.21861080044679615, 0.22332337227314072, 0.22807948683768908, 0.23286866124171848, 0.23769623303932025, 0.24258735880799526, 0.24748727453018207, 0.25240499410009987, 0.25738400301959646, 0.26239908836310005, 0.26742740536250936, 0.2725160056954603, 0.2776315475758863, 0.2827872751046665, 0.2879752591601965, 0.2931663977804824, 0.2984214400924705, 0.3037395135924776, 0.3090490828100824, 0.31438954734802044, 0.3197235884782924, 0.32512872952112043, 0.3305529397599674, 0.3360128854089166, 0.3414987624646171, 0.34698148502435483, 0.35252180704239783, 0.3580773231910131, 0.36366478886573084, 0.36927447192323054, 0.37494282849949756, 0.3805914043531834, 0.3862504739187072, 0.3919464756001262, 0.39766356081758764, 0.4033915058344114, 0.4091500312927541, 0.41492074270398754, 0.4207166159062295, 0.42652307530314465, 0.43235310632433377, 0.4381985295109358, 0.44405076397868093, 0.449926170550546, 0.4558418132131745, 0.4617393520782477, 0.4676502678979889, 0.4735177867946104, 0.47945991483202277, 0.4854112788503959, 0.49136807287876905, 0.4973317234705299, 0.5032953189782906, 0.5092718804030234, 0.5152612364534294, 0.5212458204089693, 0.5272344542006302, 0.5332216264244366, 0.5392167841016091, 0.5451879432645742, 0.551188703831868, 0.5571880818934677, 0.5631966809432639, 0.5691901066780186, 0.5751521725162041, 0.5811432299374105, 0.5871284772205992, 0.5930865599924218, 0.5990609951946085, 0.6050744683337308, 0.6110245424145727, 0.6169672819380617, 0.6228281827904284, 0.6287624499224082, 0.6346885640495722, 0.6405925107599353, 0.6464813468967974, 0.6523688352236087, 0.6582237466339987, 0.664016054819456, 0.6698433925513922, 0.6756501015838218, 0.6814500270613311, 0.6872120092415471, 0.6929619820051364, 0.6986787530680872, 0.7043728109627657, 0.7099841110482717, 0.7156373570840255, 0.7212648843491126, 0.726859391205216, 0.7324240788824153, 0.7379439101953197, 0.7434487396367606, 0.7489607407845454, 0.7543943231319145, 0.7597959763434075, 0.7650991205066662, 0.7704419140806429, 0.7757362432107394, 0.7810019256501844, 0.7862270067440201, 0.7914108871047005, 0.7965529096009374, 0.8016683382205116, 0.8067224564167265, 0.8117333601394352, 0.8166921090031967, 0.8216147171460746, 0.8265067343901512, 0.8313332748504848, 0.8361122904337935, 0.8408395112878393, 0.8455206621507777, 0.8501125724993812, 0.8546957295276489, 0.8592237824921349, 0.8636656794328509, 0.8680852152868853, 0.8724361568696871, 0.8767383405442183, 0.8809798421020627, 0.8851585065381429, 0.8892771252017809, 0.8933651074950673, 0.8973538577008507, 0.9012804517466722, 0.905095989900124, 0.9089013892173513, 0.9126438139894765, 0.9163125080155907, 0.9199125348259847, 0.9234400282132014, 0.9269010883572136, 0.9303040060587738, 0.9336209137352407, 0.9368662122363794, 0.940058246440453, 0.9431554447617583, 0.9461429296992452, 0.9490978657350858, 0.9519758883079826, 0.9547604271715309, 0.9574848393363022, 0.9601264301585848, 0.962691505480542, 0.965175784330913, 0.9676362759578289, 0.9699502087186682, 0.9721499295254563, 0.9743091797671268, 0.9763854821060552, 0.978363872084386, 0.9802743415124879, 0.9820753725375195, 0.9838174813227771, 0.9854719086777588, 0.9870384240077609, 0.9885167788368795, 0.989895530390369, 0.9911981808096689, 0.9924112294130597, 0.9935887886358619, 0.9946151777820812, 0.9955336401564953, 0.9963876757679784, 0.9971521305481607, 0.9978186361992262, 0.9984038199588442, 0.9988899247977968, 0.9992936972340862, 0.9996054774472903, 0.9998027729603366, 0.9999330140916922, 1.0, 0.9999392901514609, 0.9997868563486543, 0.9995505229696445, 0.9992131772982706, 0.9987697880692064, 0.9982507883130312, 0.997639082598982, 0.9969602825674592, 0.9961601244661922, 0.9952321936156503, 0.9942545242015812, 0.9931836403007436, 0.9919767252269097, 0.9907257964849516, 0.9894632366253451, 0.9880131175779646, 0.9864743095038764, 0.984778093031331, 0.9830705356894842, 0.9812736971388903, 0.9793814764791241, 0.9773983280915975, 0.9753696139648433, 0.9732008718869788, 0.9709040956322214, 0.9685678678793641, 0.9661434058088076, 0.9636122490599218, 0.9610158633061611, 0.9583195198839735, 0.955551265542487, 0.9526968556270112, 0.9497732240299016, 0.9467473527504727, 0.9436630216210621, 0.9404700824430856, 0.9371976757735097, 0.9337985142317178, 0.9303751557179095, 0.926921153724221, 0.9233323457763387, 0.9196683965584829, 0.9158948723429433, 0.9120872414883812, 0.9081887682241435, 0.90423452814046, 0.9002067481691752, 0.8961657732067969, 0.8919871765806606, 0.8876797851206116, 0.8833768110810986, 0.8790054030885059, 0.8746116494232351, 0.8701018070105689, 0.8654662205323131, 0.8608417261664454, 0.8561537946826273, 0.8514742782438152, 0.8466552848856606, 0.8417718639894048, 0.836845335980268, 0.8318653652886685, 0.8268075220057127, 0.8217273115692932, 0.8165637683377703, 0.8113862576663786, 0.8061584473975199, 0.8009219744927634, 0.7955936113724836, 0.7901775158499499, 0.7847701063151336, 0.7793422014282922, 0.7738479779600899, 0.7683155814975359, 0.7627177645808453, 0.7571171686768714, 0.7515004737162423, 0.7458286711623918, 0.7401261509477832, 0.7343752962576964, 0.7286184141622449, 0.7228391827951259, 0.7170291208152559, 0.7111955851327485, 0.7053402125221998, 0.699464631061208, 0.6936119887591042, 0.6876955941755947, 0.6817661644519908, 0.6757770530150586, 0.6698314574320775, 0.6638724564011744, 0.6579052008710565, 0.6519295353263559, 0.6459392001429017, 0.6399528837090043, 0.633974010637133, 0.6279805414949802, 0.6219874089401425, 0.6159706564833026, 0.6099862150819658, 0.604026207313999, 0.5980482560322822, 0.5920786564474556, 0.5861269363950318, 0.580177646594171, 0.5742497403921978, 0.5683276858199297, 0.5624223752821695, 0.5565607460498979, 0.5506898429430324, 0.5447965545013426, 0.5389771645816163, 0.5331799977011131, 0.5273970619445415, 0.5216502996201745, 0.515937901754278, 0.5102444756879289, 0.5045810200765168, 0.4989058676701975, 0.4933121538670416, 0.4877822353987557, 0.4822499183841458, 0.4767546462806025, 0.471249852038201, 0.46583875003899083, 0.46049312704515044, 0.4551569030757377, 0.4498637735528319, 0.44460705270087253, 0.4394049867746885, 0.43421422311909347, 0.42911074259080634, 0.4240542122694962, 0.4190492910336226, 0.4140905785815513, 0.4092326913001145, 0.40437157881880686, 0.39956697536602365, 0.39478926549345394, 0.39010371190678234, 0.3854304353319343, 0.380865503415325, 0.3763569628028743, 0.37196676451014926, 0.3675670248945102, 0.3632274285491951, 0.3589553165648277, 0.35474745597817847, 0.3505309396287902, 0.3464625538242769, 0.34251185733929923, 0.3385610950995864, 0.33467740440081584, 0.3308149639446224, 0.32707274481515275, 0.32340441262163927, 0.3197937900629841, 0.31625105660862773, 0.3127368882410198, 0.309336746798498, 0.3060071084875433, 0.30274195444249147, 0.2995457496866133, 0.29647178338224434, 0.2934084848172369, 0.29039147376585567, 0.28747844384704346, 0.2846372342203822, 0.2818408507892926, 0.27914715311133365, 0.27659599159577725, 0.2740347988611665, 0.2715487791613635, 0.26907361777621863, 0.266744760651861, 0.26450862177130513, 0.26231778013380685, 0.260198749633474, 0.25811463109459565, 0.25614334818068457, 0.25423963955200973, 0.25240694619524917, 0.25064335881350513, 0.24896637782358028, 0.24733851510144145, 0.24573883602802127, 0.24425526828319416, 0.24283829302403973, 0.24149419130211844, 0.24020919798373544, 0.23903534355075207, 0.23787716956012017, 0.23678715042344176, 0.23571655008624817, 0.23476643876602674, 0.2338761347342938, 0.23305198813881442, 0.2322897253932123, 0.23161757599887098, 0.23097383518163586, 0.23037112067140278, 0.22985269361443803, 0.2293930957929317, 0.22902192473948393, 0.22867386676813026, 0.2283504534161116, 0.22812192055585487, 0.227947517765404, 0.22784080442633994, 0.227770363648443, 0.2277810628434413, 0.227810740489555, 0.227892354312463, 0.2280230221609676, 0.22820487119008537, 0.22837406258034043, 0.22865842579946036, 0.22898496124488446, 0.22938008925879622, 0.22978528276541427, 0.2302445881039605, 0.23072972757568067, 0.2312546881657736, 0.23178947844589962, 0.23239398946954165, 0.23302179670645295, 0.2336956575533779, 0.23440130194576086, 0.23514093701659464, 0.23590674548004084, 0.23673179361604577, 0.23755043607142956, 0.23839742138902986, 0.23920266532789158, 0.24011081810395987, 0.2410600415989989, 0.2420053605583266, 0.2429704469196411, 0.24396378096695398, 0.24496385429418052, 0.24600799815709504, 0.2470372225075817, 0.24808237678187453, 0.24911003192186593, 0.2501866524627898, 0.2512873955379207, 0.25238052866161287, 0.2534818729692303, 0.25453422193129616, 0.2556551498729141, 0.25680440930065307, 0.2579234258817367, 0.2590434246711017, 0.2601632606184015, 0.2612817789240956, 0.26243774784264673, 0.26354509145088795, 0.264649860288879, 0.2657313970222592, 0.2668290083228744, 0.2678691042400054, 0.26895575194801685, 0.27002919429527383, 0.27112058479632406, 0.27216117221154923, 0.2731623249472146, 0.27417725237618723, 0.27517461380871816, 0.27617586900290314, 0.2771325564216392, 0.2780510322665401, 0.27897094776782827, 0.2798509828830299, 0.28072758676169335, 0.28157907324138337, 0.28242544149426885, 0.28322176239034613, 0.2840141666524272, 0.2847541489106716, 0.2854672150190798, 0.2861315039809397, 0.286790113972704, 0.2873999078547266, 0.2879974386328698, 0.28856114006836087, 0.2891223264357391, 0.2896124421414208, 0.29003988906111267, 0.2904649269703975, 0.29085272275414525, 0.29121548909850953, 0.2915254990105835, 0.29175419268956876, 0.2919926358585658, 0.29218922102288275, 0.29235329417083433, 0.29246422303048425, 0.2925618235513311, 0.29258460896055316, 0.2925662299881034, 0.29250451774347036, 0.29240233468958327, 0.2922349340706254, 0.29204941683299684, 0.29181892526829334, 0.2915704101279163, 0.2912459416177014, 0.29086467190186593, 0.29045338738889626, 0.28999663499666406, 0.289467062440592, 0.28892223437439063, 0.2883330882169296, 0.28769292799068424, 0.28700562689141434, 0.28627125624616706, 0.28548989428002886, 0.2847175303709151, 0.28383538933079383, 0.2829096887776495, 0.2818666309778249, 0.2808621928869962, 0.27984923008339785, 0.2787432955630488, 0.2775920560705834, 0.27637486216293944, 0.27513601231529583, 0.27385911450880435, 0.2725275597792563, 0.2711511731814279, 0.26973666992803763, 0.2682708095051452, 0.26676949691324087, 0.26521608175975564, 0.2636203649769625, 0.2619698866119531, 0.26029216766175733, 0.2585708816255814, 0.25680993836266425, 0.2550079783527861, 0.25316715680185714, 0.25128464969145065, 0.2493437661309538, 0.2473858510595764, 0.24538884365987249, 0.24339025461672434, 0.24131273927161223, 0.23917176047277483, 0.23702892794380148, 0.23485075649845186, 0.23261566492234412, 0.23037198660784156, 0.22808288737778393, 0.22577311660328064, 0.22343041134163988, 0.22108615348267452, 0.21867682463410468, 0.21626805518288147, 0.21379944407290952, 0.21130574001321856, 0.20878588142777868, 0.2062438446960683, 0.2036847508651369, 0.20109568612643935, 0.19848491055961093, 0.19590262192666516, 0.19324425187220776, 0.19055792342637395, 0.1878677932055867, 0.18516109767154929, 0.18252470298405266, 0.17977587357354347, 0.17698537477149656, 0.17422119704598155, 0.1714457510846043, 0.16873785471470207, 0.16593170872306265, 0.1630870062607331, 0.16027517971507993, 0.15745679902037446, 0.15465963360216567, 0.151826629131011, 0.14903056845853738, 0.14618711934420267, 0.14334415113220703, 0.1405611531533869, 0.13771294850587065, 0.13486839909022508, 0.13203107494266605, 0.12919938555310764, 0.1264456270342567, 0.12361748072962865, 0.12081012806136315, 0.11800328955015729, 0.11520853268022409, 0.11248363500393377, 0.10970672091181669, 0.10693669887326165, 0.1041940687773199, 0.10146775390996259, 0.0987933441685812, 0.09609666472063828, 0.09342628458774344, 0.09076903272228491, 0.08813297360548135, 0.08560010519791345, 0.08299783041741578, 0.08049343914772703, 0.07793757747460679, 0.07541356770333942, 0.07290200694668017, 0.07044358383688894, 0.06809557422443474, 0.06568852529629979, 0.06331733719897249, 0.060965938074253455, 0.05866834114776793, 0.056415422011052596, 0.05418722492043095, 0.05199558760323911, 0.049853785822061986, 0.04773521528685787, 0.04565720777363868, 0.04361693609243223, 0.041616909715569625, 0.03974881989968645, 0.037819760089707666, 0.03595088423487328, 0.03411502670196231, 0.03232741007154352, 0.030600914375163924, 0.028908563832490377, 0.027221021964758507, 0.025633627514532305, 0.024093805018084623, 0.022656589468088687, 0.021207239733045197, 0.01982189181260144, 0.018477068628188913, 0.017186337535956175, 0.015949994630526355, 0.014768379984921857, 0.013640272762947285, 0.01256947509828277, 0.011554527160791623, 0.010672554633236811, 0.009761003037254802, 0.008850318913225942, 0.008069429793047887, 0.007346503618995805, 0.006705994660739666, 0.006097449815340542, 0.005554478703762456, 0.005067177166417582, 0.00464150988959979, 0.004314481913125632, 0.004008256754125206, 0.00374420279504519, 0.0035698647834075995, 0.0034588327875942223, 0.003438503783860862, 0.0034513876810743083, 0.0034851211043876048, 0.0036348313182985635, 0.0038476841316931304, 0.004119317819539205, 0.004460320996265506, 0.004903730106420092, 0.005368411679394783, 0.005900043074560517, 0.006519394420551036, 0.007182327014521785, 0.00790862269973044, 0.00870832558826422, 0.009569256828861073, 0.010504934216301335, 0.011507744022496472, 0.01258087984915456, 0.013717545691454579, 0.014905539681731118, 0.01617878689221073, 0.01751835711914789, 0.018892387097767686, 0.02036886259115048, 0.021929210557808988, 0.023532946011674, 0.02520295280348152, 0.026960009418058005, 0.028759950806907485, 0.03057298795671005, 0.03251436729532909, 0.03451963652371024, 0.036627327596126434, 0.03875606736503381, 0.04088578603794074, 0.043155460332337206, 0.04548736635075112, 0.04794083467856482, 0.05039035901130617, 0.052873971435288214, 0.05545915247554597, 0.05810768089781412, 0.060819368625796705, 0.06359399537665694, 0.06640735276771821, 0.06931010814861635, 0.07227362543554883, 0.07526901890707534, 0.07835724049002571, 0.08151524671929117, 0.08471922897850952, 0.08798230979305349, 0.09130583820164671, 0.0946861267844331, 0.0981439006703819, 0.10163802476256695, 0.10519075494222646, 0.10880309646272722, 0.11247105431365823, 0.11612084330044191, 0.11991146826827767, 0.12375352678263857, 0.12765177996778876, 0.13159592853027477, 0.135615414405775, 0.13965900530599956, 0.14375469158789236, 0.14789869508214015, 0.1520972037288163, 0.15630908015396724, 0.16061182498447893, 0.16496136095843986, 0.16941003887540848, 0.17384536916827686, 0.17831964199971226, 0.18285231238578856, 0.18743113836250114, 0.19198342582430264, 0.19666119307124985, 0.20143452969860984, 0.2061843245593713, 0.21097637620263268, 0.21578909808753413, 0.22066581777410316, 0.2255827507200903, 0.230535837937558, 0.2355262829089178, 0.24050385327806417, 0.245573100195137, 0.25066833009028916, 0.25580275973148187, 0.26096840253205567, 0.26615523837678495, 0.27138315085550496, 0.27664664928776794, 0.28193163148387, 0.28724508405242577, 0.29259432652924566, 0.297961675155169, 0.3033334793403262, 0.3087564620601266, 0.31420333672683937, 0.3197165490579563, 0.3252036826560962, 0.3306782529088272, 0.336217255087868, 0.3417761436024536, 0.34733655755083503, 0.35293504387810876, 0.3585372159069211, 0.3641695364411377, 0.36981615430747217, 0.37548438820906005, 0.38115655016610145, 0.38679981578558875, 0.3925016543729431, 0.39821210124106987, 0.4039050612009286, 0.4096342792960809, 0.4154120116400059, 0.4211460683954889, 0.426886893093538, 0.4326606789023809, 0.4384087188600921, 0.44411103532566465, 0.4498751110443027, 0.4556393256511183, 0.461391751046701, 0.4671553822559632, 0.4729369536543517, 0.4786915696610763, 0.48444300879443475, 0.4902014797091934, 0.4959422311582999, 0.5016184074599814, 0.5073546009106933, 0.5130798619066455, 0.5187968043593751, 0.5244980044794708, 0.5301721887588757, 0.5358491823866515, 0.5415112115849531, 0.5471368248001592, 0.5527694473301308, 0.5583741790080771, 0.5639707713558494, 0.5695472170196293, 0.5751236397693352, 0.58065519999813, 0.5861609322088102, 0.5916500941071325, 0.5971160769123289, 0.6025084542981693, 0.6079315888891391, 0.6133275907469093, 0.6186925190971159, 0.6240276628474213, 0.6293674988780626, 0.6346366039297345, 0.6398310701110038, 0.6450449421160211, 0.6502242877975216, 0.6553891926114287, 0.6604947895666381, 0.6655553042510496, 0.6705901755127213, 0.6755871288549061, 0.6804957851110452, 0.6854205566770403, 0.6902972170729168, 0.6951354657322236, 0.6999290935062853, 0.7046647716787287, 0.7093690743469696, 0.7140230598505589, 0.7186329519377983, 0.7231943612933847, 0.7277034703212338, 0.73216641339236, 0.7365531689483635, 0.740917390133451, 0.7452281426405962, 0.7494753141554252, 0.7536787111212053, 0.7578487531058423, 0.7619373279232398, 0.7659702794815845, 0.7699244370658539, 0.7738465363062572, 0.7777444577697189, 0.7815428468735155, 0.785282602819009, 0.7889308287204372, 0.7925545216499877, 0.796102219857601, 0.7996004645354017, 0.8030335050496034, 0.806450309623238, 0.8097450278057824, 0.8129245241009131, 0.8160964956501493, 0.8191995554748487, 0.8222252215769976, 0.825189965601, 0.8281029887545517, 0.830923069187065, 0.8336723932966156, 0.8363726783303727, 0.8389757430025612, 0.8414610914191937, 0.8439264313273654, 0.8463162364094123, 0.8485998145268862, 0.8508413374738047, 0.8530269089499499, 0.8551088454473506, 0.857113419880665, 0.8590210852459751, 0.8608722140217903, 0.862682088701518, 0.8643689666319138, 0.8659124472394912, 0.8674512146842573, 0.8689072902424064, 0.8703110370865559, 0.8715979025064744, 0.8727845531165385, 0.8739114204450923, 0.8749555221583929, 0.8759534409231882, 0.8768268990531584, 0.8776383391435777, 0.8783465413019523, 0.8789737447845491, 0.8795018359404164, 0.8799676843694886, 0.8803229212234337, 0.8806250344606451, 0.88084169224821, 0.8810240285809595, 0.8810633828339646, 0.8809515413474406, 0.8808341656159798, 0.8806297114463203, 0.880357624172389, 0.8799774074586093, 0.8795231524557313, 0.8789711643273057, 0.8783347553518953, 0.8776267161879052, 0.8768199132070853, 0.8759231293939914, 0.8749499329793456, 0.873892788127345, 0.872753397917948, 0.8715284993673852, 0.8701945861768018, 0.8688061738991678, 0.8673332428170889, 0.8658001841636642, 0.8641564861992062, 0.862378209206696, 0.8605776811823469, 0.8586928494280989, 0.8567979156176524, 0.8547373526137656, 0.8525667866193591, 0.8503542244462313, 0.8480620308100998, 0.845684271573533, 0.8432350088963209, 0.8407231582965828, 0.8381153278851105, 0.8354309927397046, 0.8326370860125062, 0.8298054380347465, 0.8268825466959628, 0.8238998159917129, 0.8208410785876333, 0.8177120708549097, 0.8145035335719781, 0.8112492040546457, 0.8078922155084722, 0.8044655480339998, 0.8009570775168113, 0.7973946585702659, 0.7937894490676306, 0.7900879510506904, 0.7863212438823861, 0.7824676350033601, 0.7785753828184534, 0.77458525065832, 0.7705695261917357, 0.7664895207779698, 0.7623369091352741, 0.7581333065589138