0.07457154400447351, 0.07433635438353171, 0.0740677284218037, 0.073864022288315, 0.07372965063711254, 0.07353183261939898, 0.07334283178995103, 0.0731406899078012, 0.07296816382744538, 0.07277039552125253, 0.07260943429344946, 0.07244987575789753, 0.07226793285991671, 0.07211362526211842, 0.0720031990979559, 0.07184275372867299, 0.07168475426228965, 0.07152607184644547, 0.07137284950909763, 0.0712510056288113, 0.07109782569944098, 0.07094819423431924, 0.0707429473804986, 0.0706073417915707, 0.07045680351484909, 0.07032310047940153, 0.07018919256550106, 0.07008210527427189, 0.06994586103193802, 0.06982110300640677, 0.06968919191111421, 0.06956075459251868, 0.0693857568683425, 0.06927088132674153, 0.06909797893622902, 0.06899294890246321, 0.06888650733359813, 0.06888273410271571, 0.06876296524077385, 0.06860865093599786, 0.06850734949183653, 0.06841005500584786, 0.0683523179505662, 0.06825905134107708, 0.06811915996776688, 0.06804534048657722, 0.06797469282347308, 0.06795470427140242, 0.06788533467127007, 0.06781377571648933, 0.06775867987382213, 0.06770945333528018, 0.06766015865959167, 0.06762330654048955, 0.06753883118632216, 0.06751962868268396, 0.06750297779438663, 0.06751883474669391, 0.0675049217177862, 0.06746994596626371, 0.06747043491522194, 0.06747509915642261, 0.06749013530890415, 0.06750327202166152, 0.06753351772294462, 0.06755596164859531, 0.06758470395542253, 0.06761978897062686, 0.06766126083164903, 0.06767378152041818, 0.06773263440138606, 0.06779602348056143, 0.06789376536879217, 0.06796345878217941, 0.06803729050326082, 0.06812153367275373, 0.06821271023055434, 0.06830790942707107, 0.06841344112476036, 0.06849342687014683, 0.06861690331922199, 0.06874558278625734, 0.06888863821270927, 0.06902755458004992, 0.06916421184922565, 0.06931758715998286, 0.06947737264732785, 0.06964377863394858, 0.06981699472077416, 0.07002667733509246, 0.07021028242241625, 0.07040281812235429, 0.0706071229914889, 0.07081683506164604, 0.0710117770577492, 0.07124202314304737, 0.07147961025626212, 0.07172172550463862, 0.07197476395288391, 0.0722530456420376, 0.07251908201033136, 0.07279391369031608, 0.07308930243620523, 0.0733801449770553, 0.07362140164006609, 0.07393836520652458, 0.07426121206033923, 0.0745844469860938, 0.07492096611464688, 0.07529359615244166, 0.07563996319846913, 0.07599522014016104, 0.0763652755085186, 0.07673759755827926, 0.07711916469917159, 0.07750993132424092, 0.0779098548950281, 0.0782451820444153, 0.07867262132229276, 0.07917573045512075, 0.07960458950300668, 0.08004336629696096, 0.08048601355240664, 0.08094493187542336, 0.08145429801262764, 0.0819262612206844, 0.08235944149085085, 0.08286002627679967, 0.08336838198637848, 0.08385215798974381, 0.0843803900866378, 0.08496195228922822, 0.08549682616802101, 0.08604105528054141, 0.08657088584007598, 0.08713632112083376, 0.0877329078959255, 0.0883105374884509, 0.08889713786806831, 0.0894453608633546, 0.0900553618716674, 0.09070657973310989, 0.09132400761370217, 0.09194967783677023, 0.09259230486250628, 0.09323294933577769, 0.09383771495422147, 0.09450045048476173, 0.09516866347493808, 0.09588970360770906, 0.0965633890067046, 0.0972249712249995, 0.09791803171917628, 0.0986178742950466, 0.09926837122074128, 0.09998853879988537, 0.10069137115988896, 0.10142108561951257, 0.10215354163200227, 0.10295988166649529, 0.10368993595672234, 0.10440404311786598, 0.10515197917716415, 0.10590548546443125, 0.1066820957580821, 0.10744402557088709, 0.10821202355376662, 0.108985769119651, 0.10976495386205155, 0.11051094945426249, 0.1113049766604383, 0.1121780901935746, 0.11296731120461635, 0.11376330388163283, 0.11451235770047083, 0.1153267446071666, 0.11613136827247396, 0.11695123665492257, 0.11777231521747795, 0.11860933961448318, 0.11943092837395153, 0.12028394592677245, 0.12110549940561226, 0.12193025868915221, 0.12278137309270751, 0.12360827077507867, 0.1244030743970882, 0.1252404643118102, 0.12607808290693287, 0.12690394243200329, 0.12774292727937483, 0.12858973901524492, 0.12942546417524634, 0.13026044555815092, 0.13108563604593382, 0.1319196406937217, 0.13275474002696386, 0.13358452473003665, 0.13441233042425943, 0.1352556626265361, 0.13607670950524792, 0.13686965609623622, 0.13769058398528422, 0.138507776683956, 0.13935650554177179, 0.14016140437347796, 0.14091994397522903, 0.1417257311306557, 0.14252604501110483, 0.1433473796793535, 0.14413323789887747, 0.14492080644687563, 0.14569721978455272, 0.1464691334117603, 0.1472037549171963, 0.14796970649421204, 0.1488049598491494, 0.1495464342122852, 0.1502846997823451, 0.15092762836566237, 0.15166892006228652, 0.15242345832773094, 0.15314125248257518, 0.15385031673728244, 0.15452105189156543, 0.15521602651033922, 0.15591497037975527, 0.15658661333451238, 0.1572484275980155, 0.15790914162442268, 0.1585498104533311, 0.15917484603804924, 0.15979655149020197, 0.1604077130709281, 0.16107005469510038, 0.16165170630887774, 0.16219029958320585, 0.16276036116956252, 0.16331939522081196, 0.16388477589889458, 0.16441857972847002, 0.16490900137129907, 0.1654245858972164, 0.16592658280727915, 0.16639129446747533, 0.16686876134790565, 0.16735749929108326, 0.16780113576869127, 0.16823107905113807, 0.168629425458534, 0.16903358497243623, 0.16938409985063235, 0.16976241796643382, 0.17012313603455437, 0.1705519825547492, 0.17086730372536768, 0.1710848387199617, 0.17138581686485677, 0.17166857466232166, 0.1720600873330232, 0.17229089693744223, 0.17243438398715735, 0.17265262265925915, 0.17285411099312556, 0.17304460634672453, 0.17321143378557913, 0.1733584878245625, 0.17349186506570197, 0.17360791610573953, 0.17372125493503632, 0.17380041040575367, 0.17383911325427917, 0.17388729544872153, 0.17391685664024192, 0.1739484399514607, 0.1739381544631273, 0.1738838650067962, 0.17384182509814605, 0.17378049616845728, 0.17368520839364018, 0.1735873731303509, 0.1734931973254658, 0.17335268549556862, 0.17319387450440374, 0.17295477936769563, 0.17276700878436815, 0.172663435586288, 0.17241879835933158, 0.17215902211942094, 0.171874759768107, 0.17158438273199508, 0.1712888446278506, 0.17096281031042956, 0.17062001142336292, 0.17018351238082216, 0.16981610128190117, 0.16947411027396223, 0.16905768811172217, 0.16862304848592233, 0.16816135373727234, 0.16769143497204908, 0.16719991743751708, 0.16669318827622479, 0.16616788038805078, 0.1656211913135424, 0.16505953692291017, 0.16455623882421286, 0.16394845192685728, 0.1633270037779068, 0.1626472202007692, 0.1620027796575259, 0.1613204402920357, 0.16064420999148368, 0.15994981313528683, 0.15924640549782962, 0.15851547833062807, 0.15772650522209922, 0.15696747854806797, 0.15618979954595014, 0.15541171027784279, 0.15459610375995222, 0.1538204007943307, 0.1529657789604718, 0.15209878352026068, 0.1511455387857927, 0.15026267826806944, 0.14938360299010775, 0.14846498890640691, 0.14754061820480022, 0.14659201201662583, 0.14562995339896714, 0.14470481216914274, 0.14371024866414672, 0.1426320770045205, 0.1416268961691814, 0.1406074415950542, 0.13957131167794068, 0.1385252939443246, 0.1374634445000333, 0.13639252497661783, 0.13530951658131113, 0.13422373556743358, 0.13311682143779358, 0.13202030450140026, 0.13089063811101176, 0.12975256675707855, 0.12857087431452305, 0.1274209822841316, 0.12628778439430213, 0.12511534946109648, 0.12393553471100281, 0.1228134513584939, 0.12161141555199993, 0.12035037760478501, 0.11914921488050663, 0.11794150057928388, 0.11671577945772939, 0.11549747364142186, 0.11426708482403058, 0.11303759654053382, 0.11180246983714155, 0.11060640656170796, 0.10935581931029141, 0.10810935612138373, 0.1068545599041373, 0.10559852149061638, 0.10430006238655423, 0.103047095572858, 0.10180276497059879, 0.10054251525026979, 0.09928080090784207, 0.09799443048896193, 0.096733957014927, 0.09552495091211184, 0.09425513282313881, 0.09298781756083017, 0.0916788788274977, 0.09042249735970109, 0.08919011963538401, 0.08793212733224763, 0.08667693346283163, 0.08542484656906617, 0.08417617994880074, 0.08293714791232995, 0.08169553116845259, 0.08045862630078043, 0.0792208136545853, 0.07799491749394719, 0.07675361491692217, 0.0755411376755187, 0.07433341866165392, 0.07311621922480753, 0.07192136931580857, 0.0707407393614237, 0.06955607701497722, 0.06837836659994648, 0.06726405252579598, 0.06609441058192435, 0.06492428197765773, 0.06377866576284744, 0.06264357533709856, 0.06151910291719495, 0.060405361744293916, 0.059264152549088615, 0.058177131255880275, 0.057099130640952865, 0.056101396753017674, 0.05503390592936153, 0.053856930363331106, 0.05283363828755461, 0.05181746478845523, 0.05093021864916639, 0.049915668398505475, 0.04887919752808266, 0.04790202662069558, 0.04693859519837783, 0.045986080847404825, 0.045050885853933256, 0.04412081524085372, 0.04321484357818712, 0.042322675185446586, 0.041482876008029655, 0.04061416256567303, 0.03969426200590683, 0.03886727817315609, 0.03805293966032786, 0.03726648439791754, 0.0364770123328016, 0.03571415862496782, 0.03495309329930902, 0.03420799193959703, 0.03347307123757274, 0.03276097794430439, 0.03211791242146715, 0.03143115837767463, 0.030763607619070273, 0.03008251727679186, 0.0294565887311299, 0.028785317664737395, 0.028200434345303046, 0.027628774776861896, 0.0271003766081481, 0.026553026868041125, 0.025995481606493575, 0.02548430147281535, 0.024988215196234297, 0.02455765098638351, 0.02408627908672757, 0.023630643626609552, 0.023196790839852457, 0.02278102596167897, 0.022315362167080122, 0.0219438446913849, 0.021627401959545912, 0.021278652777254655, 0.020946746992772013, 0.02066406424473558, 0.020361571203139875, 0.020130621934301134, 0.019858014732454316, 0.01960619231287976, 0.01930956188877031, 0.019105407308594023, 0.01885745890312258, 0.018691103409017956, 0.018536579871051125, 0.01844739765942193, 0.018311063170316142, 0.018205380309682766, 0.018098812112554194, 0.01800860364171208, 0.017851886663808197, 0.017803920601002353, 0.017796273707627364, 0.017766633616111326, 0.017750180089336872, 0.017788199334644116, 0.017792887749290363, 0.017795314792637296, 0.01783268647901533, 0.01788368560209014, 0.01795986725040309, 0.018035908719125134, 0.01815499544460544, 0.018254083145336917, 0.01836770270675513, 0.01845400773383212, 0.018600245155021927, 0.01876889441409739, 0.018934737039886802, 0.01911156551521588, 0.01927257878626783, 0.01947393946823932, 0.019719380332324038, 0.019933605772681984, 0.020158371690516656, 0.020354950675342404, 0.020604465804707147, 0.02084057339862321, 0.021107103802777746, 0.021379559754848624, 0.021672732132912455, 0.02195527365454999, 0.022259321348660984, 0.022553329961597743, 0.02285451837113303, 0.02313305021575175, 0.023451272248809656, 0.02386536837817886, 0.02418085708356413, 0.024505684890663685, 0.02475933594729938, 0.025110258946465184, 0.025534298352296637, 0.02588089655836456, 0.026233627473795276, 0.02660063237117132, 0.026962444639578573, 0.027349550410508332, 0.02771741444252043, 0.02808984240125203, 0.028445466489351003, 0.02882750421409799, 0.029222721344323493, 0.02960562944769202, 0.02998978741114198, 0.030404215808831014, 0.03078577942706654, 0.031163038131787793, 0.03154790612825511, 0.031980010527377936, 0.03235854987504509, 0.03273886411361774, 0.03314669278025842, 0.03352488469790579, 0.033915960454205585, 0.03429403313566323, 0.03467232355116409, 0.03505892884719325, 0.03543436803503455, 0.035917595218088995, 0.036276014479437645, 0.03663809201189378, 0.03702900006795621, 0.037391106266418665, 0.037781270115919946, 0.03814192119246313, 0.03850344256633992, 0.038838214371575246, 0.03920172367890814, 0.03962664161606744, 0.039974542114590894, 0.04032172044993699, 0.04069679176775884, 0.041036310023766044, 0.041386299757685596, 0.04172090440553916, 0.04205341026753307, 0.0424480328439239, 0.04276628670883986, 0.043096220057228615, 0.04341185829545374, 0.04372639093312171, 0.04406857339577877, 0.04437509812913239, 0.04468328071150215, 0.04498620893358205, 0.045286841510579705, 0.045596522332811494, 0.04588981470695293, 0.046218722043099854, 0.046501439415969834, 0.04678307490021278, 0.047110343791432266, 0.047382564689767405, 0.04764640445629106, 0.04792009411096585, 0.04819270998667764, 0.048531779174784115, 0.04879288851456706, 0.04906494790547416, 0.049328535678931286, 0.04959362574158391, 0.04990105218650761, 0.05016270057029728, 0.05043009589498813, 0.05069648430145408, 0.05096498685818533, 0.05124711381447948, 0.05151759882660753, 0.0518404137680127, 0.05210885253698782, 0.052382152692257954, 0.052624561745172, 0.0529110609060313, 0.053261571174923104, 0.05354464317680006, 0.05383376264924424, 0.05416116777944922, 0.054457790606539394, 0.05475312701834785, 0.0550657890241606, 0.05538521898417096, 0.055699686217975414, 0.056034404542204506, 0.05634024141977673, 0.05669278260188275, 0.05705057069696953, 0.057499814365347166, 0.05785938178705819, 0.058198644053038255, 0.058586562657945616, 0.05898485367342072, 0.05944404383633506, 0.05985797737072937, 0.060239212310394294, 0.06068814585815721, 0.06114913880062237, 0.06164047440070762, 0.06212513482931903, 0.06260106184351164, 0.06311888769994423, 0.06365121398873785, 0.06428720260843246, 0.06483945789844453, 0.06537789699860794, 0.06597773738726939, 0.06659719963357895, 0.06724260243963633, 0.06790185969366709, 0.06854409607456427, 0.06925127946266935, 0.06997856871302512, 0.07076511488601661, 0.0715302133240437, 0.07230523814553856, 0.07312200435387013, 0.07396356820893481, 0.07486299426381623, 0.07575194929453441, 0.07666353026226552, 0.07761065819558377, 0.07858677522434723, 0.07959532364672876, 0.08063054854786543, 0.08170826435615262, 0.08280391747563652, 0.08393199783444115, 0.08503989405149412, 0.08624094974985687, 0.08753482808834162, 0.0887908128481461, 0.09008304048528301, 0.09137650933332651, 0.09274686774811236, 0.09417629762000344, 0.09561538183226173, 0.09709274036995878, 0.0985617166785528, 0.10012315659006572, 0.10172770208788527, 0.10336373078746548, 0.10503908924146281, 0.1067634072544169, 0.10851862684366123, 0.11031592953703409, 0.11215593664954937, 0.11403925133344261, 0.11597235633147968, 0.11794328072278076, 0.11993301378144355, 0.1219984733894346, 0.12410875752192392, 0.12628813703950859, 0.12848709893459812, 0.1307105610562545, 0.13300907209155538, 0.13535512038107872, 0.13774042526973274, 0.14018432969370667, 0.14264739125643336, 0.145192854630685, 0.1477863616909879, 0.15048464777447654, 0.15316923744179883, 0.1558774903914231, 0.1586721982740277, 0.16151859323956794, 0.16439637812723804, 0.1673497585570291, 0.17033692716814175, 0.173395936492304, 0.17650625508276344, 0.17970965294906874, 0.18291878634876693, 0.18610619101589096, 0.1894348851837812, 0.19281420887422712, 0.19633027747426196, 0.19980179006028567, 0.20332146788163857, 0.20690781252092547, 0.21055007623033417, 0.21420088356110265, 0.21796035870811453, 0.22180495592478514, 0.2256658964529309, 0.22958167742350086, 0.2334843192167782, 0.23751785537435366, 0.2416136988944658, 0.24574711917766007, 0.24993233221244152, 0.2541635406063435, 0.2584533266469622, 0.26277111760767025, 0.26716705900907506, 0.27161319014543595, 0.2761243277577725, 0.28066912690831936, 0.2852914984296546, 0.28993477534102546, 0.29463006024545024, 0.29937682311615044, 0.30417452466324996, 0.30894300527694907, 0.3138509915311642, 0.31880376822484374, 0.32388689966474254, 0.3289185250280536, 0.33392887828948026, 0.33906755255086707, 0.34424999414440205, 0.34947296399228556, 0.35474237910470674, 0.360072033223402, 0.3654238665813944, 0.37078587284670506, 0.3762263359107423, 0.3817061880438586, 0.387307509503457, 0.39285420787713937, 0.39842858223434263, 0.40406068035764847, 0.40973180364846645, 0.41537007348654087, 0.42112486586758485, 0.4269379435004906, 0.43275236367617675, 0.4385989289716049, 0.44444730196448, 0.4503593000415925, 0.4562991460289214, 0.4622661415208812, 0.4682595336405789, 0.47419006293614085, 0.48024497491457674, 0.48638363861743966, 0.4924678931466884, 0.4985740989397394, 0.504716013509202, 0.5108612631871039, 0.5170026335438114, 0.5231890718477009, 0.5293914563668088, 0.5355261759075124, 0.5417676971067651, 0.5480555960727321, 0.5543078726074863, 0.5605692523245734, 0.5668800031460216, 0.5731512828579277, 0.5793659276646319, 0.5856603886060093, 0.5919564722462356, 0.5983062925379801, 0.6045959700812955, 0.6108016823336361, 0.6171037007329923, 0.6233993604818264, 0.6297290882944582, 0.6360041749018037, 0.6421928237184007, 0.6484629244839332, 0.6547189208894101, 0.6609600269014916, 0.6671853654472732, 0.6734588457544934, 0.6796414996937267, 0.6858089417917183, 0.6918739907622274, 0.6980168131280505, 0.7041316969569611, 0.7102239672032656, 0.7162891202720791, 0.7223378934625198, 0.7283440912432424, 0.734305750030555, 0.7402529105754129, 0.7461668023025739, 0.752037337977842, 0.7578820511639887, 0.7636655876677364, 0.7694368471222526, 0.7751666460957518, 0.7808656544636735, 0.7865076243484094, 0.7920905539824779, 0.79764445924901, 0.8031505572384127, 0.8086252970424631, 0.8140297942075538, 0.8193099722275449, 0.8246211365914558, 0.8298746819222342, 0.8351257956329979, 0.8402544514316089, 0.8453112018127011, 0.8503259438292838, 0.8552798064114189, 0.8601361049737946, 0.8649687782491126, 0.8696993070352712, 0.8744019256917674, 0.8790337614803783, 0.8835793032944875, 0.8880690795297085, 0.8924936359653957, 0.8968333780227569, 0.9010979352542061, 0.9052863671405894, 0.9093977102086952, 0.9133749611186869, 0.9173362531249535, 0.9212143337793693, 0.9250646678301038, 0.9287675136442065, 0.9324356353055708, 0.9359675631857564, 0.9394179583893071, 0.9426880372221524, 0.9459832961885487, 0.949154896507214, 0.9522713142705069, 0.9552936673099498, 0.9582246093256188, 0.9610575209005099, 0.9637836990130267, 0.9664277654148656, 0.9689752869234334, 0.9714258504868806, 0.9737790151176119, 0.9760638036673251, 0.9782170393931892, 0.9802731021810344, 0.9821988275464935, 0.9840624817713752, 0.9858161914251755, 0.9874783842283726, 0.9890382166183492, 0.9905189674856757, 0.9918701658923305, 0.9930604250406508, 0.9942146469168082, 0.995262631411254, 0.9962398033016775, 0.9970709406189973, 0.9978008304567703, 0.9984229013941487, 0.9989403651883605, 0.999385384769107, 0.9996887526030879, 0.9999063085967731, 1.0, 0.9999903804219793, 0.9998180331518491, 0.9996079878234456, 0.999307905683764, 0.9988804179892692, 0.9983467038510508, 0.9976774040510622, 0.9969353731724345, 0.9961360540786698, 0.99517331225505, 0.9941068779397949, 0.9928807845875506, 0.9916142718920613, 0.9902913818171432, 0.9888061952297194, 0.9872186506979764, 0.9854641378420977, 0.9836809016023781, 0.981833867811937, 0.9798361825784714, 0.9777375658090348, 0.9755267810213818, 0.9732294956678901, 0.9708677631298659, 0.9683670882299446, 0.9657700743427847, 0.9630890122168652, 0.9602993745782951, 0.9573626401224403, 0.9543922269225327, 0.9513259922712681, 0.94816798732238, 0.9449130448664587, 0.9416040876615774, 0.9381606932317178, 0.934629285345679, 0.9310047648372227, 0.9273005196100967, 0.9234898320819082, 0.9196175796118059, 0.9156603796679375, 0.9116017673566081, 0.907480601306744, 0.9032654195555662, 0.898982710902656, 0.8946199342403602, 0.8902021776882978, 0.8856807712196008, 0.8810644504238688, 0.8763983900042783, 0.8716594880720753, 0.8668315450270708, 0.8619536706671445, 0.8570418178031894, 0.8520223837932752, 0.8469388322312267, 0.841798386607, 0.8365898605023839, 0.8313510920624146, 0.8260207392726989, 0.820635056722283, 0.8151391998509618, 0.809653529557338, 0.804142566525453, 0.7985453945338014, 0.7928691665356253, 0.7871781038764412, 0.7814388816014256, 0.7756916300008568, 0.7698566287010206, 0.7639279107306381, 0.758019795117984, 0.7520710114087441, 0.746065815247511, 0.7400437452666652, 0.7340211577935583, 0.7279248293922783, 0.7217985794809838, 0.7156352221534974, 0.7094552317932575, 0.7032498174243312, 0.6970207238683909, 0.6907696909279867, 0.6844719169083472, 0.6781855612288357, 0.6719016085615159, 0.6655781051684088, 0.659241363470696, 0.6529343737808666, 0.6465710637829413, 0.6401872071375045, 0.6338155173985744, 0.6274399608261785, 0.6210001688756073, 0.6146293724842985, 0.6082264375510379, 0.6018561430996642, 0.595485645811447, 0.5891761267942057, 0.5828043222163297, 0.5765127962730177, 0.5701525968110286, 0.563808931785433, 0.5573530199768285, 0.5510617576889533, 0.5448889543334714, 0.53861107221954, 0.5323557310563798, 0.5260385877298411, 0.5198426672922102, 0.5136739773909133, 0.5075219182813324, 0.5013953384597825, 0.49527536472195055, 0.4892076014016459, 0.48321058720981075, 0.4771983312617304, 0.47122137257139945, 0.4652397640033159, 0.4593426014065094, 0.45351480572584413, 0.44768902693331414, 0.4419051810991507, 0.4361733603367708, 0.43047598314522306, 0.4247922854458172, 0.41919235486622275, 0.4136389447525364, 0.40810687519491473, 0.4026538861858179, 0.3973058860517993, 0.391945186389153, 0.38663940933437063, 0.381368775203979, 0.3761780303117787, 0.37103182512197247, 0.36595625035662016, 0.3609383406271012, 0.35594376101677966, 0.35104875660822055, 0.3462684749532128, 0.34148500195634035, 0.33676572821525247, 0.33200807791896264, 0.3274321109298279, 0.3230254887923396, 0.3185576485028219, 0.31415890841122485, 0.30972344329883644, 0.30547729941407253, 0.30134246448398927, 0.2972198126590313, 0.293166218695002, 0.28914101092924177, 0.2852325304936794, 0.2814308128815595, 0.27765516024279796, 0.27395163070401224, 0.2703205702432658, 0.26676229252048933, 0.26330656506571065, 0.2598909407276814, 0.2565505092164507, 0.25324099767517994, 0.2500564096255983, 0.2469296535029555, 0.24389238291624155, 0.2409274172949717, 0.23804097727784804, 0.23522078575262026, 0.23245927876291514, 0.2297879089052626, 0.22718929968022547, 0.2246724291565216, 0.22221856384001223, 0.2198529298331445, 0.21754407956931168, 0.21530931033744466, 0.21314243288401083, 0.2110556740436538, 0.20901518966533716, 0.20707710128962276, 0.2052096933818674, 0.203454098130897, 0.2017223378855046, 0.20003054553502608, 0.19844706283272537, 0.19693290536235886, 0.19550539128225425, 0.1941264903059351, 0.19279308774315532, 0.19155471844541877, 0.19038284837379896, 0.18929175456904876, 0.18824958266509512, 0.1872437390575614, 0.18633622617104845, 0.18549146065115082, 0.18472368824623153, 0.1840010149028047, 0.18330490288288095, 0.18270984083216574, 0.18217321266523798, 0.18173283594628664, 0.18130663140704356, 0.1809363549733422, 0.18062729527327903, 0.1803749772294988, 0.18017253195992136, 0.1800315169979523, 0.17992332648096274, 0.179890894169311, 0.17990884106391045, 0.1799851921050454, 0.18010028192167718, 0.18026073424549857, 0.18047182976290882, 0.18072907371933233, 0.18104325858461867, 0.18138828413497804, 0.18182423589505167, 0.18224964692540743, 0.1827191543929746, 0.1831250772036879, 0.1836916407379408, 0.18429776622124366, 0.1849303516861244, 0.1855957340632971, 0.1863226470669688, 0.18704758522375026, 0.1877780232813159, 0.18856925159718063, 0.1893887394705029, 0.1902650266612148, 0.19113443435428812, 0.1919895403313516, 0.192916847558425, 0.1938662707334858, 0.19490469353174614, 0.19588694111060698, 0.19689221137635438, 0.197918933461829, 0.19896558077722834, 0.19999233677044095, 0.20107926200110263, 0.20220910062835162, 0.20331808214559297, 0.20443999510984753, 0.2055174946417145, 0.2066684101237335, 0.20779278314976676, 0.20895877908033217, 0.2101272042588896, 0.21133283197114344, 0.21249975540126623, 0.21368088979707384, 0.21485010487331033, 0.21602029255182584, 0.2171755575484446, 0.21834610771666793, 0.21948979089213347, 0.2206557668239728, 0.22181513969791736, 0.223002480043261, 0.22414171574559544, 0.22529447682522927, 0.22641572427603013, 0.2274697697202373, 0.2285807432504445, 0.22967768547173217, 0.23078642587167797, 0.23184980926239987, 0.23290732096289654, 0.23393918476025907, 0.23495491246750347, 0.2359387600308192, 0.2369211028679964, 0.23785407448218707, 0.23879957117484107, 0.23972193339204378, 0.24058523615706678, 0.24146415854334446, 0.24234872019176223, 0.24316965479977007, 0.24396497777493067, 0.2447989212688086, 0.2455329155811504, 0.24621060940883727, 0.2468998298213698, 0.24756115408242432, 0.24813782188918407, 0.24874825468125952, 0.24939039593198892, 0.24992611461236625, 0.2504319008094752, 0.25088635248036817, 0.251332644293198, 0.25176339094422484, 0.25214051381745484, 0.2524844953765294, 0.252800673264867, 0.25307598732756187, 0.2532668030452429, 0.2534792134235747, 0.25365348798500614, 0.2538308927112888, 0.2539236226271645, 0.2539155884785885, 0.25394435143464256, 0.2539328622062459, 0.2539373600102918, 0.25383890358144423, 0.25370390288446926, 0.2535320470662848, 0.2533230643037214, 0.25302954361607977, 0.2527516042135741, 0.2525276458992257, 0.2521572811794335, 0.2517523216705827, 0.25125915770434915, 0.25079019668954644, 0.250261665440375, 0.2497175822955803, 0.24913368391936758, 0.24852208995264166, 0.24785804125393515, 0.24714105966910557, 0.24640271581736803, 0.24562580920431765, 0.2448254473180856, 0.24397064410977923, 0.24306445451018316, 0.24213847469836797, 0.24117553535994718, 0.24019667728201505, 0.23915841543984134, 0.2380501834181815, 0.23694746730980842, 0.23580869980562363, 0.23472292153606267, 0.23350261075780576, 0.2322116589449429, 0.23093769421549265, 0.22963183568947157, 0.228303273014625, 0.22693357094309094, 0.22547757054082326, 0.22405475750244838, 0.22259927418081704, 0.2211355821586197, 0.21961436898225667, 0.21809383762985513, 0.2165119027866785, 0.2149040521939089, 0.21320285861630162, 0.2115529539120435, 0.20990998171783123, 0.20819973720839724, 0.20646505636781054, 0.20469481989667576, 0.20291478635988294, 0.20108220664895327, 0.19926056216589638, 0.1974157601967973, 0.1955635497079523, 0.19367355322084004, 0.19178773435873867, 0.18985672992375888, 0.18790922102641655, 0.18593989988931003, 0.18396191258798675, 0.1819924959983545, 0.17998217562801327, 0.1779595383339541, 0.17587202060581392, 0.17383302038110635, 0.17182162216535435, 0.16975106688652256, 0.16767115852624517, 0.1655766292022255, 0.16348066396713934, 0.16137105189483264, 0.1592610527499659, 0.1571444184155351, 0.1550130808272575, 0.15288662504152692, 0.15074651814394713, 0.1486124113813123, 0.14647467428802255, 0.14435188809701743, 0.14220730434292847, 0.14008628502697065, 0.13793936523670774, 0.1357951356571252, 0.13363346450159114, 0.1314987728955123, 0.12932887524145162, 0.12720601680771884, 0.12508560076092295, 0.12295981560405654, 0.12084846062174068, 0.11877445783087381, 0.11666982038009006, 0.11457384094067385, 0.11252843551923919, 0.11044645757414318, 0.10840683435225822, 0.10634715662598028, 0.10430261764645819, 0.10223205737560391, 0.10022343000428922, 0.0982193005057792, 0.0962390800280562, 0.09427290665532644, 0.0922949089603804, 0.09036216689695017, 0.08851764931277863, 0.08660544538500585, 0.08471352068739584, 0.08281845157567252, 0.08097059925578716, 0.07912166426512054, 0.077315987857635, 0.0755296144669152, 0.07378380017610285, 0.0720352485504394, 0.0702824000525153, 0.06858206463579099, 0.06690324067109218, 0.06520523865336249, 0.06357639573070475, 0.06206277900978217, 0.06046458583070831, 0.05889415946562206, 0.05735144408110875, 0.05583641998733729, 0.05424884852580779, 0.05280194314799548, 0.051377212256777334, 0.05002861365427156, 0.04864408895751332, 0.04722815099421487, 0.04590641893266065, 0.044609364230580775, 0.04343790478647108, 0.04217946035649301, 0.04093247158968757, 0.039740489293379755, 0.0385788111286619, 0.037417861343918724, 0.03632026103799231, 0.035248126266418905, 0.03420790462441004, 0.03319626353337471, 0.032269380616775985, 0.03130825952908209, 0.03033797825130855, 0.029445950467253817, 0.02858303090082659, 0.027775788324336696, 0.026967810705399737, 0.026190481209429656, 0.02544357367098944, 0.024726873884095477, 0.024043125775687065, 0.023385862319615036, 0.02278196697059808, 0.02218106927527117, 0.02161085743535216, 0.021020813873280066, 0.020517159040336814, 0.020004888700146703, 0.019559315905180157, 0.019120946849265488, 0.018727690749307083, 0.01835884974793844, 0.018047161197909764, 0.017723885576871167, 0.017477663839969976, 0.017201746304088043, 0.016955222501401336, 0.016702098235647778, 0.016517029073805128, 0.016369410085872397, 0.016233911374310094, 0.016124214171751437, 0.01598392068935512, 0.015931780336719374, 0.015892316990147985, 0.01588440605462462, 0.01589759324092039, 0.01596138667534574, 0.016013052032168133, 0.016078523080523557, 0.016176235404839617, 0.0162953401571974, 0.01653575722447483, 0.016683960543237033, 0.01684339043651216, 0.017044205546166608, 0.01726786650573948, 0.01748692688422733, 0.01775696072749213, 0.018042832705342664, 0.01835026470797945, 0.018675235029505247, 0.018981861418003176, 0.019344889223155092, 0.019763268770778258, 0.02014902372493179, 0.020550740049154113, 0.020917702845187833, 0.021355924968317355, 0.021855693984575326, 0.022310275170442345, 0.022778757972076732, 0.023228083466111486, 0.02372661266699472, 0.024253090060506587, 0.024769579604760467, 0.025296665876116807, 0.02577783056418544, 0.026331706560383597, 0.026929882169853196, 0.027490807658386993, 0.028059715774845954, 0.028639102233453232, 0.02922223872619237, 0.029818046033121402, 0.030413493859623872, 0.03101506529771982, 0.03163106855246791, 0.03224216353800178, 0.032905463641565554, 0.03352006322274104, 0.034141179349074784, 0.03469416235270559, 0.035334883436201454, 0.03595471231203113, 0.036597360571931976, 0.037238215183838776, 0.037891954527790116, 0.03852712237125369, 0.03921113307178067, 0.039837102121553836, 0.040463993896853276, 0.04103800792007477, 0.04167131430906426, 0.04231524187217333, 0.04293825018364123, 0.04355756033472189, 0.04416102764406835, 0.04477337924541179, 0.04545402817723414, 0.04604596989872021, 0.04663610658658883, 0.04717639266363223, 0.04776634377181747, 0.048378915217873006, 0.048951102706380416, 0.049517473310676664, 0.05006275114654228, 0.05061778682296917, 0.051093914465207425, 0.05164129152219045, 0.05217592712542177, 0.05280719002982365, 0.05330330889970645, 0.053710897963229885, 0.05420475077691694, 0.05468654095355361, 0.05518283482268913, 0.055637207245309274, 0.05601615285081371, 0.05645735671621298, 0.05688386624061101, 0.057366734267288715, 0.05775571682369401, 0.05812288739601472, 0.058492897804256455, 0.05885140604944014, 0.05916276062919197, 0.059501947983351546, 0.05983868497151686, 0.06014795689842768, 0.06044375588144216, 0.06069947814560075, 0.060971482842725834, 0.061310876612449605, 0.06154224553344015, 0.06176333763155244, 0.061941151126721175, 0.06214415058722157, 0.06233943297340218, 0.0625143282188767, 0.06267569708414802, 0.06279980759807857, 0.06293669656666685, 0.0630554189751996, 0.06316235120165767, 0.06325410713010618, 0.06333375508463106, 0.06339513854767093, 0.06345659523229497, 0.06348685643408712, 0.06350343701031122, 0.06351809426748935, 0.06350572815020646, 0.06348912635200088, 0.06344939395687114, 0.06339693176685794, 0.06324317670619403, 0.06317614824844116, 0.06320618624085385, 0.06308945422548641, 0.06296256222484167, 0.06280156458788555, 0.06265632623109965, 0.062442694155858035, 0.062279801473664555, 0.06210142832236415, 0.06198473842751735, 0.0617671814555173, 0.06146613555498315, 0.06123813691208569, 0.06099585540119534, 0.060757461020672525, 0.060485781732838535, 0.06016972330355946, 0.059878505308329145, 0.059574018581801114, 0.05932753003203533, 0.058989029109368034, 0.05865737645446347, 0.05830106014736362, 0.05793739725904568, 0.05746594364441872, 0.05709973306349841, 0.05674960466727652, 0.05635361377213771, 0.055947321176738674, 0.0555694581387936, 0.05513889629779821, 0.05472196575784324, 0.054274815068591074, 0.053821913556081326, 0.053268825660421494, 0.0528161448213795, 0.05240241192244246, 0.05192182412556582, 0.05143437758870933, 0.05096391962895634, 0.050460547661049855, 0.04988754238619722, 0.04938290291498697, 0.0488700026367461, 0.04836420802366334, 0.04783474603975851, 0.04735560628872219, 0.0468080375507152, 0.04625864553864039, 0.04572795805667897, 0.04517201399687137, 0.04463287646212551, 0.04407275739651909, 0.04351245909562777, 0.04293112631237944, 0.04237249087420395, 0.041832679865162065, 0.04126791199026985, 0.04070272397322927, 0.040125303411915635, 0.03956074823785457, 0.03903939021462336, 0.03846735593538173, 0.03788239312652876, 0.03731569531242068, 0.03674972627569473, 0.036160961692991114, 0.03559965176031193, 0.03504981099916766, 0.03448668477582881, 0.03392453901740376, 0.033407819077538196, 0.03284269928542795, 0.03227581078573425, 0.03171956623402605, 0.031166910288296608, 0.030653231158532315, 0.03010332573713179, 0.029632810310074097, 0.029084737607965132, 0.028546132367952545, 0.0280457906644868, 0.027520441288030488, 0.02702512407736715, 0.026515338211056633, 0.026014992041069652, 0.025558902913416285, 0.025071376984033514, 0.024611589274799974, 0.02414136462477021, 0.023681179488323184, 0.02329836247494699, 0.022848324189397008, 0.022366743987707396, 0.02194691732816052, 0.02153592873997021, 0.021245688415617504, 0.02083787282615384, 0.020406638376305405, 0.020032630257416282, 0.019669810417185914, 0.019373936039047503, 0.0190256973082637, 0.018717770387593584, 0.018393228871380764, 0.018083066609808428, 0.01775434587684674, 0.017475642691388515, 0.017264329655809513, 0.0170013313019827, 0.016752991810142632, 0.016545528427066313, 0.016322278708000057, 0.01618817899896308, 0.01598617679976865, 0.01580322033697681, 0.015650362476479742, 0.01550191994564051, 0.015412637607123535, 0.01529426851883602, 0.015195266137784129, 0.01509144252651508, 0.015032480537977632, 0.015075626247035678, 0.01503897249364554, 0.015023617002249787, 0.014975831699341626, 0.015007950016261744, 0.01508923415319443, 0.01515083468529166, 0.015231262010749522, 0.015410051749918479, 0.015517900381000583, 0.015666676064249836, 0.015818195888971355, 0.01599293342052882, 0.016213990577211335, 0.01643083089789398, 0.01664453079859426, 0.016911132945875876, 0.017198967735490324, 0.017508046392584995, 0.01783842936166474, 0.018178425218277016, 0.01855325217517194, 0.01894913219084911, 0.01943122267279054, 0.019861885924899774, 0.02029455013574985, 0.020779164264680745, 0.021287691341131874, 0.021861517585560666, 0.022413000615932776, 0.022979322364642868, 0.023585412378550556, 0.024217232519951497, 0.02492201544235304, 0.025599533705153776, 0.026252623036872192, 0.026993907932724475, 0.027760461707015294, 0.02857324793935948, 0.02938870274982994, 0.03027873579358662, 0.03114318804437671, 0.03203802656310637, 0.03292178719945946, 0.033882124440562975, 0.03491438153058204, 0.03592482116249185, 0.03696605794138435, 0.038046895110269915, 0.03914852472981882, 0.04031388187832727, 0.04147400235171127, 0.04266728491681844, 0.04386995932496272, 0.045132065577919024, 0.04641385215049703, 0.04774057493180377, 0.049098483486379726, 0.05048788687663357, 0.05190909719584581, 0.05336242833031132, 0.05484819487734913, 0.05636671120316374, 0.057900599392832486, 0.05948779010217217, 0.0611312597151048, 0.06278129755855198, 0.06446622545701852, 0.06616857030822859, 0.06792617454297036, 0.06968591056007888, 0.07151711907399108, 0.0733818014905009, 0.07525992013530786, 0.07719591957321041, 0.07916295634952994, 0.08116793986609852, 0.08320796643227114, 0.08528654004820593, 0.08739789666825987, 0.0895695721496069, 0.09175180381821764, 0.09397284846441795, 0.09627707609547906, 0.09857057659442418, 0.10090873499167632, 0.10328505697717767, 0.10570284605847631, 0.10812654981405366, 0.11063127265672898, 0.11312199721478211, 0.11571179173480134, 0.11833809367069642, 0.1210310048465584, 0.12372838028948438, 0.12643020204322356, 0.12921191529910386, 0.1320318663634809, 0.13492884122324925, 0.13782173517548943, 0.14075918197477522, 0.14373491746761335, 0.1467524332855041, 0.14974684145003825, 0.15285605983804243, 0.15603874197597892, 0.1592201514616385, 0.16244256639103113, 0.16574146116183086, 0.16904166996954906, 0.17239983188108668, 0.17578435105778312, 0.1792124346861374, 0.18259234979547556, 0.1861181628808099, 0.18975817044615162, 0.19334983844231796, 0.19698423436460447, 0.2005401960957733, 0.204274531130027, 0.2081236459425606, 0.2119189915150323, 0.21575533699224925, 0.21960897690407324, 0.2235299387696155, 0.22747249162139888, 0.23147428549989368, 0.23551439360802923, 0.23959291801499147, 0.24370991124930869, 0.24783589472681633, 0.2520335314945506, 0.2562678784906091, 0.2605832894161124, 0.26488577890426396, 0.26919816871559715, 0.2735827539074495, 0.2780042581036057, 0.2824153284733749, 0.28691607166821265, 0.29155365372103653, 0.29610873493794787, 0.30070338484127385, 0.3053013544251288, 0.30997705606292775, 0.31466132095554245, 0.31941010346382553, 0.3241650029820215, 0.328982170694146, 0.3338299123560746, 0.3387405291991893, 0.3436448627033479, 0.3485544881866682, 0.3535252821105801, 0.3585252979915814, 0.3635394286960323, 0.36859862019684514, 0.37371448424856973, 0.3788239675814887, 0.38396153781848935, 0.3891235665328454, 0.3943156339335415, 0.39948342869765824, 0.4047328529597682, 0.41000393233379273, 0.41533763798556694, 0.42064582117020766, 0.42586777361973693, 0.43123466778195046, 0.4366166710797431, 0.4420875453504248, 0.44749047573753986, 0.45286823030142637, 0.4583139937255891, 0.4637745861368291, 0.46929959708904634, 0.47478184683832836, 0.4802092029807754, 0.48573104903672404, 0.49126261520804, 0.49690069173467544, 0.5024377964428334, 0.5079205422783161, 0.5134916647487313, 0.5190695438334771, 0.5246474474566807, 0.5302370513808157, 0.5358128001826897, 0.5414114453798942, 0.5470111699740934, 0.5525876056825735, 0.5581900898118161, 0.5638164050959056, 0.5694094182985653, 0.5749997515214944, 0.5806158680260872, 0.5861940288018097, 0.5916913832526578, 0.5972696390024177, 0.6028368455673698, 0.6083834942078693, 0.6139276674821942, 0.6194522230110412, 0.6249689345319485, 0.6304700065303993, 0.6359899967029061, 0.6414527910936785, 0.6468285455677971, 0.6522664906318417, 0.6576816951897854, 0.6630793768870685, 0.6684462459437985, 0.6738149995652842, 0.6791282920077649, 0.6844165435402648, 0.6896431584134697, 0.6948821537954982, 0.700063923593878, 0.7052439486792722, 0.7103898610498727, 0.7155391842794344, 0.7206095467123713, 0.725536268245263, 0.730550069117046, 0.7355206719590406, 0.740527299737171, 0.7454001720972221, 0.7502033590478069, 0.7549982467493133, 0.7597486597027896, 0.7644093058860868, 0.7690731472598751, 0.773645497738268, 0.7782133715539788, 0.7827271333735483, 0.7872098344765383, 0.7916106955660813, 0.7959510204421095, 0.8002424015211279, 0.8044768857205724, 0.8086653084292522, 0.8127816038445964, 0.8167502542511013, 0.8207582336703675, 0.8246998131564464, 0.8286394470518776, 0.8324386993644542, 0.8361412725558849, 0.8398149753557029, 0.8434203017708685, 0.8469298352988729, 0.8503991050021719, 0.8538135056018133, 0.8571347048912136, 0.8603828770480274, 0.8635040318567512, 0.8666101056469303, 0.8696845896088651, 0.8726266714203534, 0.8754915972290789, 0.8782046907084847, 0.8809217484297857, 0.8835782526711725, 0.8861237173530114, 0.88858565378083, 0.8909339560834322, 0.8932306857638683, 0.8953902003420825, 0.8975186672933714, 0.8995563568361093, 0.9015710069377262, 0.9034182610817736, 0.905157465725462, 0.9068317026753389, 0.9084157814066279, 0.9099209047541698, 0.9113214080538438, 0.9126395079997507, 0.9138557356879519, 0.9149799180300447, 0.9159759946519773, 0.9169185621788005, 0.917759275893779, 0.9185103896679631, 0.9191646440681532, 0.9196893699530373, 0.920153300601526, 0.9205325915556143, 0.9207959279446838, 0.9209607545200812, 0.9210770703326885, 0.9210381632604558, 0.9208766528426119, 0.9206484532158887, 0.9203217286070731, 0.9198402732941194, 0.9193230597392023, 0.9187420431995539, 0.9180160685796414, 0.9171907911742875, 0.9162573631395953, 0.9152346142857652, 0.9140973850652416, 0.9128771636151322, 0.9115566706681192, 0.9101804250770416, 0.9086546739771273, 0.9070025363767725, 0.9052866669292311, 0.9034722089964641, 0.901586001071379, 0.8995719376964715, 0.8974116209133609, 0.8952117939862103, 0.8929133865557475, 0.8905347460735947, 0.8880389055882778, 0.8854120548669966, 0.8827299431377886, 0.8799512612484465, 0.8771299222311428, 0.8741538956594885, 0.8710484321161508, 0.8678954272956614, 0.8646499911952087, 0.8613483018202908, 0.8579159250401266, 0.8544132086261603, 0.8508030759434033, 0.8471070393358799, 0.843266624014148, 0.8394077852489017, 0.8354407631257671, 0.8314105914364661, 0.8272939997562683, 0.8231571543612907, 0.8188633941435173, 0.8144287675405443, 0.8099856636608618, 0.8054616349108216, 0.8008196739291239, 0.796142598188904, 0.7915102157215157, 0.7866607906655271, 0.7817423248622437, 0.7766432974994253, 0.7716025790272057, 0.7665414445347055, 0.7613487159361249, 0.7560828992840021, 0.7507577144752654, 0.7453673920887229, 0.7398689789518655, 0.7343578143915911, 0.7288182861709149, 0.7231768350268881, 0.7174769536849201, 0.7117022933217654, 0.7058918302019391, 0.7000407576797577, 0.6941192545143384, 0.6881462793471339, 0.6820996478564385, 0.6760309366886676, 0.6699431677774788, 0.6637752762281475, 0.6575637531724685, 0.6513217698506186, 0.6450256460869598, 0.6386995948604035, 0.6323261513991512, 0.6259171509566059, 0.6194179025873481, 0.6129488988280645, 0.6065278450384171, 0.59998105925526, 0.5934080164282093, 0.5868128185257961, 0.5801904069925263, 0.5735248924768613, 0.5668614509224332, 0.5601770065479061, 0.5534642517824636, 0.5467435494135041, 0.5399617770963061, 0.533214630822956, 0.5264514563206633, 0.5196329764707999, 0.5128489255896708, 0.5061231665361036, 0.49930742830083025, 0.4924875226860915, 0.48561776169979515, 0.4787999573386653, 0.471988664429996, 0.46516695363774335, 0.4583471202321263, 0.4515515256716772, 0.44473797255373215, 0.43792368655757097, 0.43112894860602946, 0.42434476530795623, 0.41756972135144593, 0.41081160541794326, 0.40404189844524735, 0.39731854328793814, 0.3906116555114349, 0.383875751781642, 0.37721279980458866, 0.3705833622720655, 0.3639580397235915, 0.35735613291069046, 0.3508294385232614, 0.3442729846703593, 0.33772697165487103, 0.33123640183470193, 0.32477798599459645, 0.31831173224171594, 0.3119266869693771, 0.30560771776186835, 0.29928741804558906, 0.2930056448118175, 0.2867429437619223, 0.2805443694422653, 0.2743955053892183, 0.26827883377814904, 0.2622060665366491, 0.2562048825839532, 0.2502199676152976, 0.24423366547164538, 0.2383534117719359, 0.23252077896703285, 0.22677239890045922, 0.2210342289262668, 0.21536989570280557, 0.2097363230810048, 0.2041587216189876, 0.1985610550065721, 0.19310697316195832, 0.18776542753027117, 0.1824122766175546, 0.17711843527356597, 0.17182556499167892, 0.16665968602797843, 0.161525137149087, 0.15647942029963005, 0.15149215428607837, 0.14663819735618056, 0.14176185697489507, 0.13689525112067422, 0.132157805862348, 0.12748357028274487, 0.12289393058614456, 0.11834568382508115, 0.11383438156305255, 0.10942313192642748, 0.10507744573787786, 0.10085687981681507, 0.09663656444672375, 0.09240709797780877, 0.08833771307159105, 0.08433422113971199, 0.08043555435555094, 0.07656072940283823, 0.07273488887221487, 0.06900200084912247, 0.06533771240712333, 0.061739271570068026, 0.05821310018875697, 0.054758769495521026, 0.05137010229955481, 0.048050636392017246, 0.04481215341668227, 0.04162952636866113, 0.03857854059365761, 0.03552732078479003, 0.0325488628296923, 0.029571657760626806, 0.026745480443462956, 0.023965341551798906, 0.021275063066644197, 0.018650124599787005, 0.016143609569709512, 0.013642608341734799, 0.011183236879367007, 0.008821333233017212, 0.006524927244709499, 0.0042847976129365434, 0.0021193497192287815, 0.0