0.05521109658244607, 0.054174263785109526, 0.05317773894038249, 0.05222672707395932, 0.051299587813301475, 0.050422486194917036, 0.0495619521960146, 0.04873662468289719, 0.04793026586616173, 0.04724721123264981, 0.04645695635907098, 0.04560281506842804, 0.044855631444659386, 0.04411696942306384, 0.04341586768077989, 0.042687743135032895, 0.041967619918696936, 0.04125497185626837, 0.04054947982863447, 0.039932517053597676, 0.039230767463667424, 0.03854077303642174, 0.03786214001207128, 0.0371946510947547, 0.036443858355117306, 0.035810527596989244, 0.035178932605944256, 0.034559226440201825, 0.03394735084259301, 0.0334065428762297, 0.03280552590204525, 0.03206224613914933, 0.031510123653220236, 0.030964450809769353, 0.030594293158041748, 0.03004547510141329, 0.029472291699290276, 0.028970548303374286, 0.028487048312053335, 0.027880701623864988, 0.027453039589035565, 0.027221595421268223, 0.02679570279287008, 0.02639497944443903, 0.026017128336781912, 0.02566662218962126, 0.02515212611154791, 0.024875075370120403, 0.024612321367767625, 0.024376223509622336, 0.02414545502088251, 0.024067034673056518, 0.02385928811448348, 0.02368051761877841, 0.02347696551537497, 0.023362586799244255, 0.023134503877944856, 0.023089648765513466, 0.02306356831503914, 0.023145750715947645, 0.023150572708667733, 0.023129671052887102, 0.023197514343365658, 0.023291102538386035, 0.023430574502901282, 0.02357564618052601, 0.023805630575297755, 0.024002438567573118, 0.024232505962574976, 0.024334966358268883, 0.024651974186835568, 0.02518213427922599, 0.025525463839204444, 0.025906479137151762, 0.026144651825584644, 0.026622879568157252, 0.02724159300517218, 0.027760383076786025, 0.028314922887161944, 0.028911861635948246, 0.029537751620606022, 0.030088916380798896, 0.03080277121882143, 0.03154765784547604, 0.03244486757407754, 0.03324004088471023, 0.033964682423306886, 0.03485593807177972, 0.03578190920622303, 0.036827206668054474, 0.037814823013056276, 0.038705083130481294, 0.039794571437750996, 0.04091853305374595, 0.042054650828188794, 0.04325426505133325, 0.04452700106914455, 0.04579647477821061, 0.04710686061983214, 0.048471689220295336, 0.049864200645624635, 0.05118219697726946, 0.052676967266807824, 0.05420938227435852, 0.05585797626146702, 0.05745971221075879, 0.05909194016499138, 0.06078689979413877, 0.06252711805525722, 0.06443309951474024, 0.06624975249683586, 0.06794569136349092, 0.06988970179379575, 0.0718757208390726, 0.07405479017447435, 0.07610840243838961, 0.07805179675197142, 0.0802310443193106, 0.08245284018014079, 0.08488964887839495, 0.08717731741634156, 0.08934998035792191, 0.09176718066238072, 0.09422780875687008, 0.0967840779062443, 0.09932715092609049, 0.1018283620768907, 0.10447934045404844, 0.10717357439333533, 0.11008340010300922, 0.11284452877014234, 0.11550596780972194, 0.11839518182005661, 0.1213286634522182, 0.12427683283567473, 0.12730391392199625, 0.13045619174115033, 0.1335607891222514, 0.1367144573601847, 0.13982886252298057, 0.14309063426123636, 0.14645115367758613, 0.14979214306692046, 0.15317978277147823, 0.15655370612785904, 0.16004130561670235, 0.16356906369414456, 0.1671416594389631, 0.17075659523785705, 0.17458331605868213, 0.17826139120333928, 0.18184306236183737, 0.1856414983870306, 0.1894802201587907, 0.19347490644797533, 0.19737903421238062, 0.2013872406140839, 0.20537513140940644, 0.20941003171551362, 0.2134431837440573, 0.21757348558145, 0.22164725200463187, 0.22586886284157476, 0.23012331819707904, 0.23442344102683313, 0.23874174091770195, 0.24319835450885857, 0.24756941523358422, 0.2519788126966495, 0.2562708048565678, 0.2607725748274548, 0.26528099597367016, 0.26983722800605353, 0.27441843432477947, 0.27903967394442364, 0.2836689448106607, 0.2884611093925815, 0.29312384427392035, 0.2977653995239753, 0.30249816785468625, 0.3072571660905846, 0.31209709756362003, 0.3168983044416343, 0.32165274956478196, 0.32651401523297324, 0.33139440743543247, 0.3361729909946464, 0.3411043612738119, 0.346064901280126, 0.3510136283061005, 0.3559732963435, 0.3610250542937471, 0.36599510552953324, 0.3709964472249833, 0.37599129299601586, 0.3809986464082541, 0.3860149396057426, 0.3910433325316909, 0.39613996825939773, 0.40117578096984136, 0.40622046295183034, 0.41126362835529334, 0.41632178725120006, 0.42125012598572825, 0.42632990103776297, 0.4314023319883345, 0.43647774259655026, 0.4415328236760648, 0.4465625037688898, 0.4516025096849104, 0.45663171873664016, 0.4617330382794349, 0.46672775462537186, 0.4715873545757624, 0.4765793441845878, 0.48155247731459694, 0.4865147977930442, 0.4914474237342617, 0.49646702911015517, 0.5013446704572889, 0.5062062427900248, 0.5110413091937263, 0.5158663159465868, 0.5205578262863894, 0.5253514017461924, 0.530113541967043, 0.5349808677971061, 0.5396607083719418, 0.5443296109002881, 0.5489536638204835, 0.5535487228114937, 0.5579390895409213, 0.562492369021771, 0.5670892490511198, 0.5715423897682046, 0.5759553603707002, 0.5804041435934549, 0.584723290676127, 0.5890200439222176, 0.5932560560112896, 0.5974498447753762, 0.6014837371744837, 0.605602292517911, 0.6097869785349151, 0.6137816860863463, 0.6177277463348384, 0.6214260808934402, 0.6252946837384835, 0.6291372152404985, 0.6328716478716391, 0.6365435840548563, 0.6402083072319363, 0.6437466650129677, 0.6473140867317638, 0.6507178779128892, 0.65406347233103, 0.6572911346383394, 0.6605223061252142, 0.6637598090936006, 0.6668474914582061, 0.6698705586321941, 0.6727995212352481, 0.6756921701362669, 0.6784797899874486, 0.6812342517573777, 0.6839139065425027, 0.6864021797377773, 0.6889446522931838, 0.6915687914442237, 0.6939235915091131, 0.6962044917000245, 0.6982771941036428, 0.7004232837568222, 0.7024435898450486, 0.7044247793600007, 0.7063185922124263, 0.7082174749293845, 0.7099254093040169, 0.7114292463521426, 0.7129882183897859, 0.7144570044793349, 0.7160396731682811, 0.7173030953554481, 0.7182867430719719, 0.7194178062680233, 0.7204564082320669, 0.7213985873537543, 0.7222537211831662, 0.7229976222374218, 0.7236715149010493, 0.7242526919192195, 0.724930156969087, 0.7253026964501652, 0.7256044067176376, 0.7258110739709661, 0.7259341368864108, 0.7258093898016706, 0.7257824659767512, 0.7256704128276925, 0.7254509719806927, 0.7251373321676754, 0.7248693065845584, 0.7243507726393991, 0.7235496202362705, 0.7228847176179661, 0.7221220483507258, 0.7212755507387042, 0.7203188428961512, 0.7193023815265103, 0.7181539362788424, 0.7169148066038796, 0.715611138684493, 0.7141886108598653, 0.7127724731142109, 0.7111622603736173, 0.7094698636959127, 0.7076991343747356, 0.705840646719613, 0.7037920434581859, 0.7017812975029406, 0.6996815924338925, 0.697433849271464, 0.6951667579960357, 0.6927845149729313, 0.6903432982943111, 0.6878140474567236, 0.6853720460941789, 0.6826492859504394, 0.6798011562016224, 0.6769370807542842, 0.673996259476088, 0.6709149530204372, 0.6678306735030476, 0.6647238192900369, 0.661477091366755, 0.6581577249401191, 0.6548072989429413, 0.6513400182952411, 0.6476226648691886, 0.6440435852745241, 0.6403878742047973, 0.6367864879724532, 0.6329678846380546, 0.6291206255162461, 0.6251726461898415, 0.6211655016823606, 0.6171299635995147, 0.6130029933923795, 0.6087030198566165, 0.6044816386582184, 0.6002001464428691, 0.5959547732786081, 0.5915466268134328, 0.5869560988578205, 0.5824669769814913, 0.5779230381036459, 0.5734358622227678, 0.5687749257280751, 0.5639021762350012, 0.5591790590045216, 0.5544063297805832, 0.5495929889890194, 0.5447277948104428, 0.5399257977561046, 0.5349656730788509, 0.5299738181754813, 0.5249771572993663, 0.5199221784518612, 0.5146925740114632, 0.5096041678834944, 0.5044830775503354, 0.49933812832581387, 0.494157926459881, 0.48896515290413206, 0.48373450757347525, 0.47848321253950205, 0.4733782780525917, 0.4680702800515937, 0.4627005363685959, 0.4573880500084918, 0.45199233513838766, 0.4466741570166506, 0.44134590635967713, 0.4359622199069004, 0.43062524600812807, 0.4253839122346544, 0.4200213983435751, 0.4146615191168718, 0.409191748257623, 0.40385504371790554, 0.39866836140564116, 0.3933145988633672, 0.38797343255487565, 0.3824826631402765, 0.37718985913859654, 0.37205765425935156, 0.3667599792189242, 0.36148171546214375, 0.35619373302310026, 0.35096085534350424, 0.34568423687964106, 0.3405020280145185, 0.3353394497660486, 0.33025626584992757, 0.32513110770115383, 0.31993767004462753, 0.3148824288207338, 0.30985245657984994, 0.30490338370697245, 0.2999230857856965, 0.29490386933356194, 0.2900021301830749, 0.2851329086450284, 0.2803280865049202, 0.2755255601370828, 0.2707560746758493, 0.26603465762035267, 0.2613549959607282, 0.25664975193770395, 0.2520661447886318, 0.24761001338653368, 0.24310062084370035, 0.23864104135515155, 0.23429000799190455, 0.22992517224542178, 0.2254334919149166, 0.22120300445604188, 0.21701845975984058, 0.21288387349079704, 0.2087964046603812, 0.20492319758009522, 0.2009190271706031, 0.19697800423574455, 0.1931171973801422, 0.18930008931835543, 0.18547621677283666, 0.1817960465006023, 0.17817586920292658, 0.1746634969212649, 0.17115917265658767, 0.16757125810164308, 0.16421464373138395, 0.16091447365986766, 0.15778581376303832, 0.1545881502647392, 0.15146132669676568, 0.14839629739846175, 0.14539821598424688, 0.14232769853684854, 0.13948128002170831, 0.13686143694390693, 0.13411354422212948, 0.13143647731859223, 0.1287396787471768, 0.12621430332402742, 0.12367191106279667, 0.12128619928199147, 0.11896107292987859, 0.11682612631266366, 0.11460842655306273, 0.11230634685827812, 0.11024776757515059, 0.10824952719631944, 0.10633166385022311, 0.10445371224828126, 0.10280841634378107, 0.10103560445124463, 0.09933575623288521, 0.09754662581405799, 0.09600903871282424, 0.09472674850422853, 0.09328483692301091, 0.09191420725180877, 0.09057465372727583, 0.08934679627186706, 0.0882179088276658, 0.0871140188857374, 0.08607475935803569, 0.08501312852035972, 0.08411044118787211, 0.0832598516871694, 0.08247012692575477, 0.08173578836656284, 0.08108644896098118, 0.08045778204557599, 0.07987191566377784, 0.0793554165200267, 0.07889225003396218, 0.07863613650576912, 0.07825790645891924, 0.07798446930610786, 0.07771799285111572, 0.07750983367388284, 0.07734925186805913, 0.07725248117365091, 0.07716030323853224, 0.07717137341449964, 0.07722828476499712, 0.07737709091170471, 0.0775163294917959, 0.07773718172411745, 0.07796064990995163, 0.0782284626534852, 0.07859690092236506, 0.07894125345939805, 0.07934568796653528, 0.07977182772420761, 0.08023819266077171, 0.08074511600108161, 0.08128632951294008, 0.08185632050344412, 0.08246722327690632, 0.08310995178645961, 0.08389254507942547, 0.08458106465291336, 0.08526071384963797, 0.08602061267842484, 0.08680806194947718, 0.08769449937863752, 0.08852341382545727, 0.08923811370037704, 0.09013775202671866, 0.09105313090494202, 0.09217248326067129, 0.0930938299900856, 0.09406766188267997, 0.09503250239231371, 0.09601930150626868, 0.09693370702905639, 0.09796989369223329, 0.0989654741158133, 0.10002895430106683, 0.10109850357920927, 0.10227227222831788, 0.10333987540084578, 0.10435090446897602, 0.10544533727987734, 0.10654318144233184, 0.10780455874094827, 0.10888659964210239, 0.10990799195368597, 0.11101718587784172, 0.11212855217953072, 0.11327734844217423, 0.11438488102036316, 0.1156326059835654, 0.11672269468057639, 0.11781877304695794, 0.11873620710793854, 0.11986061730766459, 0.12116110151483139, 0.1222405526519663, 0.12331936659080582, 0.12423699079828616, 0.12532931469381234, 0.1266130514329131, 0.12765022441280469, 0.12868423534012405, 0.12969612121858226, 0.13072075136359387, 0.13161196109465242, 0.13263313911049457, 0.1336361065929076, 0.1346101937898419, 0.13557823665748858, 0.13666269754660867, 0.1375762839425088, 0.13847885251715839, 0.13931571390898226, 0.14019995529440818, 0.1411831533772849, 0.14201868362573733, 0.14284325215685054, 0.14350553367653812, 0.14432380131505299, 0.14525688626264177, 0.14601330647684352, 0.14675581802775528, 0.14749013092925994, 0.14820194672896447, 0.14876536827711911, 0.14946272835687985, 0.15024148227053444, 0.15087889758369136, 0.15149999075160234, 0.1521453451150798, 0.15272818543687236, 0.15329451332603855, 0.15384856790864734, 0.15438758282571086, 0.154920011295089, 0.15542755751090512, 0.1557637982019019, 0.156261728630031, 0.15673625604319585, 0.15737111755469552, 0.15777990636611822, 0.1581730267855026, 0.15856384362887094, 0.15894454265604188, 0.15915848676247063, 0.1595386984611, 0.15994946355443282, 0.1602873319210867, 0.1606120221606456, 0.16103169025585953, 0.16131915293301166, 0.16152060137863064, 0.16180936400579518, 0.16208914232628757, 0.16232645571044257, 0.16259512798282305, 0.1628361114819064, 0.16309158261932397, 0.1633398057553629, 0.16360774570962142, 0.16384184910684407, 0.16399433545019876, 0.1642348839163243, 0.16447054518731913, 0.16469857460343038, 0.16492956240779877, 0.1651705589563165, 0.16540012912264168, 0.16563226978630372, 0.16600329689205787, 0.16622698796538646, 0.16646426811373635, 0.16671514196007692, 0.1669797288827973, 0.167131693904239, 0.16744047681334479, 0.16787050931635253, 0.16818154253599502, 0.16850946908518666, 0.16869818505450804, 0.16908122485658045, 0.16946759351548493, 0.16987290673994682, 0.17029137980740186, 0.1707440988284281, 0.1711916980604058, 0.17182592473269068, 0.1722923630324767, 0.17279019412048102, 0.1733064789947746, 0.17386864399331134, 0.17435224284604878, 0.17499028306654735, 0.17565385127992822, 0.17627785625465173, 0.1770050583942861, 0.17794261090878197, 0.17870004431421913, 0.17949721523397782, 0.18027204094979257, 0.1811570213875321, 0.18196950025466163, 0.18294298775095766, 0.18394899820434796, 0.18512229134426722, 0.18618171862178068, 0.18724964218107118, 0.18840399763108054, 0.18960210062328034, 0.19072245420118472, 0.19202582511349212, 0.19335980704035782, 0.19474438535567506, 0.1961710223806103, 0.19780430100663848, 0.19929899622747277, 0.20076342079274376, 0.20237994598301345, 0.20404709100299026, 0.20581492877693428, 0.20757925141069733, 0.2093647525383196, 0.21124465731909503, 0.21317864089597166, 0.2151865609109027, 0.21722789324391614, 0.21934098736565866, 0.22149423804215734, 0.2237057207113142, 0.22590912832255092, 0.22824605794540595, 0.23057800685157454, 0.23303342137176872, 0.23554193125616218, 0.23803811039748465, 0.2406643070078267, 0.2433598747205517, 0.24608957900534495, 0.2488748027028182, 0.25188365967820453, 0.2547610389497766, 0.2575359015461757, 0.2605677058596749, 0.2636552352020176, 0.2667883669534941, 0.26999039349384263, 0.2732082521746081, 0.2765289714052042, 0.2799046128598928, 0.2835051270311854, 0.28697052721314487, 0.29031483102975914, 0.29393364653611515, 0.2976051207823065, 0.30131463474690534, 0.30509437918377763, 0.309109065490338, 0.3129711221297931, 0.3168961907495585, 0.32087628562218545, 0.32492362164160427, 0.329007740681671, 0.3331729735508817, 0.337392719016366, 0.3416273449258585, 0.3459579481409098, 0.35023705178081316, 0.3546783568365527, 0.35916192007589554, 0.36372855244594254, 0.36829150680037026, 0.3729695605973268, 0.3776115392970784, 0.38230043758625387, 0.3870048784866995, 0.3917873879801116, 0.3964137823376672, 0.4013026297748546, 0.4062194521974637, 0.41131056932811855, 0.41626604046555693, 0.42125838751538286, 0.4262862809034881, 0.43134836782554514, 0.4364218226429686, 0.44155086287143674, 0.4467601873009734, 0.4519390604342443, 0.4571470599064098, 0.46234811151134503, 0.46761346103015655, 0.47276351541852, 0.47808876714189813, 0.48342540941165246, 0.4887988026934516, 0.49415367055190557, 0.49958626501563447, 0.5049541603109237, 0.5103348762399806, 0.5157695783785594, 0.5211652940720911, 0.5263650756158017, 0.5318047058797957, 0.5372385917318635, 0.5427714558311605, 0.5481792291606798, 0.5535769066152982, 0.5589810236394822, 0.5643796996025584, 0.56983774616001, 0.5752120497125337, 0.5804014721344278, 0.5857823178796258, 0.591141804121864, 0.5964834583931224, 0.6017972596883251, 0.6070443599715902, 0.6123148231559041, 0.6175566598750166, 0.6228396643889369, 0.628012203928133, 0.6330645408831336, 0.6381909450178369, 0.6432804623451819, 0.6483298068417648, 0.653342304593899, 0.6583999039754521, 0.663318778502838, 0.6681989591607833, 0.673113343565432, 0.6779001442719867, 0.6826653501352794, 0.6873652443275616, 0.6920072353993976, 0.6966160909502161, 0.7011741080971712, 0.7055975037137799, 0.7100574269943708, 0.714339549711854, 0.7186888151409181, 0.7229668618130463, 0.7273662883587069, 0.7314759951016442, 0.7354957138980113, 0.7394824157633199, 0.7434009096927254, 0.747262180732848, 0.7510370452972984, 0.7546874923998721, 0.7583212044381348, 0.7618755832450156, 0.7652099627001825, 0.7686196068036693, 0.7719234055188617, 0.7751532129180312, 0.778291073794574, 0.7814912474863385, 0.7844250216067878, 0.7872982434191922, 0.7900590266157328, 0.7927336483439194, 0.7951358974901992, 0.7976564161742584, 0.8002599866612965, 0.8025543646687652, 0.8047576378705422, 0.806793094730078, 0.8088188598791468, 0.8107361511515522, 0.8125624975996018, 0.8142870542716728, 0.8158041035116012, 0.8173365560008187, 0.8188174517414519, 0.820123917350203, 0.8213246422289197, 0.8224085630310181, 0.8233981458945878, 0.8243575916180587, 0.8251224459623622, 0.8257837841100087, 0.8262292015424383, 0.8266951139739079, 0.8271754810712947, 0.8274014659324402, 0.8275229805547488, 0.8273804935839675, 0.8273108553093822, 0.8273231085882147, 0.8269983898341179, 0.8265707868708033, 0.8259128116928165, 0.8252928055751881, 0.8246655744023892, 0.8238081207903747, 0.8228452471027751, 0.8216607805802779, 0.8205008046571153, 0.8192024704301758, 0.817821413367143, 0.8163280671643891, 0.8147706846839529, 0.8130499379160453, 0.8112483646166494, 0.8093118145501413, 0.8072713425646644, 0.8050608891519945, 0.8028223504579369, 0.8005956174322701, 0.7981309523171725, 0.7955689950498799, 0.7928648649185323, 0.790114629508025, 0.7873104502766864, 0.7843573852088878, 0.7813095991551381, 0.7780775784153737, 0.7748535692203877, 0.7715167689820076, 0.7681006629836818, 0.7645890338942961, 0.7609320476539134, 0.7572408006861134, 0.7534388569862878, 0.7495647110755627, 0.7456000109702805, 0.7416046993355545, 0.7374575825500971, 0.7331818683967605, 0.7288793045332772, 0.7244955010365424, 0.7201373828286586, 0.7155832341003819, 0.7107875162690316, 0.706116047064841, 0.7013668942390449, 0.6965446695588752, 0.6916471869253521, 0.6866857129723858, 0.6816487705821521, 0.6765461173701821, 0.6713948133781643, 0.6661649360054002, 0.6608998129859835, 0.6555510976513718, 0.6501485151482804, 0.6446808233833897, 0.6391770409731958, 0.6335850088666409, 0.6279886285203311, 0.6223440447200823, 0.6168228421300133, 0.6110667687416478, 0.6051045415004445, 0.5993063175170624, 0.5934674638925208, 0.5877383615748123, 0.5818065991806108, 0.575710056152578, 0.5697462704047274, 0.5637515199152803, 0.5577989757138411, 0.5517404490623331, 0.545569704732258, 0.5394845649434833, 0.5333776705576764, 0.5273544743532226, 0.5211984553438972, 0.5149951272121088, 0.5088280769810882, 0.5026531797624957, 0.49645302212731257, 0.4902705510419339, 0.48412558866753563, 0.4779335200317054, 0.4717445719874076, 0.46547891398348407, 0.4593115802846131, 0.4531907981891651, 0.4470277285079478, 0.44087542157054854, 0.4346585605349504, 0.4285432406765437, 0.42259659901915536, 0.4164881249705204, 0.4104053680430226, 0.4042614052218485, 0.3982443507692114, 0.39216127086665553, 0.38620566747141394, 0.38027288467310283, 0.37453709743714386, 0.3686358388295144, 0.3628043978692692, 0.3569797521251308, 0.3511983226817778, 0.34527207115998165, 0.3396032074479803, 0.3341324117436662, 0.3285154818722172, 0.32294753057167697, 0.31725355147708284, 0.31180851072080956, 0.3064268240510492, 0.30106529412177646, 0.2957515522179845, 0.2906505756037133, 0.2854175446848857, 0.2802019430239455, 0.2750998978512292, 0.2700585525912271, 0.2649371725349287, 0.26003765693083486, 0.255225616133623, 0.2504346233362954, 0.24570457824209213, 0.24100047192032428, 0.23640121246957346, 0.2318499391697456, 0.227380071061415, 0.22297522745051992, 0.2187848095067796, 0.2144953619582043, 0.21029595962672373, 0.2061591218576908, 0.20210001381266637, 0.1979683714149656, 0.1940834347183865, 0.19034699493494017, 0.18659151744317246, 0.1829119761256785, 0.17932161000055585, 0.1757933956622857, 0.17222703913518006, 0.16886904409344294, 0.16577137297206454, 0.16253371838948563, 0.15938026730673827, 0.15619021550976075, 0.15321839288982478, 0.15030933285550407, 0.14749088069439215, 0.14474821914177616, 0.14218689242997815, 0.13958375019902589, 0.13693037604102917, 0.13450893912050843, 0.13216156785695365, 0.12996813146754735, 0.12776025322450077, 0.12567712950298743, 0.12362253330925844, 0.12164928829890455, 0.11961500114380001, 0.11781993556511292, 0.11609162159983588, 0.11443958130153632, 0.11285901524181176, 0.11134368030376926, 0.10990734051753638, 0.10856810281902297, 0.10727116257699201, 0.10604679606221368, 0.10496318670569174, 0.10387385654570684, 0.10288086346275238, 0.10193742745276112, 0.10106777211187201, 0.10024057039783989, 0.09951842263216798, 0.09885600845136104, 0.09827061515794935, 0.09775113070086605, 0.0972494586708433, 0.09686502596844891, 0.09644455615782278, 0.0961927294251556, 0.0959947485242041, 0.09584424557177093, 0.09575481840835326, 0.09582373925705039, 0.0958271996931585, 0.09588907266544776, 0.09609378154328693, 0.09625749733633976, 0.09637306287054256, 0.0966664892419753, 0.09700897422931973, 0.09743381180004179, 0.09786695740629137, 0.09829213040891088, 0.09882652460908119, 0.0994027916059259, 0.10010364829430826, 0.10075021036398477, 0.10138245406140005, 0.10212178515656765, 0.10289800856453031, 0.10358336699230127, 0.10444576165350578, 0.10551447715912717, 0.10640612242719111, 0.10733340025398871, 0.10827934259099989, 0.10927399242804736, 0.11011972574295886, 0.11119348400539932, 0.11228310655455777, 0.1134678067008748, 0.11457851134262585, 0.11577084820846327, 0.11691134443530438, 0.11807234275520102, 0.11909121858875552, 0.12030837141654728, 0.12167346233702589, 0.12288510871052784, 0.12411027256970644, 0.12521425136916092, 0.1264781827264053, 0.1278697249098211, 0.1291192370770294, 0.13037576547872684, 0.13154535183777205, 0.1328224651083521, 0.1340427798680922, 0.13531949461133846, 0.13658830743348307, 0.137953829997037, 0.13919196916715434, 0.14037058471915995, 0.14160669308505194, 0.1428328071751205, 0.14400069352516479, 0.14520964617269438, 0.14649503058350877, 0.14766001570032197, 0.14881293599966372, 0.14987504284997283, 0.1510090755791386, 0.15228103377217034, 0.15335263422408998, 0.15441082114317112, 0.15542993204959818, 0.15645821720688316, 0.15747456002950694, 0.15845923250729343, 0.15942098728184714, 0.16033699294802733, 0.16125156753024975, 0.16201585849205075, 0.1628888917565296, 0.1637251515774516, 0.16453331890637388, 0.1652951679405184, 0.1659714569099672, 0.1666669136072241, 0.16732296516733908, 0.16813708643696867, 0.16868967952313427, 0.16902318336871314, 0.16954188780263585, 0.17001850211876124, 0.17065265899700677, 0.1710202266438489, 0.1712370089432583, 0.1715568069909156, 0.17183608988995472, 0.17200799397152636, 0.1722135688047479, 0.17247251346873033, 0.17257521911310547, 0.1726385376404929, 0.17265107434993057, 0.17263503065288174, 0.172583613626235, 0.17248273812039386, 0.1723396569807757, 0.17223122627623141, 0.1719929181280702, 0.1717265047489625, 0.17140832916024307, 0.17105034369795563, 0.1706582764178113, 0.17021784847711247, 0.1696096192945622, 0.16910226077585688, 0.16854575460314222, 0.16796230005050494, 0.16730698493997487, 0.16668520397743383, 0.16592863952012044, 0.16513159236553263, 0.1642895723574412, 0.16341157778422696, 0.16265979686316145, 0.16167849005273677, 0.16066562155398828, 0.15947842905439702, 0.15841699105392906, 0.15742680177554771, 0.15626665223913444, 0.15507155083958074, 0.15375536599475084, 0.15250035552336152, 0.15125216760373866, 0.1499111744470348, 0.14853391814443023, 0.14728593771101234, 0.14581643634800523, 0.1441796449286192, 0.14267581626587394, 0.1411369422375195, 0.13958735778981443, 0.13797765656044186, 0.13634940728538272, 0.13467587064888045, 0.13297294014069405, 0.13146002355565767, 0.12967252282315198, 0.12788275490744533, 0.1260623403298471, 0.12422574346961288, 0.12238091642151719, 0.12050920657373865, 0.11850686333562686, 0.11661553926014102, 0.11470085904638368, 0.11296559168963115, 0.11098212285640054, 0.10883133510558538, 0.10685033252288803, 0.10485117645160513, 0.10300242292289885, 0.10094953783701101, 0.09884659545256287, 0.09678930555961116, 0.094724489578926, 0.09280290837802999, 0.09070596388388451, 0.08844897503354772, 0.08637824557159364, 0.08434159606291763, 0.08225371047915891, 0.0801641402208923, 0.07815113681168635, 0.07605156043299545, 0.07406079799138254, 0.07196041588303727, 0.06987278723089148, 0.06780851212398817, 0.0657448399038233, 0.06363460956820446, 0.06160581378831247, 0.059587837636489435, 0.05769538582873155, 0.05568776933129223, 0.05372842041404836, 0.05175826354467601, 0.049810638242296305, 0.047825745311742836, 0.045931702419972256, 0.04412235502603564, 0.04226197105212563, 0.04042779176825671, 0.03868910947291085, 0.03690069552379876, 0.03511235569444151, 0.033392830154002955, 0.031704510920355894, 0.029906630953751453, 0.028301108233152374, 0.026920933732618044, 0.02534400215189673, 0.02380821989931878, 0.022292430593879777, 0.020842649521131743, 0.01934176755451374, 0.01798667278421964, 0.016669087033607394, 0.015450653556166639, 0.014205177709622385, 0.013007299495804701, 0.011853390093138088, 0.010746928164827314, 0.009738181086732228, 0.008723173450445458, 0.0078040882041375435, 0.006890239393109691, 0.006032948282815318, 0.005172435499688549, 0.004436777654722656, 0.0037081807987857573, 0.0030879586238074293, 0.0025212564659223015, 0.002013682447058774, 0.0015573697761704704, 0.0011607339926582054, 0.0008203206406667683, 0.0005397247126438566, 0.00027060425427961394, 0.0001188229233507525, 3.123925253598137e-05, 0.0, 3.1361397104548876e-05, 0.000302287677477941, 0.000439746434951459, 0.0005582963137771943, 0.0008580980661726036, 0.001227118742676345, 0.0016550785706325722, 0.0021652298704939524, 0.0028633117905939643, 0.0034989759269853154, 0.004212249851595576, 0.004826783580850717, 0.005716254568829655, 0.006854721138875912, 0.007855693758354368, 0.008935908004346894, 0.010017694580069209, 0.011264904919741171, 0.012452944816752484, 0.013865026849170473, 0.015344266320128207, 0.016992919099979648, 0.018597885071048106, 0.020198017108512756, 0.021966847700297474, 0.02380816409851227, 0.025855776475461254, 0.02782759495105549, 0.029752809509652874, 0.03190456630172691, 0.034130181618267134, 0.03649031358925991, 0.03885775069886065, 0.04137258575292937, 0.0438887197415639, 0.04648717981156289, 0.04918012691893381, 0.051939539980870114, 0.05477360021813502, 0.057695327329531455, 0.060696496291371214, 0.06365217192436397, 0.06682642105015976, 0.07008666386939275, 0.07340152134181932, 0.07678919090821042, 0.08032711364026006, 0.08385122027172648, 0.08728987163030842, 0.09098910731528553, 0.09475552898826324, 0.09877003108092446, 0.10265001223135213, 0.10642234183560818, 0.11048268900675332, 0.1146092538461777, 0.1188110594778021, 0.12307016269139288, 0.12741189923251686, 0.1318043265432773, 0.13626508932375175, 0.1407874291629466, 0.14538463915783761, 0.1501880860790813, 0.15490082426513196, 0.15968722240342687, 0.16451770630959833, 0.1694499764265523, 0.17430582040103412, 0.179389629779863, 0.18453026416892104, 0.1897234364619937, 0.19497815582822797, 0.20026553282639512, 0.20563545881710604, 0.21105965311256752, 0.21654856782037768, 0.22207902122492107, 0.22770184058672413, 0.2333342839162338, 0.23902130829299836, 0.24470177881325697, 0.25050232489449414, 0.2565352930278725, 0.2624077737919166, 0.26833721730052384, 0.27431064756267504, 0.2803487467938866, 0.28642609552942283, 0.2925636785389305, 0.29874707183347093, 0.3049532430705854, 0.31122627835173367, 0.3174277874576466, 0.3237936952634917, 0.33019084381497743, 0.3365845693796387, 0.34304740906350306, 0.3495511083856102, 0.3560679513051313, 0.3626126974762309, 0.3691782454800148, 0.3757775329689445, 0.3825093844128032, 0.38914489902339844, 0.39581001209846794, 0.40250719450308603, 0.40922555831049884, 0.41595559035071616, 0.4227229527420331, 0.42951076401830496, 0.4361544807760701, 0.4429992709609672, 0.4499195145914163, 0.4567691013302488, 0.4636289112243515, 0.4705279975754202, 0.47740147264305033, 0.48431595152594054, 0.4912016574082645, 0.49809527775331364, 0.5048943678466535, 0.5118117129410324, 0.5187243712458166, 0.5256361647332136, 0.532543738320433, 0.5393797225662375, 0.5462845813886265, 0.5533245458574166, 0.5601889292960154, 0.5670495991775811, 0.5736965847243863, 0.5805704945115366, 0.5876165361613142, 0.5944241164676993, 0.6012213024548209, 0.607986857848901, 0.6147599669794671, 0.621333658837338, 0.6280940474845362, 0.6349740995630238, 0.6416544430919202, 0.6483124138184003, 0.6548155858962408, 0.6614406517342093, 0.6680420742139214, 0.6745965968576542, 0.6811163460540811, 0.6875340859110838, 0.6939904057723307, 0.7004379669340347, 0.7068079486561569, 0.7131378849761185, 0.7194333341221391, 0.7256796770533601, 0.7317913006815097, 0.7379632636462518, 0.7440853791935086, 0.7501980105540936, 0.7562139871591018, 0.762138001346867, 0.768060263604258, 0.7739289895033894, 0.7798099421455011, 0.7855609204374843, 0.7912168052700571, 0.7968673876635128, 0.8024605248493445, 0.8079372626159351, 0.8134197049556916, 0.818915520641203, 0.8242598958277189, 0.829543484872255, 0.8348035605865428, 0.839956713323022, 0.8449379323335955, 0.8499782967783281, 0.8549469567006066, 0.8598176370425832, 0.8646444929397504, 0.869512297165988, 0.8741742891027011, 0.8787669489711363, 0.883310251515528, 0.8877571851125454, 0.8921360818662291, 0.8964363908123738, 0.9006618432957672, 0.9046760034495765, 0.9087650189638206, 0.9128215612136821, 0.9167316051495169, 0.9205585047886607, 0.9243317344631095, 0.9279868773128717, 0.9315503097192558, 0.9350394821448728, 0.9384434879133466, 0.9416179497425068, 0.9448678445224065, 0.9480955365425423, 0.9511465065787882, 0.9541074478499479, 0.9568815853228931, 0.9596739114235763, 0.9625029843669191, 0.9650864770762009, 0.9675820353655735, 0.9700467874277623, 0.9723568406689496, 0.9745628396337599, 0.9767001736335358, 0.9787475527081485, 0.9807213764773351, 0.9825844670095937, 0.9843350492092189, 0.9860180459931808, 0.9876074781725038, 0.989096543377535, 0.9904986051441369, 0.9917736009971002, 0.992989768489603, 0.9941089080564829, 0.9950453579004822, 0.995981711820088, 0.9967351298486465, 0.9974797746194491, 0.9981200013080126, 0.9986507061125647, 0.9990867598088664, 0.9994216106441741, 0.999656255147255, 0.9997915837349244, 1.0, 0.9999173133479253, 0.9996913353503202, 0.999439873459829, 0.9990963085983047, 0.9987205996510878, 0.9981849766620838, 0.9973781327837375, 0.9966873453054486, 0.995896664129481, 0.9950373505431509, 0.994046684858739, 0.9929333542204827, 0.9917574051872666, 0.9904865799207003, 0.9891110717960867, 0.9876545593810392, 0.9860987563052883, 0.9844582322014688, 0.9827262251694135, 0.9809679564538022, 0.9790474234395758, 0.9771723892254968, 0.9750648887113651, 0.972879987524977, 0.9705462243498452, 0.9682136278425956, 0.9656630152372063, 0.9631821372558987, 0.9606116347154506, 0.9581375827441294, 0.9553692265920276, 0.9525347549817718, 0.9496158355068032, 0.9466226608313044, 0.9433665634743399, 0.9402491614787357, 0.9372213065099617, 0.9339154743365519, 0.9305389850276211, 0.9270793355037571, 0.9235643583748915, 0.9198099261112536, 0.9161771232410019, 0.9124663503970526, 0.9087956566160369, 0.9049208255967628, 0.900852124257948, 0.8968641985821052, 0.8928058428378118, 0.8887284509407247, 0.8845290670627203, 0.8803901683956712, 0.8760531452401082, 0.87166395383306, 0.8671350111530473, 0.8626538045084029, 0.8580482571704984, 0.8534656975135645, 0.8488263102289331, 0.8442178028368366, 0.8394595534004181, 0.8347084237131819, 0.8298514013597086, 0.8249529599856691, 0.8200051780818759, 0.8150270440775461, 0.8100285368554979, 0.8049695632911275, 0.7998739679259675, 0.7947340801900836, 0.7895691202296837, 0.7843656847320313, 0.7791340519763436, 0.7738703434143265, 0.7684385386885527, 0.7631318554050044, 0.7579201099496605, 0.7525274977974069, 0.7471110757719243, 0.7414810927778546, 0.7360447021076129, 0.7306524382831675, 0.7251474343554645, 0.7196210863332706, 0.7141867948220826, 0.7086091636643504, 0.7028202010190381, 0.6972494643195164, 0.6916593604145371, 0.686114629001367, 0.6804853743378482, 0.6749310666990039, 0.6692754406913387, 0.6636190067652944, 0.6579368893884826, 0.6522847354355861, 0.6465279477424986, 0.640891227669402, 0.6352514799544811, 0.6297566219437197, 0.6240984343010252, 0.618258216966076, 0.612647099949169, 0.6070374608352438, 0.6015667321020284, 0.5959497053942124, 0.5903825464100962, 0.584793110047298, 0.5790491025651817, 0.5735206179713875, 0.5680028698697932, 0.5626524376168411, 0.5571429122301025, 0.5515387047150986, 0.5460958000969331, 0.5406727526053401, 0.5352368667372794, 0.5298626760667746, 0.5246440724394957, 0.5192999498249125, 0.5139891891754067, 0.5086907950795828, 0.5034508931796419, 0.49818032687443314, 0.493016715584227, 0.4878847546871703, 0.4827321437452278, 0.4776741892689643, 0.47262295563892937, 0.4676347846910858, 0.46268074359747846, 0.4577731812660278, 0.45289080527932674, 0.4481270809429995, 0.4433144744731386, 0.4385480059300584, 0.43392037140132045, 0.4292359080322708, 0.42456128160687734, 0.41998748020894777, 0.4154636326902861, 0.4110157770550237, 0.4065895109306272, 0.4020268729357124, 0.3977294456892428, 0.39347423078575855, 0.3893423805157364, 0.38516675339723555, 0.3809590337766083, 0.3768978296402994, 0.3728848829871996, 0.3688979016839432, 0.3649882415548286, 0.3611290669667774, 0.35732153109208686, 0.35356666747976423, 0.34994476761204857, 0.3462878845824012, 0.3425962231780691, 0.3390704912882066, 0.3355990843317822, 0.33229216811088563, 0.3289177848456112, 0.3255050701304769, 0.3222680312720262, 0.31908710274643254, 0.3159477672945139, 0.31288237748725606, 0.3100644418757187, 0.3070884108181288, 0.3041803862111854, 0.30121683519648745, 0.2984566194727833, 0.2958098991597125, 0.2931581420309294, 0.29056733285890707, 0.28807563537810577, 0.2856005238132224, 0.28312934174875276, 0.28078455341622566, 0.2784970283575737, 0.2761293518312203, 0.2739733003477345, 0.2719392880199029, 0.26987313961566395, 0.2678618545252933, 0.26599769197581363, 0.26408447464629925, 0.2622161691664776, 0.26042381683847055, 0.2586888162011665, 0.2568431650458199, 0.25524197932919956, 0.2537060472428021, 0.2521950141214222, 0.2507322475537303, 0.24943810772566258, 0.24805728080867456, 0.2467683049994015, 0.2454925953864432, 0.24427226719836853, 0.2430116655239259, 0.24191028032570672, 0.24092184044388973, 0.23990459636835587, 0.23893678641978391, 0.23786942014060816, 0.23701627258294508, 0.2363558185033115, 0.23555990585881256, 0.23481130686163756, 0.23394576436811584, 0.23330875235703855, 0.2327771193412893, 0.23220053224457146, 0.23166275957940805, 0.23112455810154264, 0.23066736066380766, 0.23021905841168652, 0.22983395685871935, 0.22948111628317974, 0.22918377731232825, 0.22889132778774718, 0.2287491389958854, 0.22850556948838535, 0.22829933400882402, 0.22813937604041043, 0.2280011969702374, 0.22788299990206676, 0.2278105314775364, 0.2277670285094196, 0.2277425419889656, 0.22775399998857201, 0.2277878397806895, 0.2278474625726876, 0.22792920069312458, 0.22790755222831338, 0.2280460089626191, 0.2281277528171543, 0.22829871428355086, 0.22847757660828874, 0.22870111462440798, 0.22889193525895976, 0.229185407236546, 0.22938497820381593, 0.22959923290238357, 0.22975393583018797, 0.23000290040354576, 0.23019428336270673, 0.2304642941687016, 0.2307361538673687, 0.23117053978109425, 0.23142504715144446, 0.23167237450889, 0.23194725025150698, 0.23222771043481633, 0.23252088771321203, 0.2328071505451348, 0.23308888158050406, 0.23337842045146237, 0.23366687097189928, 0.23392731188658894, 0.2342133427947851, 0.23454276439680524, 0.23480981476018234, 0.235071996910973, 0.23518436438829726, 0.23545136085724191, 0.23563970927834968, 0.2358817811711867, 0.23610400768257342, 0.23644622619088995, 0.23661221722493603, 0.23683350689262622, 0.23696760810300502, 0.23709211517549472, 0.2370295956591788, 0.23715264883834736, 0.23740208689277548, 0.23745878211668753, 0.2375003761461349, 0.23734546842885654, 0.23737607541004302, 0.23746385309166054, 0.23742679534283695, 0.23736669927503654, 0.23719086247991772, 0.23709495155977311, 0.23701231450312307, 0.2368519868880572, 0.23666487319897414, 0.23654295730381403, 0.23628981947307476, 0.23589196425971382, 0.235608326917394, 0.235293333580146, 0.23498137815006556, 0.23459949863694038, 0.23431267044812557, 0.23385599553003386, 0.23337626447313206, 0.23281637437458966, 0.23229372103648244, 0.23184638152490686, 0.2312503321311257, 0.23062940110967245, 0.22998017589906897, 0.22930609890664505, 0.22841917420230531, 0.22771083654402638, 0.2269622008484123, 0.22636074123930974, 0.22551038166098378, 0.2244909191522356, 0.22360251262608213, 0.22276921157748608, 0.2217953596908925, 0.22079047774505822, 0.2197713956910304, 0.21870135563695473, 0.2176819557647061, 0.21653957373893665, 0.21537038086934657, 0.21401268242113491, 0.21280790491086934, 0.211590989852397, 0.2103080601184388, 0.20899035902127, 0.20783577994108055, 0.20642520710130774, 0.2049775134835067, 0.20352354518701288, 0.2020446495485949, 0.20043511317060844, 0.19891797722169413, 0.19737933121994544, 0.1957969889199601, 0.194184253161947, 0.1926660707940519, 0.19097842659608236, 0.18930117767029025, 0.18756546784931113, 0.18580904535927553, 0.1840228909975968, 0.18222495355404517, 0.18038132259291045, 0.1785421902496389, 0.17667976654271242, 0.17494674152080905, 0.17301970386393495, 0.17093982231194124, 0.16900289980317829, 0.16704355850765581, 0.16510335355632685, 0.1630964337782098, 0.16102677754466316, 0.15899068514793682, 0.1569354482367655, 0.15489421117669613, 0.15279951647723547, 0.15081478595089584, 0.14867615485937938, 0.14653147169810582, 0.14436975719921882, 0.14221371026340932, 0.14003780074558397, 0.1378696248886766, 0.13569428613879977, 0.13351015166325397, 0.13132235833613973, 0.12925985074166574, 0.1270450855031779, 0.12483354170132266, 0.1225155484906942, 0.12032362600645544, 0.11823140447414518, 0.11602098610878829, 0.11381518653993179, 0.11166143096139265, 0.10945970985800105, 0.10736493899089587, 0.10516743727871283, 0.10298415564150211, 0.10082325458089099, 0.09866626446943894, 0.09651684748834219, 0.09438872539740539, 0.09227447303540957, 0.09014657151587786, 0.08806479429380874, 0.08594096394296316, 0.08389455421332016, 0.0818605343162961, 0.07980599098436905, 0.07780528846785893, 0.07587496862107422, 0.07389804286751525, 0.07194201131638789, 0.07015163569675566, 0.06822234990289307, 0.06622648336510768, 0.06437374768531945, 0.06254748516256364, 0.06082586540437429, 0.05904563891921446, 0.0573720270313335, 0.0556502981836032, 0.05396713503170133, 0.052152997657329656, 0.05056828848828997, 0.04919726085123214, 0.047649279930060476, 0.04614406568191757, 0.04453576548831458, 0.04313468092174078, 0.04176855054834789, 0.040438869499176695, 0.03914706637479556, 0.03789450693687661, 0.0366824976045377, 0.03554231982148821, 0.03441131227252266, 0.03332613634215315, 0.0323498588988645, 0.03135104634481877, 0.030423399320853743, 0.029526182583189325, 0.028682590458801185, 0.02780277994475675, 0.027078632204339384, 0.02657556394882452, 0.025929782917948212, 0.025345284773971202, 0.02478523473102041, 0.024326930337896038, 0.023824148201765163, 0.023496086054621924, 0.023221283897765413, 0.02299876497074667, 0.02283419008939918, 0.02291696886319285, 0.022842132389362394, 0.022836378037436208, 0.022733879321917387, 0.022885343032908272, 0.023161547360102498, 0.02342213087459543, 0.02374670168674478, 0.024077714208940785, 0.024538700912033425, 0.025166657529064742, 0.025738919598607118, 0.026380565345306847, 0.026979930043874507, 0.02777413357157969, 0.028674142571942823, 0.02958963494262169, 0.030572168254158875, 0.031737980240927444, 0.03284113409818959, 0.0339288668038172, 0.03519214742365343, 0.036523916935147435, 0.037907298363800385, 0.039379044511864095, 0.04091052152195404, 0.04252033004653345, 0.04419863868440316, 0.04587071555574078, 0.04769650774078231, 0.04956818145323125, 0.051527605411948604, 0.053552650587837196, 0.05580709236921832, 0.057944900803845636, 0.06005642580465082, 0.0623597300749063, 0.06473224301950034, 0.06709682289401996, 0.06961771227139424, 0.0723279945193039, 0.07496367964571679, 0.07767234768154396, 0.0804941021674346, 0.08334165182775143, 0.0862497211123109, 0.08924476871842779, 0.09231072254975527, 0.0952881488093349, 0.09851391978945445, 0.10193481853574311, 0.10526413406843659, 0.1086621906462738, 0.11196955156645573, 0.11552307194971687, 0.11915796107309803, 0.12282465673317278, 0.12655152367079991, 0.13038588676778143, 0.13422742666682808, 0.13817478817324433, 0.14213621564007303, 0.14616188279664755, 0.15011357127286196, 0.15428228928406193, 0.15867853463928447, 0.16293304578000908, 0.16725137388040223, 0.17147764152292727, 0.1759389011439313, 0.18052413896317773, 0.18507825732974484, 0.1896873844497152, 0.19422844832789551, 0.19896062629727831, 0.2037513617684371, 0.20857341662980255, 0.21347632475564024, 0.2183868688215798, 0.22334529944900952, 0.22848605311007575, 0.23352101334544234, 0.23844831584423873, 0.24360814225166552, 0.24880842046252377, 0.2540894669819332, 0.2593640954822147, 0.26476785697463345, 0.2701127483350469, 0.27550176652175973, 0.28077659016507284, 0.2862685384023016, 0.2918766408608983, 0.2974181630503415, 0.30299418689490876, 0.3084619676298945, 0.3141213833723975, 0.3198724826590411, 0.32556926457244934, 0.33129272181366787, 0.3369733496524367, 0.34275619990639333, 0.34861062467991705, 0.354426707032455, 0.36026477841127574, 0.3660744456374643, 0.3719595300548145, 0.3779742575600945, 0.3838761274668639, 0.3897987629701962, 0.3956223866841338, 0.4015961306549815, 0.4075530452789101, 0.41354716970833266, 0.4195472912707825, 0.4256171287045397, 0.4316191217349464, 0.43765216980405663, 0.443664715621639, 0.44968328346618425, 0.45558618431619896, 0.4616273167272526, 0.4676223586210881, 0.47365745273704024, 0.4796837811843709, 0.4857760401018143, 0.49177408164384057, 0.4976888600226075, 0.5036832788159168, 0.5096647026770734, 0.5156410099264624, 0.5215931707618857, 0.5275326195791421, 0.5334538043085134, 0.5393582229618138, 0.5453627571930234, 0.5512154019792177, 0.5570223401246595, 0.5628498625092452, 0.5686578883171152, 0.5743095968232534, 0.5800907236457633, 0.5859321142684891, 0.5916371788987113, 0.597314450019884, 0.6029968803890657, 0.6086101389308688, 0.6140454717495184, 0.6196160239167079, 0.6251452280330849, 0.6307100073310232, 0.6361457508097197, 0.6415754613231092, 0.6469295236155356, 0.6522447987691575, 0.6573911418443626, 0.6626408334930936, 0.6678724861313748, 0.6730173860746255, 0.6781131954195098, 0.6832256810002294, 0.6882126687777452, 0.692980382197494, 0.6978923570077269, 0.7027443267916088, 0.7075256510666595