0.027192837047692167, 0.02632390204238928, 0.02552137391936131, 0.024799339978843114, 0.02413397962557779, 0.023517511836648405, 0.02294133473507449, 0.022376176201871285, 0.021867223570009663, 0.02138186376217086, 0.020895875088378885, 0.020450180371122784, 0.020014234531149575, 0.019594286994008996, 0.019184591878981274, 0.018751723246006085, 0.018364227391143517, 0.017983961281844922, 0.017609777021955014, 0.017242767865423104, 0.016861542686707177, 0.01651325295241356, 0.01616022730227456, 0.015830028501065747, 0.01550887977250076, 0.01519604626874262, 0.014896662959021143, 0.014570261797990921, 0.014301756339369592, 0.014045692013367639, 0.013802241703609604, 0.013575422437653216, 0.01334191310043542, 0.01315214939178144, 0.01297994942841978, 0.012812234142200592, 0.0126808058605127, 0.0125754299694143, 0.01248532880379967, 0.012418265185685355, 0.012396486615249697, 0.01237571096835428, 0.012365063316048898, 0.012401086579067366, 0.012464432484518725, 0.012542697812652333, 0.01266449344977568, 0.012755543877261008, 0.012942891323859892, 0.013156977757318536, 0.01341206331576099, 0.013681264445372723, 0.013976689686146656, 0.014308426451369372, 0.014672028483875447, 0.015020695491630896, 0.015456156895494072, 0.015958498708833917, 0.016452925104002335, 0.016982502212012897, 0.01748964631260686, 0.01809855796337233, 0.018762883768464515, 0.019437069634223543, 0.020147909721613615, 0.020871696348514955, 0.021660932333637528, 0.02245801368105658, 0.02332622879406324, 0.024231578677053885, 0.025160635873455826, 0.026144874910667932, 0.027166253105440814, 0.02822966836437008, 0.029333756520158294, 0.030484966148827987, 0.031672107834327966, 0.03291508094189842, 0.0341879535905533, 0.035506151777549066, 0.03682267135177018, 0.03823907594030703, 0.03971593561159179, 0.04121956963059461, 0.04277004386316343, 0.044348015914518764, 0.045996677488851896, 0.047676733334081324, 0.04942352013313786, 0.05121854321309456, 0.05304449801548414, 0.05494072624099704, 0.05686088916164476, 0.05886035025872612, 0.06090958946407295, 0.06302206716473052, 0.06517207666217752, 0.06734834230165973, 0.06960870261986007, 0.07192198728365595, 0.07430463309827999, 0.07672414413470213, 0.0792065737096564, 0.08173780955004618, 0.08432646840594583, 0.08696607166478783, 0.08967162511698988, 0.09238220766989744, 0.09521123566924823, 0.09809623216288524, 0.10102484495114235, 0.10402569948718705, 0.10712579577829999, 0.11023672558229954, 0.11340863510858577, 0.11659045296245572, 0.11989139008815097, 0.12325097671346597, 0.12666977010354297, 0.13014825838455046, 0.13365810283617632, 0.13726083071861062, 0.14096588237728677, 0.14468200413505414, 0.1484606304918044, 0.152286751598831, 0.15619225339334217, 0.16015559191274908, 0.16418479903400912, 0.1682754573648403, 0.1723706825254059, 0.1765914503049377, 0.18086416644495884, 0.1852024987906579, 0.18959933696983564, 0.19404555496226966, 0.1985612691094948, 0.20317675368947535, 0.20780435754698962, 0.21249291360861, 0.2172070375607096, 0.22202079809385397, 0.22689925461284574, 0.23182763203573767, 0.23681386019531186, 0.2418551279259368, 0.2469564030453215, 0.25211371370011065, 0.25732798472962615, 0.2625980353536969, 0.26788212612020534, 0.2732675072222753, 0.27870984188298686, 0.28419825764551, 0.28973836400885566, 0.29529348327223287, 0.30094026609955826, 0.3066240513412541, 0.3123684958683642, 0.3181599320544499, 0.32399301496408744, 0.329877958158043, 0.33584273899309264, 0.34181370284552687, 0.3478309249405736, 0.3538922224924228, 0.35999929935394426, 0.36609467453393063, 0.3722943656821429, 0.3785710598599627, 0.38484173179612086, 0.39115156236491544, 0.3974582388276957, 0.40384844687334404, 0.4102579098921314, 0.4167164253549079, 0.4232061397504596, 0.42972563875076714, 0.4362753950085676, 0.4428431198977438, 0.44945044500969966, 0.4560837745443814, 0.46276150281992556, 0.4694413663387479, 0.4761164277925025, 0.48284654972656166, 0.4895963942480031, 0.4963485884688684, 0.5031365368501693, 0.5099335498406025, 0.5167518004504958, 0.5235827161137299, 0.5304588835863008, 0.5373072729484548, 0.5441340206887617, 0.5510066738382838, 0.557885182829561, 0.564785711755009, 0.5716696494736463, 0.5785043851037477, 0.5853986875512114, 0.5922895828819843, 0.5992015124544748, 0.6060787048482219, 0.6129645448878414, 0.6198268812335719, 0.6266811302939579, 0.6334780462771086, 0.6403169532155456, 0.6471574331191323, 0.6539609075509965, 0.6607466823242751, 0.6674812848983236, 0.6742309200325642, 0.6809506233538093, 0.6876509738297442, 0.6943238812297211, 0.701004804225405, 0.7076138189051906, 0.7141830319747486, 0.720731871319128, 0.7272466666533822, 0.7337056567969804, 0.7401496342316656, 0.7465469271440321, 0.7529092343767947, 0.7592275444204626, 0.7655059008676742, 0.7717307327182019, 0.7778858134499106, 0.7840146683475082, 0.7900904686828829, 0.7960816792708036, 0.8020505760011034, 0.8080032444976685, 0.8138465996053127, 0.819630277145067, 0.825332499091816, 0.8309940551627107, 0.8365664019721133, 0.8420971624571226, 0.8475573980382944, 0.8529688462979697, 0.8582808889921837, 0.8634938061173956, 0.8686604677056009, 0.8737489238278008, 0.8787552584660848, 0.8836833632170802, 0.8885219670797098, 0.8932842758008993, 0.8979607312829283, 0.902556216086899, 0.9070560587204168, 0.9114406399617548, 0.9157630481602038, 0.9199915510799389, 0.9241249515968539, 0.9281620413379685, 0.9320822212194528, 0.9359254908246968, 0.939667709660295, 0.9432990651643633, 0.9468371007779528, 0.9502653831513449, 0.9535935369435482, 0.9568146261298237, 0.9599226643106623, 0.9629272996498484, 0.9658616456015545, 0.9686396616508709, 0.9713077289558569, 0.9738595877304573, 0.976304667283561, 0.9786277651479792, 0.98084509678776, 0.982946023072718, 0.9849064903663705, 0.986774810934681, 0.9885234028955108, 0.9901503103171574, 0.9916556598088875, 0.993053856544192, 0.9943124076770812, 0.9953966010395223, 0.9964161377604185, 0.9973090284710531, 0.9981157576435311, 0.9987497307991726, 0.9992375767831245, 0.9996240008641586, 0.9998834051459782, 0.9999924124091617, 1.0, 0.9998636091510533, 0.9996151707464817, 0.9992369643785894, 0.9987741664799942, 0.998131199236645, 0.9973414504433132, 0.9964472711438641, 0.9954248589365683, 0.9942392735107927, 0.9929650831338448, 0.9915541466530902, 0.9900215526215804, 0.9883596322939835, 0.9865914224394456, 0.9846695869209942, 0.982623158753511, 0.9804485171984372, 0.978148285870938, 0.975738525148833, 0.9731864637792116, 0.9704617008225948, 0.9676697023337921, 0.9647525367927137, 0.961748032121114, 0.9585786827241557, 0.9552465468169413, 0.951842704903896, 0.9483175939637886, 0.9446885820103106, 0.9409222171348981, 0.9370644898281351, 0.9330618975416866, 0.9289458011730691, 0.9246670496755997, 0.9203329429983943, 0.915891567105268, 0.9113310705518183, 0.9066602957306423, 0.901868766569567, 0.8969831654323489, 0.8919933811104896, 0.8868956463266708, 0.8816944784478411, 0.876396430119456, 0.8709924303092569, 0.8655168646134117, 0.8599141210997879, 0.8542175819199623, 0.8483992550341658, 0.842523081351728, 0.836563935578605, 0.8305063163926836, 0.824361636905467, 0.8181416544403889, 0.8118268744352138, 0.8053796603106563, 0.7989107915334133, 0.7923614208414723, 0.7857788003507341, 0.7790694109799209, 0.7722861891556594, 0.7654362785420702, 0.7585185829175949, 0.7514856212323542, 0.744444379476511, 0.737342794384344, 0.7301739575555215, 0.7229454204006123, 0.7156938934967375, 0.7083485555410483, 0.7009023502872253, 0.6934636599822998, 0.6859753707562989, 0.6784755921231312, 0.670890978835838, 0.6632698507190168, 0.6556063447396445, 0.6478532565639793, 0.6401270534150361, 0.6323662838255647, 0.6246260609041591, 0.6167972491083663, 0.6088907052951048, 0.6010228428411477, 0.5931321617866802, 0.5852674784113228, 0.5773329129516463, 0.5693481477325477, 0.561395041052178, 0.5534313285186238, 0.5454437987333687, 0.5374680905092174, 0.5295337410328793, 0.5215461717385935, 0.5135618104212858, 0.5055814572382903, 0.4976098379148517, 0.4896219166854163, 0.48167430798241967, 0.47373880201292, 0.46580583584992025, 0.4579029663878246, 0.4499977815166366, 0.4421365028194082, 0.43429703901834854, 0.42650809466207773, 0.4187162162033925, 0.41094417094110036, 0.40321664549875386, 0.3955231344106799, 0.38783200403279605, 0.38021715516940974, 0.37267011859901483, 0.36513071633860333, 0.35763595311120555, 0.3502002907400502, 0.3427990664651767, 0.3354064527015282, 0.3281146387855847, 0.3208751039377381, 0.31371807164642523, 0.3065857348887729, 0.29951333648301115, 0.2925025638887825, 0.28555507998807034, 0.27865438916508667, 0.27184066163188125, 0.26511717357732373, 0.2584364314774948, 0.2518274500627092, 0.24523725423734918, 0.23878292319461167, 0.23239962965493408, 0.22609315373897043, 0.21986298781046473, 0.21375892758200923, 0.20768016693871194, 0.20164450207989207, 0.19573940635411527, 0.18991784768615994, 0.18417053443887724, 0.1785213462614941, 0.17300332402999075, 0.16752330880577687, 0.16213497745055278, 0.1567903145468755, 0.15159376911936503, 0.14652527614696537, 0.1415074773974192, 0.1365850161884361, 0.13172540374032415, 0.12699973089520858, 0.12240066184889216, 0.11786253998358741, 0.11342309502854278, 0.1090502555790548, 0.10481357433874777, 0.10068185985552677, 0.09664109573707778, 0.09269995897869708, 0.08887388044891864, 0.08513131864646853, 0.08150409189371262, 0.07796309156903594, 0.07452469195713494, 0.07121699038998182, 0.067980090697597, 0.06482842073053666, 0.061801528463056074, 0.058876890775570005, 0.05604493535633992, 0.05332538730436109, 0.05071941403171482, 0.04820022294186352, 0.04578236297453538, 0.04347420831793787, 0.041256737444707973, 0.0391873884855186, 0.03716457571965491, 0.035243939737295345, 0.03341889200035201, 0.03170046101885038, 0.0301217142043641, 0.028595362608464087, 0.027168606920483094, 0.02586901883451889, 0.02463427968960377, 0.023484144130276295, 0.02244519628364591, 0.021500614769995683, 0.020673008961468866, 0.019910718373710806, 0.01927698367791719, 0.0186933786332569, 0.018201507826942846, 0.017797316294967617, 0.01748461940052298, 0.017290262704626903, 0.01714635959659406, 0.017088501501195116, 0.017110074564488924, 0.017220149770313182, 0.01744567409130896, 0.017712061885146995, 0.018058545120166535, 0.0185159402219343, 0.01901345380314733, 0.0196360672600108, 0.020279554511047352, 0.02099906424162121, 0.021793722368750726, 0.02265883532892214, 0.02363394457729096, 0.024632058030148223, 0.025698663569163754, 0.026819776023865184, 0.02801863802296793, 0.029308017260008645, 0.0306249653537945, 0.032001754278365824, 0.03344645312796448, 0.03493591312978015, 0.03647889229272508, 0.03807619260478067, 0.0397245270902158, 0.041486544189375044, 0.04322357364619185, 0.044993205460743604, 0.04682915938648389, 0.048709377716278486, 0.05068137750215534, 0.05263829089763471, 0.054624245291800266, 0.05666369467970962, 0.058739797263007425, 0.060854428246277646, 0.06299778913909962, 0.06517817297074893, 0.06738185636609967, 0.06961378085042244, 0.07191912290737036, 0.07419648256676749, 0.07652531200242718, 0.07884911211066106, 0.08119629233241951, 0.08357168799393587, 0.08595872026589854, 0.08833551375889595, 0.09076004854380222, 0.0931972717941559, 0.09567821346972648, 0.09813228269459401, 0.10056086947258319, 0.10303811038793444, 0.10552026593321114, 0.10804485295087501, 0.11052820003248091, 0.11301993428182679, 0.1155079026548225, 0.11799655857998757, 0.12045131050670553, 0.12294122873811347, 0.12544703253360143, 0.1279224769285019, 0.1303916751838555, 0.13283218110768166, 0.13528804876496978, 0.13777053411118909, 0.14019894270291014, 0.1426167331356637, 0.1449770628401532, 0.1473758471766765, 0.14975488266496179, 0.15212013162546723, 0.1544672098575724, 0.15679733285094666, 0.15910585254142223, 0.16139995950418962, 0.16366702350188675, 0.16591304671736612, 0.16815110052776308, 0.17035126932904718, 0.17249791461731817, 0.17465678791310996, 0.17678835041835606, 0.1788961883987003, 0.1809776870649782, 0.18305248283262737, 0.1850776649873291, 0.18704090348415622, 0.18901748915996539, 0.19096481337604684, 0.19287648485107808, 0.19476566180205257, 0.19666983605957358, 0.19849319849465474, 0.20028891521261954, 0.20202779552305694, 0.2037706286170614, 0.2054968363851337, 0.2071771289957964, 0.2088277564477323, 0.21044673689708035, 0.2120379900354199, 0.21358425812823323, 0.2151174703464912, 0.21661993236787125, 0.21809122490901406, 0.2195329016868993, 0.22092195647320007, 0.22230652390337546, 0.2236602731301161, 0.22495118009440312, 0.226248874442874, 0.22753478068420166, 0.2287684373308716, 0.2299734972841015, 0.23113300643616472, 0.2322847506689548, 0.23338357636953128, 0.23448337757425464, 0.23555527761259684, 0.23659704606817136, 0.2376161993585605, 0.23863114554764261, 0.2395975303895985, 0.24054133019694307, 0.24146882420222412, 0.24236870921869666, 0.2432164269232277, 0.24408043219334438, 0.24492367822721675, 0.24575961083574063, 0.246562565753278, 0.2473401218171645, 0.2481103757456743, 0.2488645346685819, 0.2495928626476321, 0.25031885821828037, 0.25101459119929354, 0.2517156178392905, 0.2524036926608324, 0.2530893004487344, 0.2537535829881921, 0.25441182748637436, 0.2550583656270752, 0.2556978716877119, 0.25633067074146665, 0.25695904504768224, 0.2575356890877101, 0.25816261664524953, 0.2587845958158695, 0.25942486012560456, 0.26003817624214204, 0.2606391809475612, 0.26125551603517766, 0.2618734307351871, 0.2625096848852121, 0.26313214383000894, 0.2637297402651239, 0.26436856695413413, 0.265013331750607, 0.2656827268456848, 0.26634067457600324, 0.266990867338378, 0.26767281684698263, 0.26836602387121244, 0.2690603148026504, 0.26978067744177253, 0.2705323394180254, 0.27127916771127264, 0.27204292893270465, 0.2727970009687865, 0.27360076480406603, 0.2744150473886542, 0.27525687773289714, 0.27611841579795016, 0.27703135567549786, 0.2779315581186771, 0.2788543507108193, 0.27980440904926007, 0.2807801958717071, 0.28174050659167804, 0.28277510471273737, 0.2838288636115387, 0.28491607208054054, 0.28603027358117245, 0.28717490553653274, 0.2883455306603967, 0.28958407804545067, 0.2908102012710668, 0.2920697220796691, 0.29330360704778, 0.2946385360088508, 0.29601337894015334, 0.29741035435708835, 0.2988405801431012, 0.30034032951766804, 0.3018343957660032, 0.30332544171238296, 0.30489876351701645, 0.306507229598975, 0.3081701016272865, 0.3098479425758412, 0.31152081842658047, 0.31327934720410106, 0.31507342491531803, 0.3169310560955897, 0.3187941605737584, 0.32064685925331526, 0.3225929373664005, 0.3245747634507413, 0.3265814879432197, 0.3286373704584428, 0.3307781256610527, 0.33290031719199437, 0.3350618183292748, 0.33724110412069097, 0.3394830981161234, 0.34174484971389096, 0.34406343763610236, 0.3464179661488671, 0.34879396322521494, 0.35122186375430403, 0.3536607010386328, 0.35616086676996495, 0.35869406668463444, 0.3612883750060589, 0.3638838168709428, 0.3664734333694981, 0.3691418101195969, 0.3718410777877274, 0.3745941131591166, 0.37735138885821506, 0.3801367380875846, 0.38295616057375137, 0.38580527509316087, 0.3886277386974543, 0.39154115854338417, 0.39451710446736366, 0.39747412164357754, 0.4004568807406457, 0.40340953623181586, 0.4064482379516964, 0.40952828531521884, 0.4126039914857773, 0.4156999322777459, 0.41881842035817796, 0.42195194344894654, 0.4250682721364921, 0.4282408857154073, 0.4314273597681011, 0.4346119182730818, 0.4378256358185016, 0.44107050279746995, 0.4443018088975622, 0.44754305625773555, 0.4507512259175103, 0.45401424265904444, 0.4572826240969051, 0.46055282780278417, 0.46382538139521307, 0.46712489845347777, 0.47039578736569465, 0.4736634868027273, 0.47693459804549, 0.4802032940938914, 0.483421306292811, 0.4866869685961209, 0.4899540530868056, 0.49319892138390187, 0.49643305229320844, 0.49966522270746117, 0.5028728966523639, 0.5060722400281643, 0.5092498867220215, 0.5124110788745875, 0.5155124537542218, 0.5186416233269511, 0.5217413183440465, 0.5248236960898293, 0.527880181747112, 0.530941497925773, 0.5339386296723475, 0.536864281137018, 0.5398100038689199, 0.5427262755549872, 0.5456039650756404, 0.5484463214290148, 0.5512977432400654, 0.5540599010374446, 0.5567592275339761, 0.5594499029149533, 0.5620992432411299, 0.5647277511196497, 0.5672875150108366, 0.5697636561450719, 0.5722384083622448, 0.5746636885065137, 0.5770395967779094, 0.5793623155322877, 0.5816227810400467, 0.5838397619832287, 0.5860009930710329, 0.5881241383804556, 0.5901682120827028, 0.5921374172339151, 0.5940664081770477, 0.5959339989127777, 0.5977866496067137, 0.5995222566046834, 0.6011528301887525, 0.6027687024718706, 0.6043175029621842, 0.6057945357377289, 0.6072068473741051, 0.6085997328058912, 0.6098646237661184, 0.6110605596044527, 0.6121331464633655, 0.6131942253967874, 0.6142267296133933, 0.6151303160250888, 0.615959826740226, 0.6167161547770672, 0.6173943869572146, 0.6179521038047892, 0.6184815492764552, 0.6189301877964574, 0.6193151554485753, 0.6195988577331097, 0.6198197759062192, 0.6199388662691097, 0.6199771191834748, 0.6199395954592855, 0.6198138125180015, 0.6196103355432894, 0.6193193934956042, 0.6189457513449474, 0.6184915151107002, 0.6179510252889318, 0.6172956868603598, 0.616591722487552, 0.6158019540151497, 0.6149514873011066, 0.6139872497505727, 0.6129370740726757, 0.6118049002600007, 0.6105885084000081, 0.6092842064254171, 0.607900074937936, 0.6064255699762172, 0.6048742051084046, 0.6032388408404179, 0.6014866795160781, 0.5996885636104671, 0.5978132102707749, 0.5958453652070961, 0.5937946011160855, 0.5916828186466697, 0.5894654645336037, 0.5871320816605736, 0.5847603021035386, 0.5823077926581238, 0.5797760628296985, 0.5771646695423261, 0.574485873878442, 0.5717179673169637, 0.568874426384443, 0.5659642139123389, 0.5629709050388857, 0.5599049992157695, 0.5567673452400063, 0.5535588277553971, 0.5502578567088268, 0.5469132532207069, 0.5435100167636402, 0.5400267477624632, 0.5364772312715254, 0.5328713629520874, 0.5291916943695036, 0.5254122515847348, 0.5216139567633645, 0.5177536224679024, 0.5138796570200669, 0.5098938456061332, 0.5058150068949283, 0.5017253734483403, 0.4975810140723215, 0.4934159694928439, 0.4891626308291801, 0.4848109636648649, 0.48046862106207533, 0.4760777728645331, 0.47163955830913395, 0.4671570575506879, 0.46264377600273543, 0.45807485669976356, 0.4534668162709188, 0.4488306560077357, 0.4441480625009084, 0.4394280154125219, 0.43468006612163534, 0.42990137027471226, 0.42510794930624957, 0.42027087493808946, 0.41540694350078333, 0.4105217052256772, 0.4056145285436689, 0.4006795351058841, 0.3957343246205413, 0.39074855031018074, 0.38577314574053406, 0.3807824961485737, 0.3757666568371611, 0.37075280767186203, 0.3657494336970397, 0.3607146370549672, 0.35567477172862094, 0.3506403538638151, 0.3455945287031989, 0.3405143896611363, 0.3354760786349456, 0.3304398755371783, 0.3253952474371137, 0.32037072622433915, 0.3153490547298903, 0.31034151982330105, 0.3053448847695404, 0.3003535829724574, 0.2953854668394283, 0.2904635363803521, 0.2855258550079515, 0.2806097600052302, 0.2756968078231865, 0.2708311057135247, 0.26596991015545995, 0.2611588037724299, 0.2563750615209846, 0.2516542624145264, 0.24692637318425867, 0.242234919933052, 0.23757732080886224, 0.23295719427345743, 0.22838279529627784, 0.22384086730774483, 0.2193146423195371, 0.21486125833037706, 0.21045094801865935, 0.20606456958832758, 0.20174745730498675, 0.19746600217444626, 0.19324436114836416, 0.18907146289497131, 0.18495884426569428, 0.18088670330100773, 0.17686703481134355, 0.17290377737973375, 0.16899668918473643, 0.16514635095679972, 0.1613552570784899, 0.15763754889131268, 0.1539650652693733, 0.1503551252019342, 0.14681863599288977, 0.143335202873798, 0.13987499229683667, 0.1365291671090968, 0.13324817869510724, 0.13003183297110033, 0.12688378374484127, 0.12379410824813476, 0.12078363919232475, 0.11784211759484844, 0.11498728003608726, 0.11218401964319165, 0.10945428589342945, 0.10679596210755472, 0.10421103271874, 0.10169120272131595, 0.09925551063029256, 0.09688586473501845, 0.09459997456970923, 0.09238860859317718, 0.09028843697043501, 0.08822269619084273, 0.08622957733632525, 0.08431968574566193, 0.08248706539284555, 0.08068605910820809, 0.07901369866768372, 0.07741220348826444, 0.07588984607499911, 0.07444866909128944, 0.0730755679141566, 0.07177806268118417, 0.07058492937857519, 0.06943496550632665, 0.06836396963628011, 0.06736758172190226, 0.06644763045789577, 0.06556242315542775, 0.06479927162260915, 0.06415580666421583, 0.06353215515400396, 0.06298355997103365, 0.06249623959917368, 0.06209745582876638, 0.06175037486696324, 0.06149829515304625, 0.06131620901815028, 0.061206774711218825, 0.06116282793856145, 0.06118875424911363, 0.06128126313274785, 0.06144116316912067, 0.0616833684980824, 0.06197388596285849, 0.06231290711974208, 0.06273671672827542, 0.06322365032116364, 0.06377162127845996, 0.06438241857143838, 0.0650198950873653, 0.06575492546771682, 0.06654662406796721, 0.06742679009056236, 0.06832550541706559, 0.06924661919626784, 0.07026077937342728, 0.07132688759880211, 0.07244965643571531, 0.0736161539735684, 0.0748232691941231, 0.0760885164270447, 0.07740040909244023, 0.07879724397756689, 0.08019412140657417, 0.08164020867968778, 0.08312601118573455, 0.08465445880003693, 0.0861896331092141, 0.0878031464034687, 0.08943844171401129, 0.0911248782901544, 0.09284420031550354, 0.09459775096008946, 0.09637901705840943, 0.09821473962348944, 0.10005045605607225, 0.10191444140616757, 0.10377265624109776, 0.10569272143201518, 0.10765530704278962, 0.1096152886180823, 0.11159579326737169, 0.11358097575678049, 0.11559995314579678, 0.11765363848174548, 0.11969946667189858, 0.12175900074817833, 0.12380070188432414, 0.12588687729490103, 0.12797615378512545, 0.13007658716376014, 0.13218173084332668, 0.13428408055189633, 0.13639566333682207, 0.1385134286648697, 0.140624164711999, 0.14273326574232648, 0.14483316084786613, 0.14693582429274366, 0.1490819353690321, 0.15116518152156072, 0.1532427012497702, 0.15527467755457272, 0.15734059215803484, 0.15942252490109618, 0.16145808684286755, 0.1634800696854343, 0.16545201049942362, 0.1674469567602562, 0.16943462955890118, 0.17138737503792226, 0.17331891776626573, 0.17524810206990352, 0.17713123024443986, 0.17894393367824066, 0.1807846547827221, 0.18259669429372702, 0.18441111216805278, 0.18615925656301033, 0.1878911196332606, 0.18957766849817656, 0.19123335029294805, 0.1928107375794879, 0.1944071078439802, 0.1959791755764658, 0.19749968667707507, 0.19898276029787434, 0.20043262441213475, 0.2018378791377713, 0.203186182135411, 0.20451398706973853, 0.20579983516557232, 0.20703375492926474, 0.20823510333163991, 0.20942910059045186, 0.210536804561428, 0.21160134947684808, 0.2126063200129715, 0.21358421795247293, 0.2145396229556115, 0.21542148231366948, 0.21625739288613852, 0.21703230703134044, 0.21777619014902974, 0.2184570865422919, 0.2191051722838109, 0.219703065960527, 0.22026742171088462, 0.22076212751261537, 0.2211944474008611, 0.22159066154712168, 0.22193570550915265, 0.22224382106828008, 0.22248430993124274, 0.22264844858078983, 0.22279056543094344, 0.22288019627590167, 0.22289992905462497, 0.22288709955640829, 0.22283237753470325, 0.22271210306116065, 0.22253985663192982, 0.22234770829500297, 0.22206804271383693, 0.22169563735900383, 0.22132220711092734, 0.22089675196353978, 0.22041906125727817, 0.2198908812670168, 0.21930689121842373, 0.21867816019413353, 0.2179992122689536, 0.2172842923847162, 0.2165046433283212, 0.21570954899147604, 0.21483026976545586, 0.21390568099242768, 0.21290658252485203, 0.211895711026857, 0.2108229791125426, 0.2097222112846549, 0.20857552357750053, 0.2073974174173761, 0.2061593887968265, 0.2048922127978155, 0.2035672839827468, 0.2022015361676678, 0.2007630304358105, 0.1993215157059275, 0.19784480930472736, 0.19632187593215206, 0.19476029748971188, 0.1931697071522161, 0.1915323741071126, 0.18988955307766606, 0.18817824749154066, 0.1864347906218012, 0.18462040433186275, 0.18281951356658277, 0.18102750287063718, 0.17915767234132518, 0.1772598751782574, 0.17531419324275618, 0.17336525904732417, 0.17135632240071408, 0.16935884233735143, 0.16733462746019162, 0.16531246333311583, 0.1632350948740015, 0.16115566632638587, 0.1590339439982118, 0.15689384424760133, 0.15473621411649538, 0.15256192805000776, 0.15037125999654907, 0.14816646112288637, 0.14594773355395807, 0.14370916361003938, 0.1414663566164455, 0.13918090756530804, 0.1369203566866728, 0.13468756196977313, 0.13240140252008373, 0.1301090084420344, 0.12780507302658628, 0.12550385145150728, 0.12316703002441934, 0.12086344834873168, 0.1185564254801352, 0.11628288858451737, 0.113968302863099, 0.1116435330812858, 0.10933607935461397, 0.10703206951647597, 0.10469438518039907, 0.1024051491208979, 0.1001271421341168, 0.09784704435477279, 0.09557424836296681, 0.09331491614234057, 0.0910595365081702, 0.08879698555889018, 0.08656684557607354, 0.08434867283061578, 0.08218110702585764, 0.07998545429837205, 0.07778149004960608, 0.07562443824018075, 0.07348469639234301, 0.07140383071120687, 0.06929631469769328, 0.06720733493096091, 0.06514539520061977, 0.06310660369983385, 0.061049656881250844, 0.059064237653800804, 0.05709453028340035, 0.0551561046763408, 0.05324173040293332, 0.05139422105949064, 0.04952536842838296, 0.04765428522427643, 0.04584791129764833, 0.04406973855200239, 0.0423017253820605, 0.04058444582362906, 0.038930137345924515, 0.03726777738912492, 0.035638024976993386, 0.03403566659802321, 0.03247307446627265, 0.030918353371797536, 0.029426448388964733, 0.02796745635005047, 0.02654948248963298, 0.02515712971887016, 0.023834178617901356, 0.022507917720059403, 0.0212194034092916, 0.01996684236201015, 0.018754312346380374, 0.01757718673728928, 0.01644089340418625, 0.015342581539037808, 0.014252985668537539, 0.013234711955504873, 0.012234352974015972, 0.011292126476520985, 0.010386137162970226, 0.009521785904959902, 0.008688777690860237, 0.007933334631597287, 0.007170559864435168, 0.006447933772320389, 0.005769628994582802, 0.0051261363886162025, 0.004519304316603203, 0.003955543225046451, 0.0034309198418362814, 0.002933967728076101, 0.002488403306982176, 0.0020519306039837103, 0.001685571237643364, 0.001355150361395053, 0.001084478643536892, 0.0008230320803014615, 0.000575729562152034, 0.00039148902193019314, 0.00024265698855463754, 0.00018788472259996736, 0.00010202384614690514, 3.7319997692836225e-06, 0.0, 3.0251671313101295e-05, 0.00014675745457903407, 0.0002375447265199139, 0.0003118875252466452, 0.00048070870606686984, 0.0006811566214165224, 0.0009310689192083379, 0.0011915574278516556, 0.001492458628419514, 0.0018146215398099645, 0.0021678521215829894, 0.0025946685862739604, 0.0030027003851392634, 0.003450468424023575, 0.003919710353550549, 0.004419101786496703, 0.004954554157980706, 0.005510514549523643, 0.0060710890283386465, 0.0066845563548195664, 0.007322673932712809, 0.008017913144731182, 0.008699138288857787, 0.00939174369843076, 0.010122720740792011, 0.01087564327825162, 0.011664754037353056, 0.012457390146304056, 0.013288689078864727, 0.014119237761510244, 0.014969647457523017, 0.015855216719752433, 0.016740451664539083, 0.01766119252231269, 0.018579214069220286, 0.019514265029227602, 0.020522811405572453, 0.021481518534682532, 0.022486211882049006, 0.023474341877220136, 0.024478628528340506, 0.025501382526316414, 0.026533289266913607, 0.02757879250019539, 0.02863404330442508, 0.029699409679121012, 0.030793224929141046, 0.031873284830594366, 0.032990971269850025, 0.0340827591193875, 0.03518243360858663, 0.036319487521675825, 0.037427705092118305, 0.03856421181012991, 0.039681298966764825, 0.040803763825907495, 0.04195856548872645, 0.04308478647135526, 0.04422720634257275, 0.04535808185660284, 0.04649114662743499, 0.047697863858017484, 0.048823018658348934, 0.049962741774746425, 0.05109169172170578, 0.052221907587468724, 0.05335777974251394, 0.054486227178941346, 0.055621029243108286, 0.05674395052745206, 0.05786374767874951, 0.05903023183821491, 0.060134951603341494, 0.06122086672004347, 0.062321531031060834, 0.06341681424737555, 0.06456294238274676, 0.06563831951086845, 0.06670282127438325, 0.06777014120040567, 0.0688313234335369, 0.06988069806563957, 0.07092831674020163, 0.07203278199737226, 0.07305540953039892, 0.07407275135638856, 0.07504709436835609, 0.07605617408340253, 0.07709701962740179, 0.0780816491402457, 0.07905868183382593, 0.08001075984832551, 0.08097338442334084, 0.0819337653063575, 0.08287581656668093, 0.08380832081059818, 0.08476367800280762, 0.08567267395497301, 0.08656184159070802, 0.0874561788751883, 0.08834143509489602, 0.08926508310184983, 0.09012606430832071, 0.09093871139096367, 0.09179179074108491, 0.0926355213076493, 0.0934794514870683, 0.09430382973371794, 0.09515872943305126, 0.09596187391060242, 0.0967274066939233, 0.09752304121721958, 0.09831103261804652, 0.0991154216997293, 0.09988598427523931, 0.10062300214266671, 0.10138645666319912, 0.10214326309227653, 0.10289512554326864, 0.10363984509300286, 0.10442001098389868, 0.10514966225635247, 0.10587733458236973, 0.10656816681050471, 0.10729682101556975, 0.10801088248029063, 0.10873485544703548, 0.10945600428998163, 0.11020626097313069, 0.11091980514667076, 0.11161300335180648, 0.11233146112248651, 0.1130504639413438, 0.11376875855220113, 0.11449095895718531, 0.11520797156693993, 0.11593639813847467, 0.11666801343841314, 0.11738414397484412, 0.11812671283761637, 0.11887099721950084, 0.11962316861923078, 0.12038110037044844, 0.12113749556734969, 0.12191045135555235, 0.12268802354920097, 0.12347770515780199, 0.12427662250033114, 0.1250918580040793, 0.12591092526861575, 0.1267745254460068, 0.12761424511584443, 0.12846925417702892, 0.12931937042627412, 0.130208950388339, 0.13111409664905035, 0.13203550117877472, 0.13297385553108, 0.13389233391637884, 0.13487140363619954, 0.13589302459601024, 0.13690367207179324, 0.13793461350655675, 0.13898343181072823, 0.14005747753454142, 0.14111060498310307, 0.14223527203100242, 0.1433811624431985, 0.14457120275446186, 0.1457598458417264, 0.14694264936029636, 0.14818681585856835, 0.1494560767663396, 0.1507863843957371, 0.15210416905066562, 0.15342854851493287, 0.15480924185112988, 0.1562194109514708, 0.15763537362696076, 0.15910966191898815, 0.160606586401753, 0.16214292634645053, 0.1637105854905842, 0.1653416215763655, 0.1669702997135416, 0.16864117137254792, 0.1703400204837813, 0.1720753837302633, 0.17383697180076815, 0.17564772779326493, 0.17745540096577178, 0.17934550641951877, 0.1812711250130389, 0.18322546415469484, 0.18522513471452634, 0.18725874098800172, 0.1893335470097197, 0.19144641893851133, 0.19364416688604671, 0.19582888969311107, 0.19800947942907307, 0.20028435806173917, 0.2025988438733269, 0.2049839873497613, 0.20737500465089478, 0.20977656427904068, 0.21225651672901724, 0.21477718419583175, 0.21734760211248375, 0.21994939659735632, 0.222571236987149, 0.22525975485410782, 0.22798913868775383, 0.230795873514131, 0.23360301351949805, 0.23645294837358616, 0.23934680264212485, 0.2422836286752647, 0.2452625933280056, 0.2482848116458427, 0.25130992894821497, 0.2544214842274279, 0.2575726552754784, 0.2607916460563736, 0.26401863785152013, 0.2672887456979054, 0.27059767294458276, 0.2739473141972998, 0.27733606383388737, 0.28076621120970324, 0.28420337760745523, 0.2877163118887424, 0.2912661546100443, 0.29487712584782744, 0.2984971539143664, 0.3021416813024651, 0.30583812443599573, 0.30957043136862217, 0.31329627145330635, 0.317104260392073, 0.3209393547367301, 0.3248119991431863, 0.328716015494859, 0.33265861932939855, 0.33662350173291705, 0.34063975575322475, 0.344662972958917, 0.34871697871991353, 0.3527734772521737, 0.3568901697696944, 0.3610224463045257, 0.36519362352856943, 0.3693897306615545, 0.37360577865824124, 0.37785041285882426, 0.38212587773371914, 0.3864141725520407, 0.3907241503027426, 0.395057446617251, 0.39940784818219277, 0.4037417495585859, 0.4081339710809887, 0.41254137591430917, 0.4170038843630999, 0.42143429414268335, 0.42585670616448745, 0.43031911758554403, 0.4347929698652796, 0.43923410367335614, 0.4437332227766975, 0.448267006567497, 0.4527735555114687, 0.4572860838993564, 0.4617678634088161, 0.46629357208881755, 0.47081868089233914, 0.47534498564138, 0.47987009136288616, 0.4843899179811335, 0.48891011573349014, 0.49341969707368283, 0.4979309100483348, 0.5024352772031707, 0.5069073484362707, 0.5113978805409564, 0.5159094216834385, 0.5203718723897356, 0.5248226759244239, 0.5292348849324694, 0.5336616977111235, 0.5380333355966936, 0.5424297885793613, 0.5468048073889908, 0.5511456503801687, 0.5554766602515555, 0.5597803145976641, 0.5640610093195777, 0.5683148119740022, 0.5725769884373417, 0.576769378226046, 0.5808868929742684, 0.5850278515916569, 0.5891354035702712, 0.593209793115036, 0.5972473185450727, 0.6012733966295398, 0.605233733322132, 0.6091567762003971, 0.6129911557557619, 0.6168419062332919, 0.62063792092028, 0.6244008961578227, 0.6281173185346008, 0.6318138122606392, 0.6354309500837713, 0.6389671727094606, 0.6424917491543242, 0.6459542912986577, 0.6493751540609298, 0.6527415645427979, 0.6560451393035662, 0.6593009294077433, 0.6624922597939579, 0.6656328776744423, 0.6687137522101343, 0.671782174123713, 0.6747348903431999, 0.6775841826600747, 0.6804218443088254, 0.6831948784699761, 0.6859355820873172, 0.6885726397286261, 0.6911100054131035, 0.6936196994281251, 0.6960599830260861, 0.6984275991171941, 0.7007271127676429, 0.7029404365014532, 0.705097430696423, 0.70718037461243, 0.7092030606228001, 0.7111343153371817, 0.7129767974281386, 0.7147590538772693, 0.716464132669473, 0.7180802258812226, 0.7196307220607521, 0.721126788622258, 0.7225148098808585, 0.7238239353454017, 0.7250597951619708, 0.726208504073773, 0.727286279998833, 0.7282726062360398, 0.7291780413405466, 0.7299926366142846, 0.7307358142372493, 0.7313985076093822, 0.7319750417320456, 0.7324680514395132, 0.7328572180350599, 0.7331848148994059, 0.7334625816324329, 0.7336146856044024, 0.733683243909662, 0.733627311892039, 0.7335330654808676, 0.7333910098296887, 0.7331188840748831, 0.7327627139908639, 0.7323242528169194, 0.731799437686476, 0.7311898342819766, 0.7304967747351422, 0.7297195672833418, 0.7288170395258821, 0.7278770833788916, 0.7268842130477732, 0.7257685056212281, 0.7245696938114555, 0.7232536627040911, 0.7218938513064648, 0.7204368037589081, 0.7189110949657715, 0.7173018476109295, 0.7156585903109891, 0.7138783596582302, 0.7119895581201816, 0.7100563524300509, 0.7080436432586023, 0.7059414815283926, 0.7037731656340348, 0.7015768579029157, 0.6992470010429758, 0.6968435684282802, 0.6943163378564122, 0.691773493781212, 0.6891681897918208, 0.6864748356701541, 0.6837092218945818, 0.6808666241611538, 0.6779599284739485, 0.6749690346645285, 0.6719255223911604, 0.6688133949767031, 0.6656425447324597, 0.6623954943632165, 0.6590862353445103, 0.6557105199580813, 0.6522723897902772, 0.6488060621811081, 0.645242161688794, 0.641610359654759, 0.6379341215904542, 0.6342017893081571, 0.6304262875578474, 0.6265834312693862, 0.6226439837515633, 0.6187033908640012, 0.6147102356014978, 0.6106628676754053, 0.6065694011475958, 0.6024701156753892, 0.5982760737460061, 0.5940390251974987, 0.5897375805186569, 0.5854207640649768, 0.5810312597945145, 0.5766382836910705, 0.5722055370657396, 0.5677615821165325, 0.5632508950693067, 0.5586768852494677, 0.5541047654391213, 0.5495004431339114, 0.5448924552410361, 0.5402252561267804, 0.5355297485593415, 0.5308126258654117, 0.5260723164409612, 0.521323993006887, 0.5165398274916305, 0.5117181334852648, 0.5069014539388362, 0.5020682098639258, 0.497203659599948, 0.4923438839874012, 0.4874699132182429, 0.4825860382560885, 0.47769239079725506, 0.47277931667238426, 0.46787233013793095, 0.4629946998130662, 0.458073602985313, 0.4531520561816925, 0.44819697044520884, 0.44328278718525466, 0.43837140976209826, 0.43346178402472657, 0.4285569651106336, 0.42364098426988644, 0.41875258546244404, 0.41391570044458487, 0.4090401957937031, 0.40417866397477187, 0.3993429238995647, 0.3945115706996993, 0.3896752452844824, 0.3848842692592471, 0.3801124233028977, 0.37537229899186386, 0.3706412850047868, 0.36593462318567654, 0.361252185022943, 0.35659590673157765, 0.3519157012990755, 0.3473217766551032, 0.34277780606282215, 0.33823616761937286, 0.3337257325741615, 0.32925464763734313, 0.32480952450678696, 0.3203684402011536, 0.31599899817407406, 0.3116653275785953, 0.30735562752024603, 0.3030990967196926, 0.2988858105396497, 0.2947077460110897, 0.2905713052336874, 0.2865182676116856, 0.28246329716325236, 0.2784542510118607, 0.27449446427569113, 0.27058313439562703, 0.26668780615181936, 0.2628796288573616, 0.25909632473958205, 0.25538934966678545, 0.25173149238853887, 0.2481700602253361, 0.24460763462974486, 0.2410998470519119, 0.23764718314902705, 0.2342501218474329, 0.23085973654699754, 0.22758152752092353, 0.2243744112614254, 0.22120332117137942, 0.21808899160919887, 0.21504325199428606, 0.21204270413437415, 0.20910803280094084, 0.20622498204321585, 0.20340203123777137, 0.20061318474660048, 0.19791453516776883, 0.19526525236003436, 0.19268703274619886, 0.19016029354654732, 0.18770273309600044, 0.1853051000722669, 0.18301029079275066, 0.18072821365239314, 0.1784681520232616, 0.17631774043333265, 0.1742280520347859, 0.17222867627167662, 0.17025727372437463, 0.16830931142582542, 0.16646838159420854, 0.16468771382426292, 0.1629661743405979, 0.16130648550287738, 0.15970155344092823, 0.15816331946866538, 0.15668505700547633, 0.155280451815756, 0.15392013475420724, 0.15260582984133436, 0.15136780372767733, 0.15018870895765246, 0.1490876790447294, 0.14802320691333978, 0.14699037696905298, 0.14604717614982252, 0.14516053948427202, 0.14436265860744898, 0.14358402888902935, 0.14282768143091054, 0.1421673730416698, 0.14156099145863726, 0.14104937889967858, 0.14054431491232378, 0.14005470660696578, 0.1396634507687324, 0.13932310252682156, 0.1390249953476901, 0.13878584141395348, 0.1385935465640215, 0.13845152831818225, 0.138356959824699, 0.1383310976982841, 0.1383267429450915, 0.13835595056093883, 0.13844574279437477, 0.13857968607870538, 0.1387475951608824, 0.13896858887864133, 0.13922698038592332, 0.13952996181418453, 0.1398722853901799, 0.140281909237447, 0.1406968405424306, 0.1411314806905479, 0.1416246112551408, 0.14215295098890265, 0.14274244685277687, 0.14333497302255005, 0.14395260757956205, 0.14461277518644855, 0.14530395107321237, 0.14598377971541696, 0.1467389336800235, 0.1475226588683302, 0.14832756429534633, 0.14915656608420633, 0.15000507185592268, 0.15088019053246793, 0.15179910159021173, 0.15271305238011873, 0.15364775221240617, 0.15457645237743642, 0.1555525587098091, 0.1565796656202802, 0.15758242002792408, 0.1586013143048922, 0.15962575354209527, 0.16067448513899493, 0.16174649357916243, 0.16281675884911978, 0.16389751043296627, 0.16495194337723257, 0.166054699912935, 0.16716562994865164, 0.16827725906050575, 0.16939243795855585, 0.17053904071408554, 0.17165500469554373, 0.1727434208055601, 0.17386696278396463, 0.17498901328262778, 0.1761130879563739, 0.17722900947208411, 0.178320442935584, 0.17943034910408734, 0.18053341148245364, 0.18167265285827816, 0.18275423653278322, 0.18377599684470022, 0.1848498117676268, 0.1859117256320021, 0.18701049232837877, 0.18804040800370628, 0.18905920655933656, 0.190065796283335, 0.1910591242888694, 0.19200628529695707, 0.19297410887455008, 0.1939245618099722, 0.1948556551416258, 0.19576746769815934, 0.19665058052349607, 0.19752294614665117, 0.19837793182661187, 0.19920564879272382, 0.20001069007888708, 0.2007824335716092, 0.2015415422903733, 0.20231372470978543, 0.20301736131318515, 0.20369704523818524, 0.20431319316668858, 0.2049474679478632, 0.20556392164796605, 0.20613956791440607, 0.20668659242473145, 0.20723078730915775, 0.20771585212143912, 0.20816177066186975, 0.20859050757509823, 0.20898889527509373, 0.20933457673807457, 0.20967364351718265, 0.20998479920853655, 0.2102571900728063, 0.2104965182749761, 0.21069690793646123, 0.21087008883066846, 0.21102668959202758, 0.21112931510777072, 0.21119851204008194, 0.21123274136508038, 0.21123440204402164, 0.21115301049618213, 0.21109208065035004, 0.21099376525108232, 0.21085830861948923, 0.21068592995604743, 0.2104824551343414, 0.2102360990290166, 0.20995368462282163, 0.20966158655547973, 0.20930407244263727, 0.20890043050137944, 0.2084758277281953, 0.20801615003108206, 0.20753083706680522, 0.20700002218005453, 0.20640425311684274, 0.20580871830850073, 0.20517724980599858, 0.20455958133897253, 0.20385100473370174, 0.2030614920435911, 0.20229468451614516, 0.20149288781063598, 0.20067340468041253, 0.199800751046046, 0.19890593431025516, 0.19796662755107095, 0.19699569537630515, 0.19598898719939256, 0.19495606460116902, 0.1938839037678515, 0.1927901310832204, 0.19166549509412018, 0.190529825081857, 0.18934235890735227, 0.18812961192365735, 0.18688525759215188, 0.18561334474796604, 0.18431422822512006, 0.18298829250863138, 0.18161156382804772, 0.18023633519171772, 0.17883423072691892, 0.17741781103652599, 0.17596249023377272, 0.17449424694157656, 0.17298972540798427, 0.1714628238256188, 0.1699034210112516, 0.1683346503571702, 0.16675387038652903, 0.16514179020780484, 0.1635101609937604, 0.16182455742914129, 0.16016004348593385, 0.15848833580760574, 0.15678375525108137, 0.15509512020116376, 0.15335272957229712, 0.15159653579243568, 0.14980451978669937, 0.14802506722202027, 0.1462246004223262, 0.14441982415944254, 0.1426026131369831, 0.1407956589198801, 0.13895322284589776, 0.13710510131279963, 0.13524525292996312, 0.1333779966165074, 0.13148205762769444, 0.12960459758795653, 0.127729128536129, 0.12583786145316342, 0.12394196221192419, 0.12200964861063442, 0.12011079125166894, 0.11820704269361207, 0.11630071948711096, 0.11439203376785298, 0.11249816690240193, 0.11058544242401105, 0.10865394208886708, 0.10674692261994112, 0.10484142346124867, 0.10298644575352255, 0.10108043641744745, 0.09915987461331771, 0.09727035984895949, 0.09538717061029063, 0.09349528831228948, 0.09162856605838879, 0.08979664165191281, 0.0879417467901556, 0.08609713312863884, 0.08421825881481526, 0.08240134547627917, 0.08060803353545395, 0.07880860857928675, 0.07702090470221631, 0.0752543506340806, 0.07349098664418505, 0.07174180072369514, 0.07000734036493726, 0.06828814441528167, 0.0665872440100216, 0.06489984166952906, 0.06320064395388995, 0.061551295328009736, 0.05991825668480304, 0.058345995703683866, 0.056742100422832904, 0.05515395566293089, 0.053592441368599746, 0.05205189859179445, 0.05052388115186748, 0.049027315200966495, 0.04753215335454891, 0.04608132786504388, 0.04465155179607492, 0.04322896921450361, 0.041844656262189216, 0.04052334045986134, 0.03917782109181766, 0.03785741419975823, 0.03653600215614492, 0.03526957870070737, 0.03404787562195276, 0.0328273824167579, 0.03163284165535634, 0.03044439549549747, 0.02930473997037997, 0.028170348626717745, 0.027084069281987682, 0.026022514255735152, 0.025020484042365197, 0.024005216118165747, 0.023005824598835833, 0.02204758357566598, 0.02111645396979361, 0.020203785102090158, 0.019328279663482554, 0.018497791853472716, 0.01767389155860355, 0.016878127927752336, 0.01611043883342305, 0.015370759164033486, 0.01462838120380683, 0.01394838247268967, 0.013294451593963816, 0.012693636386939237, 0.01208888680301916, 0.011470818542518845, 0.010927026275447513, 0.010408543631456385