0.047308511084021586, 0.04693413616160226, 0.04661335708348892, 0.04638325715267893, 0.04605755575928416, 0.04573915470636238, 0.04535526476469052, 0.0450574778400117, 0.044796691445608876, 0.04449515215359419, 0.04419596195581215, 0.04391703309324722, 0.04361925812911109, 0.04329269751917649, 0.04300357263210468, 0.042714600325998296, 0.042440158317836464, 0.042149791784269454, 0.041844877034518196, 0.04155864752920766, 0.041272577588196725, 0.040975056138443176, 0.04069116731619369, 0.04040585473135671, 0.04012211196691973, 0.039838604168466116, 0.03958422604390243, 0.03929816251745568, 0.0389793096506741, 0.03870247547110736, 0.03842597526490813, 0.03810311335724539, 0.037833947585102626, 0.03758664198920354, 0.03731184810034936, 0.03703782622679806, 0.03674005348579311, 0.03647144242841606, 0.036273310576627804, 0.03599628765254239, 0.03572397696534787, 0.03538698258815658, 0.035132028246993775, 0.03493975888224372, 0.03467743498312528, 0.03441940180996699, 0.034185000442770605, 0.033932442738355946, 0.03364426697028642, 0.03340613521064702, 0.033169979346135456, 0.032921554417658705, 0.032691456395539345, 0.032462807758807555, 0.03223580402334483, 0.03201062116980042, 0.03176655237508051, 0.031548108685613384, 0.031343784835586884, 0.031126133829134237, 0.030910828367275957, 0.030695377949407295, 0.030485433528474295, 0.030311910450296475, 0.03010281477561636, 0.02989833616941361, 0.0296878537785497, 0.02949338904491977, 0.029260734769578443, 0.029078593258812832, 0.02889758979572425, 0.028746731312116844, 0.02856529406217681, 0.028360071729685195, 0.028189291621678998, 0.02802056587120734, 0.02790497415165048, 0.027734565032454594, 0.02749793344043667, 0.027347343431655537, 0.02719775757085898, 0.027089989454754812, 0.02693841828510215, 0.02679376227573235, 0.02665041835193132, 0.026511422125265246, 0.02640018509291193, 0.026266740708970098, 0.026117939546177717, 0.025997926951634345, 0.025881836425892053, 0.02573576551662541, 0.025631820891287096, 0.025578169190328747, 0.02547249581051193, 0.0253721170036086, 0.02528469848793211, 0.02519346634963333, 0.025050179119436865, 0.024976690744214287, 0.024905011530646212, 0.024883739808849257, 0.024810583132443283, 0.02473505188230906, 0.024673640753652838, 0.024616973249326716, 0.024540229015074185, 0.02449606080961658, 0.024430362587103047, 0.024395999264099796, 0.02436382777739732, 0.024399390851735595, 0.024364334929794576, 0.02426300005095886, 0.024250379202054174, 0.024239849770511156, 0.02422655084731398, 0.02422188485531648, 0.024282548299210588, 0.024275710245422785, 0.024275630008174315, 0.024212890257642856, 0.024234191505009203, 0.024273206847013014, 0.02429699869904337, 0.024324365575061624, 0.02433847981647918, 0.024375494073988268, 0.024489776147629996, 0.0245234652209116, 0.024564633064524444, 0.024611518483775758, 0.02466648542868875, 0.024693720274086995, 0.024765006181276982, 0.024839965877653632, 0.02488732329898762, 0.024973646626768622, 0.025118009086786252, 0.025201425893176064, 0.02529042871612939, 0.0253873616383706, 0.025486440781785153, 0.02553967727083756, 0.02565500520655712, 0.025772088053710628, 0.02594332376560631, 0.02605799231781077, 0.026146652367994447, 0.02627558017359931, 0.026407514326998466, 0.026575082259735826, 0.026708973999575617, 0.026850358270131176, 0.026993425734068967, 0.027141022404409222, 0.02729421554883935, 0.02745001800552293, 0.027582392422242055, 0.027749385984632717, 0.027918444241926098, 0.02806224734719255, 0.028239080492309037, 0.028466151765099354, 0.028638332130152357, 0.02881443076274949, 0.02895379558189397, 0.02914218225806271, 0.029342024043269223, 0.029531282541127208, 0.029722412686472105, 0.029940200274433913, 0.030131953283534733, 0.030278705607147273, 0.03048283344312302, 0.030687066199662626, 0.030898114075780025, 0.031102265421852043, 0.03137516358504147, 0.03157264970638003, 0.03177493424312401, 0.03192670197227156, 0.03214392762350796, 0.032370523446403156, 0.03258711420700803, 0.03280451409281619, 0.03302134950228288, 0.03324031909804054, 0.03344676113377391, 0.033668333407633165, 0.03388953678237872, 0.034174293448769946, 0.034386730284769164, 0.034548935460357526, 0.03477406593335787, 0.03499840749030622, 0.035244119095270754, 0.03546403728155637, 0.03572868470735187, 0.03594355836703345, 0.0361608850645726, 0.03634229653983724, 0.03656771600206036, 0.036772415201205125, 0.03699789343421982, 0.03722092473361346, 0.037500257865811334, 0.0377111538891654, 0.037904783538513565, 0.03811951397874984, 0.038346385606128075, 0.0385574450457425, 0.03876790895352991, 0.03895401060783522, 0.03916539860665056, 0.039423627717592925, 0.03962329189139369, 0.03982295811503899, 0.03994524940494805, 0.0401533837351624, 0.04036515288225843, 0.0405614502772536, 0.04075333135016781, 0.04098397732886636, 0.04116199742966442, 0.041275781125353565, 0.041458159523096436, 0.04163485727325094, 0.04188830182049953, 0.04204401859261613, 0.04213544962441735, 0.04229796365215867, 0.04245553507402722, 0.042629126949444075, 0.042774445430397594, 0.04293577983402053, 0.04307140223664749, 0.04320431662500327, 0.04333815389086633, 0.043464337047436276, 0.04357421527973597, 0.04369527044962143, 0.04381185427401081, 0.04395516226087566, 0.044058544344918536, 0.044144574586974926, 0.04424341653592301, 0.04433780203759614, 0.044385843306606255, 0.04447613442589653, 0.0445944068241947, 0.044666005890345535, 0.044732755925604654, 0.044781491688042546, 0.044839829026087276, 0.044883112624970745, 0.04493076153892328, 0.04497198320682009, 0.04500684871533288, 0.0450354159026617, 0.04510989390313316, 0.04511939733417711, 0.045125639087083926, 0.04514126013472191, 0.04513817594189094, 0.0450558588076209, 0.04505476447741998, 0.04504511524858131, 0.04510286462126451, 0.045067457027100875, 0.04500902299213607, 0.04496876756470626, 0.04492321689750567, 0.04482006772845219, 0.04477012150203168, 0.04476766626658361, 0.044693796377635625, 0.04461512220440564, 0.044519721505735285, 0.044432392290622055, 0.04434824843113693, 0.044247859497537186, 0.04414200946274632, 0.04403844588368998, 0.04392046972832712, 0.043779030602969386, 0.04365285514177817, 0.04352027735270274, 0.043369649329539406, 0.04322601518970012, 0.043106878568252675, 0.04294586478150874, 0.042780150625792795, 0.042630503699387715, 0.042452479079914465, 0.042262869627461654, 0.042078106513292864, 0.04188876678695849, 0.04167912782861959, 0.04148241477070752, 0.04131921322057754, 0.04110644557759154, 0.04089049077205712, 0.04067636637351608, 0.0404528216401489, 0.0401815642016782, 0.03995674540871687, 0.039725835006055144, 0.039496947444330306, 0.03925371808387119, 0.039063037729554315, 0.038803075254440836, 0.03854186310406974, 0.038202173795132625, 0.0379473826997524, 0.037763258416249335, 0.03748666884686439, 0.03720904010774094, 0.03690799027808778, 0.03663049440680295, 0.03633064997813158, 0.03605014314703647, 0.035765943870145755, 0.03552135620674014, 0.03522512931754467, 0.03491536304654423, 0.03461968299869225, 0.03432259803297752, 0.03401635037729369, 0.033717660255797, 0.03344866837969061, 0.033142992984975785, 0.03283781984085049, 0.03257741314502399, 0.03226744931293499, 0.03197860849991518, 0.03167172970461357, 0.03136813354736998, 0.031027039765906442, 0.030734132459173197, 0.03052746071729121, 0.030224175803396966, 0.029926244107538042, 0.029630562119659788, 0.02934227637644604, 0.02908407062475159, 0.028800268861812178, 0.02852156502599631, 0.028250267825806884, 0.027980610319119352, 0.02774421563859992, 0.027479967642304017, 0.027221742004969525, 0.026954962973042004, 0.026709976639998752, 0.026566229186947305, 0.026318597906832986, 0.026081320470702236, 0.025812042166562337, 0.025598999934926186, 0.02544983528196966, 0.025242579987233987, 0.025045180039783864, 0.024905557125602846, 0.02472087240038085, 0.024585848969006986, 0.02441959948074126, 0.02426648921041056, 0.024138998055412534, 0.02400896128696165, 0.02394233745481326, 0.023830651618927508, 0.023733822276595463, 0.02363696038427041, 0.023570154800995988, 0.02351353431948395, 0.023472562527724526, 0.023444147903611306, 0.02352095931217802, 0.023506245769679534, 0.0234862079718656, 0.023510238697192695, 0.023550184421119908, 0.023689412337302738, 0.023750431109668336, 0.0238463325763941, 0.02394605070153819, 0.024066120330605466, 0.024240022273005535, 0.024395352125279785, 0.02454070805269119, 0.024742263611217185, 0.024962743536427193, 0.02523353526531893, 0.025488234012451608, 0.025803171853433164, 0.026095147752657775, 0.026410483932899197, 0.026755503283185243, 0.027116233303518752, 0.02749383618186834, 0.02790216573393466, 0.028333566619178383, 0.02885210442225717, 0.029322110380669533, 0.02983765417220138, 0.030359679300128138, 0.030909632477297996, 0.03149382402473553, 0.0320982672298118, 0.032760622990105785, 0.03341708409432489, 0.034096638438857296, 0.03481300698721713, 0.03555841503361491, 0.03630031949616337, 0.03710815988266027, 0.038002227173915305, 0.03885819919539648, 0.03974593941772224, 0.040699349618563106, 0.04164638410457744, 0.04262985008948605, 0.04364407587801766, 0.04469209164307325, 0.04570476909431061, 0.046829123992715896, 0.04799916644161601, 0.049182313655475145, 0.05039773322068783, 0.05168635711968871, 0.05296271359866791, 0.054284216425184204, 0.05563159462459287, 0.057015810257761604, 0.05842133103067056, 0.05988157847687429, 0.06133387786057034, 0.06287282827823569, 0.06444631443930816, 0.066044577914557, 0.06769043174483629, 0.06940081501335266, 0.07111535231486397, 0.07286855547097046, 0.07467377625562607, 0.07650358439216799, 0.07836586632721379, 0.08027743461532334, 0.08222921379792818, 0.08420318918948859, 0.08623841894568597, 0.0882770278144768, 0.09039702935262306, 0.09255558681528286, 0.09477287453332414, 0.09700785182933169, 0.09931545019204821, 0.10162941252216638, 0.10398702119231666, 0.10633871779753253, 0.10878988401581093, 0.11128845361890373, 0.11382098176439664, 0.11639555591147309, 0.11899029109139349, 0.12165258288045636, 0.12441773250548345, 0.12715578624086224, 0.12993955814474084, 0.13273233305052962, 0.13561157776176128, 0.13854177875247162, 0.14150645106496162, 0.14451497969619678, 0.14751133877045144, 0.15061480698449542, 0.15377344434867316, 0.15695721499235907, 0.1601834836151244, 0.163482468996504, 0.16679057518673693, 0.17009386247509287, 0.17349757569451765, 0.1769429803049229, 0.18046554855087715, 0.18399061790383173, 0.18751564855060165, 0.1911347567441312, 0.19479533665184073, 0.1984414901991952, 0.20219258403699458, 0.2060162912327015, 0.20984099987689514, 0.21370719706565752, 0.21760839413401697, 0.22155844247182366, 0.2255274066126954, 0.22956238678127283, 0.2336370835055929, 0.2377450333666271, 0.24190010126723122, 0.24612712591787048, 0.25035673392435975, 0.25462738149357717, 0.2589282311164866, 0.2632810531813905, 0.26767308811990465, 0.2721039891915726, 0.2765733913341947, 0.28103266150637407, 0.2855840033683608, 0.29014647013654715, 0.2947699353226804, 0.29942653689084114, 0.3041710742270313, 0.30888703272657686, 0.3136377624974416, 0.31842541790430684, 0.3232478358347992, 0.32808353805496987, 0.3329762759016809, 0.3378472863444952, 0.3428098049911227, 0.34780011919639703, 0.3528664006426177, 0.3579058922792384, 0.36296630108344996, 0.3680663636724989, 0.3731946011897148, 0.37829040678785764, 0.3834807027114687, 0.3886847676446344, 0.39392182494266886, 0.39918081683702455, 0.40447061421446023, 0.409771476933544, 0.4151042389040233, 0.42044618993293204, 0.4258090969287864, 0.4312040022264957, 0.4366052280962972, 0.44196983436331144, 0.4474162009970301, 0.45287714696985254, 0.45833398929354624, 0.4638250611138523, 0.4693530029875967, 0.4748646750802748, 0.4803888605530652, 0.4859521691732438, 0.4914955629086874, 0.49700756226520293, 0.5025786038937892, 0.508156729883702, 0.5137112309372306, 0.5193051333118384, 0.5249243491233709, 0.5305211590845091, 0.536121144081396, 0.541675187304527, 0.547284999820664, 0.5528991288717785, 0.5585031630457614, 0.5641042005091327, 0.5697054288203431, 0.5752977570813785, 0.5808641324723482, 0.5864480401906557, 0.5920238927138545, 0.5976313444093361, 0.6031836151969624, 0.608695054359774, 0.6142337725089575, 0.6197600101492751, 0.6252806569689321, 0.6307781162933596, 0.6362606616891274, 0.6417272327643618, 0.6471767611242062, 0.6526042595552647, 0.6580169668432594, 0.6634091720651322, 0.668779819045064, 0.6741278455165656, 0.6794574006672535, 0.684756321548121, 0.6899566749136433, 0.6952126329577389, 0.7004367217094475, 0.7056844936019401, 0.7108361170413694, 0.7159259542348695, 0.7210194006557964, 0.7260782952005383, 0.7310378479218826, 0.7360330237372518, 0.7410160132040702, 0.745925371885113, 0.7507945109248971, 0.7556343507407297, 0.7604190848042507, 0.7650978149988316, 0.7698054233323134, 0.7744653389702209, 0.779124009737023, 0.7836810393469524, 0.7881743649234172, 0.7926389788888736, 0.7970537774882678, 0.8013930665095875, 0.8057086041956509, 0.809923204030527, 0.8141359482221192, 0.8183596593145119, 0.8224469433153637, 0.8264790438781034, 0.8303974778000487, 0.8343231728586299, 0.8381624300814056, 0.8419673498425125, 0.8457080058314668, 0.8494152369494212, 0.8530219796719304, 0.8565151352670544, 0.8599992339472896, 0.8634148282430018, 0.8667653842686859, 0.8700420911867752, 0.8732412204452412, 0.8763788156961743, 0.8794450065638006, 0.8824926874780555, 0.8854075701807818, 0.888201413307251, 0.8909813127798016, 0.8936861175561144, 0.8962422440261295, 0.8988044173128417, 0.9013469982165406, 0.9037396679278221, 0.9060548484715367, 0.9082410665886241, 0.9104058631822755, 0.9124871921584831, 0.9144876478713464, 0.9164054713737111, 0.9182208635224602, 0.9199751546378344, 0.9217010010177168, 0.9232790163165089, 0.9247753356078062, 0.9261919140573556, 0.9275225889955087, 0.9287190050778714, 0.9298887442283902, 0.9309711337860901, 0.9319439207814743, 0.9328541480555376, 0.9336754895534658, 0.9344080068011112, 0.9350517356024739, 0.9356666789029646, 0.936125277398725, 0.9364632491321128, 0.9367549663945937, 0.9369583482778382, 0.9370615521686976, 0.9370894459487675, 0.9370398152836263, 0.9368877442929162, 0.9366471617216393, 0.936337593822953, 0.9359174337852351, 0.9353707041825332, 0.9347804756655235, 0.9341004075282346, 0.9333046986006874, 0.9324490914229302, 0.9315760571235018, 0.9305308075660541, 0.9294001868578897, 0.9281645174676875, 0.9268653417751186, 0.9254808383094654, 0.9240084543470153, 0.9224499862325566, 0.9208122310221113, 0.9190816336258962, 0.9172519024304324, 0.9153538623371281, 0.9133709083663389, 0.9113113745125001, 0.9091591521129362, 0.9068575357557083, 0.9045484566830955, 0.9021537997124871, 0.8996981338771397, 0.8971326001946757, 0.8945094520459657, 0.8917795788174673, 0.8889715426810758, 0.8860755277164023, 0.8831143620408569, 0.8800111751568683, 0.8769053988467639, 0.8737207208385829, 0.87050281412198, 0.8671586809056037, 0.8637732949683418, 0.8602809541795969, 0.8567195345796863, 0.8530048988911015, 0.8493179681214891, 0.8455918223009352, 0.8417585759043303, 0.8378581775563131, 0.8338904170115604, 0.829859160142123, 0.825813513551387, 0.8216492093273173, 0.8174259596347263, 0.8131184001471861, 0.8087827642156306, 0.8043577356004981, 0.7999109494116744, 0.7954064954108857, 0.7909057323593223, 0.7862824590109113, 0.7815567988034767, 0.7768405303386391, 0.7720728785682814, 0.7672265332336692, 0.7623638739480509, 0.7574810311064463, 0.7525185930011812, 0.7475120509757215, 0.7424209811270764, 0.7373354319425072, 0.732229540767505, 0.7270578237589779, 0.721848119302461, 0.7166500903971693, 0.7113625416029362, 0.7060243738434303, 0.7006781944978109, 0.6953019293842669, 0.6898681462666655, 0.6844391282673182, 0.6789757216415346, 0.6734933319098194, 0.6679857746207741, 0.6624350546566594, 0.6568843155602418, 0.6513732486067184, 0.645773196011433, 0.6401582809652789, 0.6344826772213901, 0.6288473689781653, 0.623246275969289, 0.6175783875760557, 0.6119023331071446, 0.6061658076448382, 0.6004836972722009, 0.5948370265095599, 0.5891359562578898, 0.5834330153835804, 0.5777138167548423, 0.5720129132516787, 0.5663235207777297, 0.5606248804458586, 0.5549307478458286, 0.5492281054871649, 0.5435487868962808, 0.53790063351788, 0.5322351780783089, 0.5265816113844046, 0.5208655256345169, 0.5152489937054634, 0.5097090181704894, 0.5041088029505101, 0.49852723805324384, 0.4928820540320758, 0.48735191894722857, 0.481920183062287, 0.4764167836061198, 0.4709391138067652, 0.465402156679752, 0.45998999251431577, 0.4545901689211783, 0.4492294043649055, 0.44389549634434394, 0.43859665847773815, 0.43332063517796565, 0.42808319003185896, 0.42287186687693945, 0.41769572634896596, 0.4125873090736876, 0.40748126096211856, 0.40240662254174303, 0.39738367258772034, 0.3924024787602641, 0.387428761239324, 0.38253830616720613, 0.37774644918806705, 0.3729351153833151, 0.36817173151681754, 0.3634556096818736, 0.3587901503446462, 0.3541079393545197, 0.34955105328310615, 0.34504149634332365, 0.34060392958029406, 0.33618955728425115, 0.33183762532947464, 0.32752675542666654, 0.3232700579207276, 0.3190942720974657, 0.31494457508608015, 0.31080417669475785, 0.3067760668690391, 0.30281922838288894, 0.2989011687413234, 0.29504112981849345, 0.2912709744345682, 0.28752468735368947, 0.2837811071782515, 0.28016525252335506, 0.27660796365351453, 0.2731399446810944, 0.2696980671609674, 0.2662962267494112, 0.2629818668434551, 0.25972905284214237, 0.2565317041004032, 0.25340408274670095, 0.25033492186713147, 0.24733290976394093, 0.24439374501410085, 0.24146818699945588, 0.23866188081334694, 0.23599078482338592, 0.23329742193396905, 0.23067019255098128, 0.22811022031377942, 0.22561455074337314, 0.22317671732823421, 0.22081315918075337, 0.21851441973826088, 0.21627774391772742, 0.21410851551282323, 0.21195000491549207, 0.20991573257531834, 0.20794227687060868, 0.20601420495797132, 0.2041649357355139, 0.20238125374881927, 0.20065220278551746, 0.1989840122056929, 0.1973857597653175, 0.195837924142352, 0.1943589595860271, 0.19293193805733322, 0.19156578398878407, 0.19026137390995604, 0.18901548101288895, 0.18786307469838764, 0.18673154326467048, 0.1856604483914077, 0.18456289398854694, 0.1836210869085799, 0.1827780860426204, 0.18193673369846652, 0.18115082427051105, 0.18038322329215026, 0.1797109337768114, 0.17912010690279132, 0.1785465742987647, 0.17802536154335985, 0.1775609493276035, 0.17714149308292343, 0.17675022361007905, 0.17643345664400056, 0.17616414034620573, 0.1759598651793598, 0.17578111076231973, 0.1756487401952994, 0.17556185293779814, 0.17551954177319104, 0.17552741326224452, 0.17557068192549796, 0.17565091546492187, 0.1757782205648645, 0.1759454434922053, 0.17609817362822794, 0.17634915564674875, 0.1765976916288135, 0.17692089412761436, 0.17727499117428122, 0.1776739749399539, 0.17808690371044172, 0.17852109661460716, 0.17899526352143852, 0.17949785913339872, 0.18006076452707193, 0.18061388477870025, 0.1812366917777047, 0.18183933614433692, 0.182470053018175, 0.18311956874791122, 0.18380311444821015, 0.18451789341661748, 0.18524599782194007, 0.1859954360546949, 0.18672580175833267, 0.18751903109410792, 0.18835762558376884, 0.18917691700509148, 0.1900114702888623, 0.19085490979934708, 0.19171718632619772, 0.19256492528523908, 0.19345252052446246, 0.194348071958957, 0.1952768229039531, 0.1961824577084814, 0.19710407841626543, 0.19802118264753077, 0.1989434902378545, 0.19980596822181884, 0.2007433855691028, 0.20170777940462667, 0.20263759021431327, 0.2035661486283202, 0.2044978052704715, 0.20542059729297593, 0.20633851515811255, 0.207253414198071, 0.20816283952820733, 0.20900460309551536, 0.20990814599030647, 0.21082879149281966, 0.21170514673275384, 0.21257069921218655, 0.21342603588910838, 0.21426765458158342, 0.2150520205345728, 0.21587266138192338, 0.21667638573037243, 0.21748626400234078, 0.21825193562715692, 0.21902936603472986, 0.21975684587387992, 0.2204675972268391, 0.2211606844098154, 0.22183520264814283, 0.22251114260053087, 0.22314329081736164, 0.22375550571414035, 0.22428684454722234, 0.22486395991209643, 0.22543591713683778, 0.2259580119782135, 0.22645456433527988, 0.22696546355774194, 0.22740421820825804, 0.22777377953635736, 0.22816760072292416, 0.2285324718022572, 0.22891888095303514, 0.22921831215493726, 0.2294083892524181, 0.22966304745131388, 0.22988442374856327, 0.2301207757660356, 0.23026947730233296, 0.23034450329729364, 0.23043690447662035, 0.230495361263408, 0.23054459784299602, 0.23053185927761424, 0.23045507048303246, 0.2303804993340376, 0.2302708691806965, 0.23018356569920181, 0.2299965708752989, 0.22974642896612035, 0.2294992143104281, 0.22921749184243292, 0.22893504720007862, 0.2285796788368172, 0.22814184285108474, 0.22772657512604505, 0.22727498667247395, 0.2267911492369236, 0.22626689957235863, 0.22569397760267332, 0.22510023669078383, 0.2244703842527083, 0.22379683649970325, 0.22309646728501564, 0.22244110937999748, 0.2216591302064451, 0.22084643198155957, 0.2199217975266785, 0.21905686908452074, 0.21817016543141438, 0.21723168727365974, 0.21625888384062886, 0.2153173140735073, 0.2142686837721836, 0.21312134516418876, 0.2120221103488948, 0.2108891574075164, 0.20976996533910122, 0.2085652284043067, 0.2073192438446963, 0.20605710342711947, 0.20476510593630806, 0.2034631255440511, 0.20210990596099007, 0.20068199649499707, 0.1992794560542455, 0.1978431261408242, 0.19638201217878598, 0.19489216233532872, 0.19344990927031813, 0.19189510166266216, 0.1902565672228098, 0.1886646972632961, 0.18704713854723654, 0.1854410883182353, 0.18376958121685394, 0.18205560900183493, 0.18034392171766145, 0.178610261774289, 0.1768409010447377, 0.17506696828556884, 0.17326039677425395, 0.1714469002794417, 0.16961334879511253, 0.16780752650014863, 0.16593042481359208, 0.16403184629303852, 0.16212607134245333, 0.1602058397473169, 0.15827820695307088, 0.15632986562196538, 0.15435345607088052, 0.15238279946538677, 0.1503999581888506, 0.1484212960905097, 0.14641425504407798, 0.14438632522082845, 0.14236306159084638, 0.14033120001105548, 0.13831363482244075, 0.13626395164358926, 0.13417258155666958, 0.13211772093952365, 0.13005676366314436, 0.12801146219627835, 0.1259383163223922, 0.12386545918701883, 0.12178801125284239, 0.11970972878442014, 0.11762083456281325, 0.11554417417873977, 0.11346546838268096, 0.11139101675707112, 0.10931848067395364, 0.1072929575703964, 0.10522091302935742, 0.10312943729978222, 0.10107436379165258, 0.09902525705086211, 0.09703362371518687, 0.09499196415728967, 0.0928919546281004, 0.0908808044805972, 0.0888770671985355, 0.08693118317308798, 0.08493863142423523, 0.08295753429845251, 0.08099106379997141, 0.07903810011230761, 0.0771382183531976, 0.07520869617118088, 0.07328454297030967, 0.0713908939103044, 0.06951409484055791, 0.06764146584654177, 0.06580112225061059, 0.0639297969983325, 0.062130618764816584, 0.060347054745639755, 0.05858262581146249, 0.05683264724862304, 0.05515317968489937, 0.053434049346557114, 0.05173765026159725, 0.05002119992634179, 0.04837647750902123, 0.046745050828106746, 0.04514419813698967, 0.04356527219775204, 0.04203759860992001, 0.04050076798210065, 0.03897231558528321, 0.03748858714749969, 0.03602982749544777, 0.034659056761925246, 0.033243571859970365, 0.031793877378865555, 0.030445709577637915, 0.02912340351172637, 0.027810456985796046, 0.026543338429683837, 0.025321949914524657, 0.02410519240838046, 0.02291665042919856, 0.02180743694851776, 0.02066963904521848, 0.019523191369970737, 0.018453848936250915, 0.0174136298958668, 0.016418361931745146, 0.015434932255871385, 0.01450677269875707, 0.013581203828756196, 0.012687535729875382, 0.011787760140594745, 0.01096212803886446, 0.01016316159393945, 0.009396579579673969, 0.008659445917121124, 0.007981900008428806, 0.007300282662039403, 0.006676241381889261, 0.006054148358566513, 0.0054646875710430125, 0.004900976365345347, 0.004376548116289592, 0.0038533928486805557, 0.003395059562383821, 0.0029658604740929423, 0.002554091244411812, 0.002184718925295528, 0.0018777581781199172, 0.001561171626011972, 0.0012750847552087008, 0.0010335697497780866, 0.0008058564077933419, 0.0006255986924971821, 0.00045637210214474663, 0.00031786530975169155, 0.0001509126652055485, 7.984597376226904e-05, 1.6580664142814905e-05, 0.0, 8.533145679836117e-06, 9.316626281842437e-05, 0.0001458241927400366, 0.0002266739628776587, 0.00033528442183717596, 0.0004712331161505082, 0.0006601863417574462, 0.000846274212381865, 0.0010312455071444287, 0.0012754964479368457, 0.0015445179313715812, 0.0017897329313470752, 0.0021134105927206495, 0.0025181390585550167, 0.002876399935846474, 0.0032591182453946513, 0.0036827012017852405, 0.004110567963085092, 0.004534862021524521, 0.005013172945931272, 0.005512497961726647, 0.005977691634171086, 0.006524840216188461, 0.007121387673673159, 0.007698054165171413, 0.008293378507558772, 0.008934414265313731, 0.00956257833203817, 0.010199457974136178, 0.010866637892555429, 0.01155119580013873, 0.012306110676203236, 0.013017201782584352, 0.013683312598103741, 0.014439408580358111, 0.015209066023822585, 0.015995901438605048, 0.016791280752644796, 0.01768035077458538, 0.018490804375582905, 0.01931786574518205, 0.020151359160358907, 0.02100972182442799, 0.02182908791160072, 0.02271960406256668, 0.023618854578499653, 0.024530481375797476, 0.025445879300716727, 0.026439794553578734, 0.027362138930149833, 0.0282958364402873, 0.029213881204996846, 0.030170873942078142, 0.03117820471029586, 0.03214382453667211, 0.033118107320596786, 0.03412629178805372, 0.035112135663557635, 0.03615531054435039, 0.037149555710216615, 0.03815265879894772, 0.03910739702167806, 0.040131970793502884, 0.04117607776786756, 0.04220326337730177, 0.04331534972310908, 0.04433713723302052, 0.04536531757555543, 0.046374020893639324, 0.047414952356077525, 0.048533564251593754, 0.04956842590301278, 0.05060844268259395, 0.05165642978850952, 0.0527030912336204, 0.053732623452998486, 0.05478581853819856, 0.05583883163239796, 0.05696030455316368, 0.058002845732903, 0.05910649904686767, 0.06014559184772253, 0.061188741349626305, 0.06225304960683037, 0.0632986838037202, 0.06432027201908161, 0.06537236412816255, 0.06642332879153279, 0.06757050244086812, 0.06860551058325992, 0.06960064677991737, 0.07064635900990467, 0.0716908421883965, 0.07282103351297059, 0.07385077987142398, 0.07491571456819815, 0.07594557734712164, 0.07697812787730172, 0.0779993952556484, 0.07903632467551112, 0.08015108393559175, 0.08117685686422633, 0.08220582875841916, 0.08321624280386791, 0.08425172546103034, 0.08537827945127194, 0.08640147169976131, 0.08742901763099578, 0.08847958630235116, 0.08951084885403542, 0.09054534607017477, 0.09158245607927898, 0.09262168942380718, 0.09364441752417935, 0.09468919607192221, 0.09579424867878435, 0.09683207115941397, 0.09787371213393535, 0.09890450228732077, 0.09995472183580802, 0.10103987597754921, 0.10209070102408475, 0.10314586917092768, 0.10421702318489404, 0.10527918779723389, 0.10635150792715767, 0.10742290591282899, 0.10849962898109702, 0.10964697445851912, 0.11072643984196838, 0.1117749043151305, 0.11287804929629067, 0.11398788866733532, 0.11513856570557737, 0.11625826068582094, 0.117421291259916, 0.11855563433447623, 0.11970152361580469, 0.12083410234264522, 0.12200606157115196, 0.12318817777971341, 0.1243807930339768, 0.12558428301076044, 0.12682252613939218, 0.12804603857705757, 0.12924651783775137, 0.13050189231800188, 0.13176930522937097, 0.1330885307491164, 0.1343770244578713, 0.13567125911560593, 0.13699373983833102, 0.13833248355782019, 0.13968013319419725, 0.14105380987214453, 0.1424382367030667, 0.14384784961558122, 0.145275510656048, 0.14671662993861026, 0.14818292006242637, 0.1496727392480982, 0.15117841909672441, 0.15270522584445917, 0.1543241777555832, 0.15588612383650666, 0.15741624411399352, 0.15903934149210486, 0.16068610104930253, 0.16235583044213078, 0.164051908177532, 0.16574078940255918, 0.16749240319424744, 0.16926879142675766, 0.17107080397857233, 0.17289925063977862, 0.17481097968814097, 0.1766874901770017, 0.17859580307753692, 0.1805348441676343, 0.18250764640230713, 0.18449208903901973, 0.18653286118849552, 0.18860562837012942, 0.19065875168993177, 0.1928036697472742, 0.19497138240621484, 0.19717944976437998, 0.1994194810582535, 0.20174581345750905, 0.20404556456036355, 0.206326645676221, 0.20870857696182274, 0.2111253340528908, 0.2135841824448446, 0.21607195122123266, 0.2185578761973138, 0.2211256999352646, 0.22372967605471952, 0.22635365270335164, 0.22903441218144166, 0.23179821960531055, 0.23454876828948304, 0.2373407135205239, 0.24016517685327524, 0.24304180726689012, 0.24595090711669973, 0.24891217541332417, 0.25191508461188755, 0.254941699249171, 0.25803113590136373, 0.2611751136148261, 0.26434629286413297, 0.26756044477101915, 0.270761700672071, 0.2740694847336477, 0.27748285052957955, 0.28086373860007796, 0.2842897728119628, 0.28768523985443634, 0.29121089963089497, 0.2947654946284274, 0.29837451194562487, 0.3020245237342875, 0.30569253025311527, 0.30942884141627097, 0.31325296870551406, 0.31706552895464063, 0.320922401293081, 0.3248221892170397, 0.3287675496291472, 0.33275549781234615, 0.33678865758212084, 0.3408653160861696, 0.34497225183604985, 0.3491369934352992, 0.3532878222318776, 0.35754384178797594, 0.3618385708233188, 0.3662283358760107, 0.37059406331062483, 0.3749512955707239, 0.37940774790554255, 0.3839028337689261, 0.3884260763425087, 0.39299955455365193, 0.39758860012097547, 0.4022402242803454, 0.40692802133322054, 0.4116740951544771, 0.416431166509685, 0.4212539375771129, 0.4260809587635679, 0.43094568076770023, 0.4357834654735273, 0.4407294522583218, 0.445694294209186, 0.4507054914164832, 0.45574732478402186, 0.4607869375027911, 0.46589333016323375, 0.47101973483360016, 0.47618260247786465, 0.4813724058330955, 0.48662145571085774, 0.49186005486930034, 0.49716021832740354, 0.5024490741220548, 0.5077659169473085, 0.51306661298395, 0.5184415829736084, 0.5238662408742532, 0.529281625227369, 0.5346724094915125, 0.540137403537102, 0.5456200664083058, 0.5510780165291256, 0.5565992877755703, 0.5621298683003108, 0.5676776177009851, 0.5732373680539524, 0.5787915816456085, 0.584375651243641, 0.5900183618429623, 0.5956136933206575, 0.6012195318493385, 0.6067825369690639, 0.6124124441429398, 0.6181024493663988, 0.6237325313213248, 0.6293681632952872, 0.6349271504464087, 0.6405800869396695, 0.6462887168204592, 0.6519275840658998, 0.6575653413681722, 0.6631641920194279, 0.6688004963024036, 0.6744454367430036, 0.6800647428025888, 0.6856758886614693, 0.6912685548416683, 0.696860947091301, 0.7024436602165414, 0.7080099919000808, 0.7135618512062878, 0.7190276049805566, 0.7245557713754788, 0.7300787908660554, 0.7355599337535532, 0.7410184891409842, 0.7464182814462602, 0.7518331707104403, 0.7571982966725116, 0.7625599942593224, 0.767891172996331, 0.7732158545555707, 0.7784805204044978, 0.7837083573962219, 0.7889093019619199, 0.7940760026952053, 0.7992046875319339, 0.8042997141630763, 0.8093646138679198, 0.814381543652899, 0.8193585354204482, 0.8242238722241793, 0.8291259984677579, 0.8339816423459894, 0.8387872977973694, 0.8435437062691643, 0.8482591257105007, 0.852913223830757, 0.8575366961934457, 0.8620840990003718, 0.8665790089507311, 0.8709692837465485, 0.8753617949149922, 0.8797003464882212, 0.8839729960682052, 0.8881850220925407, 0.8923354587133192, 0.896423317092849, 0.9004110758422872, 0.9043753582412243, 0.9082719520002913, 0.9121235846477435, 0.915879555516039, 0.9195954930819734, 0.9232093544789935, 0.926754031959989, 0.9302243516741674, 0.9336274060535457, 0.9369286866722636, 0.940188073029808, 0.9433705398674331, 0.9464804649894812, 0.9495059179597367, 0.9523909402111672, 0.9552649916129182, 0.958054730781981, 0.9607311135913568, 0.9633547458114844, 0.9659056047424261, 0.9683529444640886, 0.9707134306033899, 0.9730205088016782, 0.9752015948815732, 0.9772558535394377, 0.979268457122554, 0.9811908314827072, 0.9830668974859873, 0.9848019400170258, 0.9863527527944358, 0.9879209633737777, 0.9893932335057257, 0.9908517648742418, 0.9921218473182488, 0.9932562428500277, 0.9943484819100141, 0.9953454301416738, 0.9962780901190933, 0.99707961812041, 0.9977384911592186, 0.9983567860220328, 0.9988769613006171, 0.9992663633400294, 0.9995942595558795, 0.9998494207164712, 0.9999738147885731, 1.0, 0.9999579008196271, 0.9997836788785264, 0.999510149868043, 0.9991425886025409, 0.9986776867455824, 0.9980448670840957, 0.997393758220382, 0.9967192548133785, 0.9958555074100574, 0.9948955468612518, 0.9937883631656135, 0.9926420126733717, 0.9914223978744798, 0.9900744857856842, 0.9886295483110523, 0.987107370181285, 0.9854666124152878, 0.983695486378255, 0.9818690283605468, 0.9799458164799163, 0.9779563930079099, 0.9758375391882145, 0.973582264839502, 0.9712824291571976, 0.9688875367647827, 0.9664440161238999, 0.963855596947929, 0.9611705224822477, 0.9584030846256726, 0.9555460520926554, 0.9526013110119765, 0.9495667117719483, 0.9464248985909626, 0.9432181579307015, 0.9399240867110091, 0.936492748901002, 0.9330332312187609, 0.9294863444853976, 0.9258534684748213, 0.9221359491692287, 0.9183207592070732, 0.9144396956983546, 0.9105135836443492, 0.9064661527950678, 0.9023419321870133, 0.898145868601687, 0.89387069730393, 0.8895208151894464, 0.8851000588209292, 0.8806079741051045, 0.87603133896778, 0.8714018020743735, 0.866706175577753, 0.8619402183164896, 0.8571083268629263, 0.8522509232717872, 0.8472861284596501, 0.8422380579760487, 0.8371576495365173, 0.8320182199840228, 0.8267910884041441, 0.8215413691888356, 0.8162023465878756, 0.8108449627870488, 0.8054322694883582, 0.7999856862010265, 0.794465436187703, 0.7888873070341608, 0.7832723062019309, 0.7776112278708043, 0.7719370270910313, 0.7661847954621599, 0.7603788333725093, 0.7545510176153065, 0.7486857821873142, 0.7427624932682857, 0.7368298345580059, 0.7308540097619048, 0.7248561633614168, 0.7188272176179739, 0.7127989428666079, 0.7067093145765051, 0.7005668486373967, 0.6944340299198106, 0.688287552672994, 0.6821097426774492, 0.6759131156060311, 0.6697540752154442, 0.6635177826990777, 0.657274545352554, 0.6510172255270524, 0.6447516826139416, 0.6384517787722473, 0.6321770405779267, 0.6258859833959284, 0.6196023800608009, 0.6133154857720693, 0.6070113302237923, 0.6007248590247388, 0.5944196648405712, 0.5881391184586088, 0.5818618370437092, 0.575587094246113, 0.5693222747168425, 0.5631143432423827, 0.55686247931402, 0.5506254862877388, 0.5444125094977411, 0.5382082466578918, 0.5319920009874953, 0.5258316201056155, 0.519691402248852, 0.5135298859536802, 0.507440131843668, 0.5014497180457977, 0.49539688844530266, 0.4893744183354253, 0.4833755939308434, 0.4774181851893045, 0.47145105372216445, 0.46556693497215224, 0.45971616581681224, 0.4538755422765865, 0.44809928011324396, 0.44240781434451043, 0.43670018582429254, 0.43103503304933916, 0.425412183361813, 0.41983553312396027, 0.41423814614894355, 0.4087625603654171, 0.4033312259719523, 0.3979418501501674, 0.3926042893006031, 0.387367540788034, 0.3821221042496201, 0.37693101598385437, 0.3717977495939225, 0.3667176149715068, 0.3616593315847979, 0.3566985835566182, 0.3517945346326735, 0.3469925962008087, 0.3421995099200382, 0.33737740235242913, 0.3327209642161784, 0.3281228255843142, 0.32358821171271124, 0.31911002208407985, 0.3147526973024185, 0.3103924686416406, 0.30609967832922197, 0.3018290903676345, 0.29767816283432313, 0.2935802752313734, 0.28956391170807727, 0.28561434911068184, 0.28177276434248355, 0.277953881209207, 0.27416310050710074, 0.2704921804107151, 0.2668904658076856, 0.26334678800835915, 0.2598866146862467, 0.2565304284701062, 0.25320662942477545, 0.24995575185589244, 0.24673617450867733, 0.24363672367967154, 0.24058986259258716, 0.23763479729466253, 0.2347502586081763, 0.23200055490206717, 0.229250142757255, 0.22656311731854864, 0.2239641250607377, 0.2214389798081392, 0.21899138281117686, 0.21661279164077454, 0.2142710819639674, 0.21204361628438598, 0.20988692084664506, 0.20779967892674728, 0.20578460099080392, 0.203858292073781, 0.2019817854654302, 0.20017648302996016, 0.19844852851795539, 0.19678365867204434, 0.1951135282670373, 0.19359847955824308, 0.19214855927016244, 0.190831662663144, 0.18950358391272398, 0.18817530589329012, 0.1869930832571664, 0.18587446127357266, 0.18485578242302822, 0.18385915415231002, 0.18293265499607514, 0.18206451666964277, 0.1812602081021719, 0.1805020122012837, 0.17982519780334935, 0.17924282627923344, 0.17868212264986247, 0.17818247433762288, 0.17767636227698316, 0.17730420497319704, 0.17702938473698146, 0.17675992527710932, 0.17654618556110527, 0.17632071959181347, 0.17622400100257357, 0.17617641665902947, 0.17617752492848054, 0.17622680564875126, 0.17631975462670446, 0.17646403339881406, 0.17672211014724765, 0.17694904712535417, 0.17722424279633883, 0.17747589080791354, 0.17785237245552427, 0.17833427460122064, 0.17878218991621914, 0.17927241719171438, 0.17978923131313274, 0.18036177724432811, 0.1809939221281948, 0.18163731921219836, 0.18231698184274567, 0.1829767593986443, 0.18373176345853956, 0.18450676090250737, 0.18532028785965943, 0.1861606368585523, 0.18706214516650163, 0.18794902884026937, 0.18880459913864736, 0.1897496074524408, 0.19071494414065895, 0.19170764615249633, 0.19271023697176848, 0.19375064695008148, 0.19478629384345666, 0.19583929537579253, 0.1968941109016789, 0.1979800465935089, 0.19907894142659327, 0.20018971409308023, 0.20131127079891234, 0.20247250137287928, 0.20360851431090912, 0.20469367385243992, 0.2058541765932057, 0.20701774827486719, 0.20824485306040608, 0.20940429623638193, 0.21051941562357881, 0.21169140280774346, 0.21286182711006063, 0.21400757277463575, 0.21517482163421328, 0.21633377884609795, 0.2174891904890658, 0.21863714459818787, 0.21985244761804157, 0.22097341219150884, 0.22204166707336745, 0.2231555506452027, 0.22425811972479556, 0.22532360878991672, 0.22640372707122758, 0.22750863242070524, 0.22855160390485033, 0.22957967893229758, 0.2305591525729823, 0.23155828171099216, 0.2325661663054409, 0.23352105739988238, 0.23445613822618575, 0.23538477958512746, 0.2362755353283264, 0.23710272615475478, 0.23795409067350348, 0.23877932461675216, 0.2395595913674824, 0.24033313084205746, 0.24109602680328188, 0.24180902169689558, 0.2424580455433114, 0.2431173620756098, 0.2437447352124349, 0.24437637515543678, 0.24493431046099098, 0.24542616647798898, 0.24592616278152699, 0.2463920351244289, 0.24686519651330974, 0.24725658332546366, 0.247624340383057, 0.24794838602358052, 0.2482388865869235, 0.248513437371353, 0.2487326022149178, 0.24887828100761294, 0.24903299376276367, 0.2491498650429285, 0.24926777683481252, 0.24930331206035386, 0.24925296904291963, 0.24922161289606204, 0.2491501870201402, 0.24906215979000426, 0.24890761108129225, 0.24867647725041148, 0.2484489867299898, 0.2481802560709981, 0.24786915144162738, 0.24751860521503757, 0.24720547134832238, 0.2467635252219858, 0.24628544956585924, 0.24577468095311286, 0.24522250418808206, 0.2446253991786674, 0.24399971947973859, 0.24333599560602298, 0.24260283922767267, 0.24186676348996317, 0.24105033837007186, 0.2402398314309349, 0.23938774976345434, 0.23857689916954838, 0.23763319849122141, 0.23659832270902292, 0.235591425946244, 0.23454617411927475, 0.23344219057323892, 0.23232433171629444, 0.23116580366866343, 0.22997281076126352, 0.22874290927666657, 0.2275067399084288, 0.22620115559655676, 0.22483486134889702, 0.2234664620843015, 0.22206396724048516, 0.22069191363600166, 0.21921505443870457, 0.21763916301999325, 0.21611409597063141, 0.21455675352591155, 0.2129953217464697, 0.21137235115991487, 0.2097627279398281, 0.20807825471418373, 0.20636883846534756, 0.20460603044229278, 0.20285113712380654, 0.2010575443961291, 0.19925361663713825, 0.19742458334210228, 0.19556208760135452, 0.1936863141070148, 0.1917833312408199, 0.18986230951433922, 0.18791946743302138, 0.18599871052102276, 0.18400939157743576, 0.18200847372602563, 0.1799853692847859, 0.17794678951687828, 0.1758815334154827, 0.1738151309426261, 0.17173561312818109, 0.16964093797094495, 0.1675333944437084, 0.16543720649300117, 0.16330322425741803, 0.16114824704435485, 0.15899783206130286, 0.15683873319305253, 0.15462867315480547, 0.15245993377803022, 0.15034239615802936, 0.14814964216890666, 0.14595371847747407, 0.14374348354831293, 0.14154452137485315, 0.1392914442026755, 0.1370959465925646, 0.13489712544395888, 0.13271314340682328, 0.13050911483198768, 0.12835185179394953, 0.12614524466056434, 0.12394419626226141, 0.12169578271779127, 0.11951427025526566, 0.11734746048421807, 0.11517421762688307, 0.11300789274226718, 0.11089241821672921, 0.10873716244555662, 0.10661474156256066, 0.10448128394921938, 0.10236198726907175, 0.10023114861487735, 0.09814464773353217, 0.09609165742927978, 0.09403127733304752, 0.09198733541203075, 0.08988082079081001, 0.08788144328428543, 0.08589700477340331, 0.08392595115570313, 0.08197097237834924, 0.08009182338189212, 0.07816472983075079, 0.07620397011367759, 0.07432921889255653, 0.07247460912865392, 0.07063974122852755, 0.06882824316333883, 0.06703546937157906, 0.06527051523847104, 0.06352948917687565, 0.06186267373591779, 0.060165381537748835, 0.058446005900780446, 0.05681291274112982, 0.055206192810070276, 0.05367866634281673, 0.05212003012436615, 0.050583423008489545, 0.0490883843469612, 0.047624267195628005, 0.046139146706721465, 0.04474418687755871, 0.04345749591312708, 0.04211058474797875, 0.0407981379587268, 0.03951225690444899, 0.038269539725579095, 0.036981174235421445, 0.03581639235151495, 0.034681212950427524, 0.03358289533630097, 0.03250824104984871, 0.03151120325038486, 0.0304952112664135, 0.029514674792316474, 0.028533100087527113, 0.027628153672079853, 0.02676450124184148, 0.025925817726396704, 0.02512162978230648, 0.024389929598855595, 0.023650446472998143, 0.022923246973458013, 0.022260812217404145, 0.021633649379141532, 0.021062642522706492, 0.020503426648803693, 0.019932413582327065, 0.019452010873269643, 0.019004970096174204, 0.018584973282899854, 0.018206041736308142, 0.01788926736436985, 0.01757376860521243, 0.01729355376923339, 0.017031479431528496, 0.016823395011647084, 0.016701205965681507, 0.01655390793479447, 0.01644307710650821, 0.016330341386073192, 0.016295593141031708, 0.016336643672613126, 0.016361807188022232, 0.016421779276952174, 0.016509479813769937, 0.016638239234069863, 0.01684417228255496, 0.017032553798506416, 0.017255384016239522, 0.017429724395943917, 0.017729543655231886, 0.01816001980027964, 0.01850209318341856, 0.01881887140641897, 0.019234229370204033, 0.01967791983826248, 0.020243511214598015, 0.020731009550738352, 0.02118720340977878, 0.02174685975884441, 0.022333384665638865, 0.023042838371114847, 0.023669577326697007, 0.02426990278904354, 0.024964614088466154, 0.0256847376037082, 0.026549675035546713, 0.0273037527952448, 0.028087005527078594, 0.0289007167763086, 0.029741985763647276, 0.030584804070883778, 0.0314807316288654, 0.032482892917450094, 0.033413059499319525, 0.034369222508469036, 0.03539308171979853, 0.03639191257196357, 0.03739984978271213, 0.03844881216948021, 0.03951906406273242, 0.04061613541011356, 0.041725256070093544, 0.042919815202078104, 0.044057573079180797, 0.04521642928400197, 0.04643688725326705, 0.04762909971779726, 0.0488374968461312, 0.05006914841104657, 0.05131830205308709, 0.05259310164205388, 0.05387324490554906, 0.05528738970624784, 0.056582382398443966, 0.05789782481642921, 0.059239919898801736, 0.06059058421223992, 0.06196169539896959, 0.0633437249612064, 0.06474022336983955, 0.06621018955707718, 0.06762518518522022, 0.06905406345128416, 0.07049842013275492, 0.07195567191248868, 0.07345229494866148, 0.07492925272551076, 0.07647168924213037, 0.07796506594675764