0.03500855473931776, 0.03458151307520279, 0.0342002886032101, 0.033861293998943456, 0.03350029650954292, 0.0332324586597507, 0.03298645064361844, 0.03280803891318472, 0.032589907105863805, 0.032325220257833694, 0.03214453017135576, 0.03197190944215417, 0.031895549826445525, 0.03172465630243312, 0.03151360080347458, 0.03136885347212399, 0.03122966843719603, 0.03112705279193056, 0.03099442986275235, 0.030806274933554555, 0.030695428180068974, 0.030587969390149076, 0.030529183895390038, 0.03042476299485361, 0.03028055836448201, 0.030198195313275274, 0.0301217224555071, 0.030104047061400633, 0.030035167994834605, 0.029983426364773393, 0.029936494570970328, 0.02990177887714311, 0.029800722719943273, 0.029801461190403746, 0.029811077109042357, 0.029830602090496407, 0.029860998974932385, 0.029928472816796396, 0.02998004867432684, 0.03003601482385279, 0.030119056100739196, 0.030217353265555094, 0.03033742637780333, 0.030467148356594264, 0.03064830582274418, 0.030808525825300352, 0.030988712902024675, 0.03110860555231038, 0.031339283558094816, 0.0316111544203396, 0.03187122934109273, 0.032150193980872335, 0.032421749929045396, 0.03274334524500254, 0.033055454157523353, 0.03341885986611544, 0.0338007086633877, 0.03425834927183425, 0.034672210902444864, 0.03504137226904903, 0.03551160123479568, 0.036002087969449134, 0.03653142664007358, 0.03706230587766525, 0.037579259158003336, 0.03816186030094484, 0.03876651563101514, 0.039469842882970035, 0.04011104885614088, 0.04076413926253706, 0.04146388509196666, 0.04219091388799699, 0.04289477392513159, 0.04368327207805553, 0.044452094820289105, 0.045296828606229106, 0.046165249070787576, 0.047035942062745535, 0.04795723283335286, 0.04890795979032126, 0.049879526402178236, 0.050878039652584556, 0.05196079112289553, 0.05300816186027937, 0.05407278099653011, 0.05518642603313052, 0.05633163392851725, 0.05744764827968345, 0.05866453163418514, 0.05991931864308963, 0.06119378687245569, 0.06249920917672621, 0.06381532937072272, 0.06518700876661548, 0.06660797403989355, 0.06804088308145087, 0.0695074540373908, 0.07093961441627325, 0.0724833570425446, 0.07411016556309556, 0.07571013899055658, 0.07731145719799883, 0.07898723403101013, 0.08069726971749477, 0.08242722525567406, 0.08420925275800993, 0.08603513202883231, 0.08788640047448222, 0.08977409819861301, 0.09171049246894153, 0.09367058321539398, 0.09563450727910146, 0.09767523807821114, 0.09975243932622606, 0.1018977863223644, 0.10404517109560457, 0.10614405654414899, 0.10838123837906265, 0.11065288058678277, 0.11302669873299132, 0.11536088033450141, 0.1177456123417766, 0.12015866966834193, 0.12261230476430297, 0.12504086007656434, 0.12758346474094634, 0.1301550712747018, 0.13277188963544345, 0.13542543708410604, 0.13815176158424802, 0.1408751517901172, 0.14360531149447936, 0.14641174690906328, 0.149255583574235, 0.1521667001370242, 0.15508184948203987, 0.15805561373166704, 0.1610465873788417, 0.16407739650367514, 0.1670746785420872, 0.1701931355019533, 0.17336844243043933, 0.17655331711277708, 0.1797742994030007, 0.18308338518054437, 0.18636964319530927, 0.18966920956687738, 0.19303527842873344, 0.19643732862199376, 0.19983033106903966, 0.2033088721454196, 0.20686590155511522, 0.21040325387222292, 0.21397541201478426, 0.2175312528197586, 0.22117789247472613, 0.2248385912841073, 0.22854806206631761, 0.23228677879652007, 0.23607847906883447, 0.23987237179659, 0.2437351261220672, 0.24758399346264046, 0.2514642724376501, 0.25531412274537657, 0.25926253828947615, 0.2632112590299555, 0.26721382208409483, 0.2712399725204383, 0.2752895370119753, 0.27936227212312487, 0.2834861540640592, 0.28760067213757073, 0.2917388530982532, 0.2959193516461339, 0.30010030204488, 0.3043217223842266, 0.3085447258991693, 0.3127895414295208, 0.31697474754279525, 0.32127026492992444, 0.3256053418691198, 0.32992582923008335, 0.33426125026012526, 0.3386377318457218, 0.34299759590100404, 0.34729290374601973, 0.35169045490551815, 0.35609597963448864, 0.36056720045389884, 0.36498025140592155, 0.3694271220873401, 0.37385614981467774, 0.3782944849325013, 0.3826769079480805, 0.3871383481543437, 0.39161980587954337, 0.396082660933111, 0.4005473549909764, 0.405007062672582, 0.4094735524748312, 0.41397161866737203, 0.4184307358901873, 0.4228887248169089, 0.42726549588840784, 0.4317276403477783, 0.43622832645224124, 0.44066573653867197, 0.4450956113829401, 0.44948714105691207, 0.4539025884727563, 0.45826103192730644, 0.462656612258798, 0.4670356576338457, 0.4714586677015002, 0.4757952498356009, 0.48008862146646636, 0.484397701735153, 0.48868782580871206, 0.49294312465352075, 0.4971942492340373, 0.501461277843623, 0.505660989794605, 0.5098382085513303, 0.51392466307081, 0.5180615336913856, 0.5222442727679597, 0.5263107447081861, 0.5303499810871098, 0.5343099638009862, 0.5382969491765603, 0.5422199738880166, 0.5461414468522703, 0.5500252371483548, 0.5539361412825554, 0.5577341291312031, 0.5613961299444015, 0.5651328785424612, 0.5688251108008849, 0.5725452853491526, 0.5761377406218675, 0.5797089623394986, 0.5832133798356757, 0.586674410679219, 0.59006835528647, 0.5934413708670815, 0.5967687463638597, 0.600043087794555, 0.6032668682723092, 0.6064345657173625, 0.6095546387844676, 0.6125314688152482, 0.6155540180241905, 0.618515709401102, 0.621422274752666, 0.62426075357939, 0.6270303787264829, 0.6297465053781892, 0.632399814152263, 0.6350255357913915, 0.6375471623902481, 0.6399959525075675, 0.6423931786555405, 0.6447256449015575, 0.6469553599523177, 0.6491606896871918, 0.6512968599216169, 0.65336341383038, 0.6553598676520881, 0.6572752954516917, 0.6591313329782817, 0.6609434062159175, 0.6626509110772977, 0.6642868196641744, 0.6658429752704982, 0.667334512993565, 0.6687266540257011, 0.6700726239368087, 0.6713419246164798, 0.6725416485111246, 0.6736556108722404, 0.6746892758823715, 0.6756485542281804, 0.6765295152967988, 0.6773481605210766, 0.6780693074526829, 0.6786777328279897, 0.6792457766103858, 0.6797325163990794, 0.6801393149332404, 0.6804628787947231, 0.6807465231569734, 0.6809014799811443, 0.6809769136843484, 0.6809827935884872, 0.6808965643792425, 0.6806795902176855, 0.6804391178899352, 0.6801149726527487, 0.6797236698460801, 0.6792305316349828, 0.6786044556871649, 0.6779530897600767, 0.6772553313280518, 0.6764293564070017, 0.6755213884840835, 0.6744973113437659, 0.673430076369765, 0.6722793636810167, 0.671045641651431, 0.6697293689374237, 0.6683563048506111, 0.666873086288048, 0.6652937153540819, 0.6636532623772685, 0.6619326440016794, 0.6601263488917825, 0.6582474961689653, 0.6562686760091987, 0.6542347419129062, 0.6521215967601757, 0.6499359239210736, 0.6476657838945856, 0.6453591304611779, 0.6429311670339778, 0.6404301039393118, 0.6378324901579088, 0.6351893923107923, 0.6324239877733612, 0.6296414439189113, 0.6267843953300751, 0.6238539852944373, 0.6208513291891303, 0.617771564797935, 0.6146284276395291, 0.611415935086361, 0.608118807935421, 0.6047729483472467, 0.6013570864164418, 0.59787874924858, 0.5943355916300843, 0.5908151372732242, 0.587134956638837, 0.5833923545568009, 0.5796004476834867, 0.5757527304050435, 0.571830509829692, 0.5678756605817223, 0.5638616148572806, 0.5597988633569378, 0.5556831515663719, 0.5514768682464721, 0.5472634331871046, 0.5430413870606086, 0.5387204049024777, 0.534352994380404, 0.5298881479886239, 0.5254377823889769, 0.5209176192448852, 0.5163799047030054, 0.5117980435663919, 0.5072109899438817, 0.5025413005875551, 0.49780784388798843, 0.4930689180589504, 0.4882941618110503, 0.48353275870181306, 0.4786849407589787, 0.4737787776009075, 0.4688786902913658, 0.4639506168819235, 0.45902574669654567, 0.4540421863165637, 0.4489904118701377, 0.4439697295199308, 0.4389267733344874, 0.43386017011114353, 0.42877783315013146, 0.42372544053511246, 0.41860326605498605, 0.413469192270462, 0.4083139487432672, 0.4031608755761626, 0.3979631331589622, 0.39279801211392906, 0.3876245941393929, 0.3824474848380876, 0.3772619544205375, 0.37211180396986254, 0.3669162597535765, 0.3617226017323977, 0.3565141473091138, 0.3513300848778287, 0.3460939431913852, 0.34092739092468805, 0.33576490898025496, 0.3306440493031752, 0.3254906027058638, 0.3203812729050478, 0.3152477835641677, 0.3101302138819448, 0.3050102856920153, 0.29993024354593045, 0.2948668232975032, 0.28982446876251794, 0.2848026890553017, 0.2798101992629644, 0.27483243227216475, 0.26990325621735767, 0.26497319920035334, 0.2600715975602299, 0.255116059740798, 0.2502848393903233, 0.24548779659136827, 0.24071078137662433, 0.2359641955074549, 0.23129863152836241, 0.22661103680178316, 0.22196234500947754, 0.21735029557572597, 0.2127775535365021, 0.20818248687811, 0.20369893318456866, 0.19928956607973658, 0.19487979327246407, 0.19051317295761272, 0.1861936383217112, 0.18191578843509507, 0.17769298033428108, 0.17350707649841554, 0.16936947261150365, 0.16523178329515972, 0.1611991950843485, 0.15725154209792527, 0.15331077814943278, 0.14942193841912402, 0.14555442658514406, 0.14177536174498026, 0.13801267148852941, 0.13434317968947093, 0.13072543614676724, 0.12718131742123406, 0.12366745890856497, 0.12019598249297211, 0.11679601126060282, 0.11345228832388624, 0.11015057686888821, 0.10692312503004107, 0.10384963047969435, 0.10072494824882781, 0.09766405330469209, 0.09465475109199774, 0.09172212264792114, 0.08879233346001428, 0.08599192273514746, 0.08325040850770801, 0.08058012183195935, 0.07795610789413354, 0.07537788210704914, 0.07287727405318135, 0.07043682071253284, 0.06806419272827126, 0.06574374318024026, 0.0634992959779676, 0.06129922951059569, 0.05916114747045844, 0.057065545452868176, 0.05505340578256049, 0.053125475396311524, 0.05123105852931985, 0.04939823587918165, 0.04761627410564691, 0.04590700774270623, 0.04428159644404792, 0.04268912791612743, 0.04115747974367469, 0.039634045987105924, 0.0382291143854779, 0.03688354248381065, 0.03559090800705571, 0.03435458264400419, 0.03324132754260305, 0.032108421473764664, 0.03098414891363939, 0.02997523547154002, 0.029020954060057388, 0.02809853066739668, 0.027254970787650264, 0.026521417803073787, 0.02577406115088671, 0.02508114888034825, 0.024394124159487836, 0.023813375504325874, 0.023354617856038828, 0.022862239450441083, 0.022421955342157487, 0.021943279280024413, 0.021615008078525306, 0.021363168323467, 0.021117765191450776, 0.020917107387390534, 0.02076342857529289, 0.020649631110915036, 0.020538254120764113, 0.020513931873626833, 0.020528283272719317, 0.02064477573331217, 0.020726694877187667, 0.020814849480284333, 0.020980835056971285, 0.021193394083877954, 0.021429473503588446, 0.021700483945757118, 0.022035186107405243, 0.02236925429962624, 0.022769625982133907, 0.02316539752328075, 0.02359406067236768, 0.024076468561871137, 0.02456371691806273, 0.025012361293019758, 0.02556650443127445, 0.026143720701876573, 0.02680866786463691, 0.027421204678978947, 0.028017718189539468, 0.02868225716866312, 0.029365923281797907, 0.030061763550864803, 0.030781443040670684, 0.03157349277654629, 0.03231667883243465, 0.03307694593235085, 0.0338260903317139, 0.03461973555942552, 0.03547401293996959, 0.03628341515686661, 0.037105002284372884, 0.03797755260687727, 0.03881424491015736, 0.03963451698173492, 0.04049377786691789, 0.04135885762435215, 0.042319373933220605, 0.04318108931178341, 0.044023490189380066, 0.04490176104988875, 0.04578254609035471, 0.046689812338785615, 0.04756848353997675, 0.048500883399268786, 0.04937172122781695, 0.050243120536267845, 0.05119981611647616, 0.05205672717663131, 0.05288481175534652, 0.0537454141289705, 0.05460153871994316, 0.0554756157113928, 0.056315725128450206, 0.057209899133675496, 0.058027088489996555, 0.05883831376634035, 0.059676266253316186, 0.06046674313530028, 0.0613010744479001, 0.062067055288356855, 0.06282503124925941, 0.06357791243110118, 0.06431481684797961, 0.06504872544595038, 0.06575951588970191, 0.06645675014681994, 0.06716329035520334, 0.06782764652545836, 0.06854869902543555, 0.0691736657827447, 0.06978631320810637, 0.07040627184036208, 0.07098817297053757, 0.07153491191310062, 0.07208985703972155, 0.07262755117152499, 0.07322488196028551, 0.0737168139477915, 0.07415136779360201, 0.07461944380649826, 0.07506923518846256, 0.0755540531788665, 0.07595973473358104, 0.07640905953517556, 0.07677489839459171, 0.07712726468272187, 0.07740880717635655, 0.07773917807497685, 0.07811945689885803, 0.07840410447206239, 0.07867422404594146, 0.07894283574652884, 0.07918118421350093, 0.0794213227070748, 0.07962824950985556, 0.07982124353162594, 0.07996147033246484, 0.08013119707311915, 0.08033234039210368, 0.08046404465281616, 0.08058311384006449, 0.08067477928623847, 0.08077088735292715, 0.08090470636906529, 0.08096904991573517, 0.08102425196841571, 0.08102725353536902, 0.08107004924154922, 0.08112865576816852, 0.08114678412774945, 0.08115683142547386, 0.08120248162537588, 0.08119249419572026, 0.08116809914419372, 0.08115174432647868, 0.08113147397268074, 0.08112865014081623, 0.08109953129574826, 0.0810306827441842, 0.08100490815484217, 0.0809770000823583, 0.08093597903523743, 0.08090811029924126, 0.08094278574612221, 0.08090811417183699, 0.08087908872760197, 0.08087710302720029, 0.08085845479462807, 0.080784448760833, 0.08079175378926703, 0.08080529308826692, 0.08089473840044412, 0.08091566346005763, 0.080933848643381, 0.08098473361456227, 0.08104963504159308, 0.08108327346748179, 0.08118468013162804, 0.08133445282314436, 0.08146111472292003, 0.08160646172176421, 0.08180276632720775, 0.081984580286205, 0.08218842351855811, 0.08241826247147144, 0.08267317919130011, 0.08287665614677756, 0.08319422006100077, 0.08360375658928629, 0.08396124877249972, 0.08434921282120006, 0.08474923225299291, 0.08520341419196152, 0.08566900601250634, 0.08619146773840379, 0.08674728998347353, 0.08738093890256333, 0.08800188283039002, 0.08858798149176182, 0.0892983754509823, 0.09004593010187675, 0.0908276777312892, 0.09165455076205421, 0.09259856656924151, 0.09349964710646551, 0.09444887978748297, 0.09536057145344755, 0.09641899604336969, 0.09759718353938375, 0.09873827640348136, 0.09993164178061728, 0.10118838583155083, 0.10248705120723003, 0.10378857164603869, 0.10520437701501066, 0.1066735083869877, 0.1082208702766792, 0.10979685917897537, 0.11139789515505062, 0.1130943920562917, 0.1148483811165785, 0.11669362077639588, 0.1185614312471564, 0.12045572906967983, 0.12245309383726369, 0.12451187522578384, 0.12667463049468572, 0.1288535544861139, 0.13105108478884298, 0.1333689208029356, 0.1357511338813225, 0.13824018959398593, 0.14074818607629985, 0.14327745950251058, 0.14592960344089503, 0.14864857926816744, 0.15144845468557983, 0.15430135414966492, 0.15724154487258687, 0.16023144251879742, 0.16329253766687002, 0.16638929071156924, 0.1695978440724199, 0.17283590858862902, 0.17618937335811544, 0.1795887437167277, 0.1830821365652758, 0.1866436892771418, 0.19026659576310728, 0.19396721791952676, 0.1978131131165279, 0.2016432526884759, 0.2055477373766292, 0.2095172625187856, 0.21357044603383285, 0.21765913064994394, 0.22186213942817495, 0.2261351314806502, 0.23048847698398062, 0.2348999111648828, 0.2393503356137302, 0.24390593056927326, 0.24852939467159796, 0.25322656321032416, 0.25798458752367676, 0.2627402931096072, 0.2676420985714767, 0.27260685550950303, 0.2776287127717191, 0.28272031902284017, 0.28788642068300807, 0.29310152104957365, 0.2983794321296839, 0.3036973667767312, 0.3091022771158608, 0.31457758040965944, 0.320100637874603, 0.3256832110834239, 0.3313320235843811, 0.33703046964439115, 0.3427493023398349, 0.34856671433254327, 0.3544377110764663, 0.36030500063332077, 0.3662880734136495, 0.37237722531577594, 0.378448528712721, 0.38457005004217837, 0.39065428825044884, 0.3968836417592357, 0.40318752243930234, 0.4094957146568955, 0.4158462539570315, 0.4221800198048192, 0.42861933590730006, 0.43508393627385533, 0.44159519988744284, 0.44813991561321215, 0.4547573725600442, 0.4613610984749116, 0.468012414567152, 0.47467816473054525, 0.48137441675044196, 0.4881099037327768, 0.4948607663318585, 0.5015616935441211, 0.5083723153874822, 0.5152010420855787, 0.5220570935529876, 0.5289170341854396, 0.5357278286507324, 0.54262409823899, 0.5495286049197529, 0.5564462338661154, 0.5633631514973644, 0.5703461692653535, 0.5772641080902321, 0.5841876810892801, 0.5910880783597261, 0.5980202701975276, 0.6049014428777949, 0.611834276774508, 0.6187588781633193, 0.625642561865948, 0.63255031419617, 0.6394480863763747, 0.6463250353862148, 0.6531850191025912, 0.660044373660742, 0.6668635300020651, 0.6736977074299255, 0.680469115649235, 0.6872181658997135, 0.6938950809325722, 0.7005990377137326, 0.7072969144812585, 0.713933206906324, 0.7205361242398128, 0.7270560875169112, 0.7335924560191375, 0.7401003669002041, 0.7465497946854582, 0.7529550090335803, 0.7593306711743877, 0.7656402335212076, 0.7718998341177322, 0.7781107620571462, 0.78426939264463, 0.7903456026918543, 0.7963977095205524, 0.8024306456027142, 0.8083573720830765, 0.8142238360195603, 0.819974531315089, 0.8257215340284255, 0.8314249292946325, 0.8370295201740984, 0.8425638282830269, 0.8480053878344422, 0.8533969034385164, 0.8587404160095476, 0.8639743674402589, 0.8691307876585291, 0.8741425319161545, 0.879147266873142, 0.8841374061711399, 0.8889599812493525, 0.893698431150352, 0.8982796400728879, 0.9028539387086585, 0.9073680140198035, 0.9117512825117465, 0.9160415040939281, 0.9202671997253463, 0.9243638267752929, 0.9283266759078024, 0.9322366193245571, 0.9360465098660086, 0.9397151402652785, 0.9433269756375481, 0.9468439171669014, 0.9502431573112273, 0.9535363480708633, 0.9567703555608998, 0.9598431150270992, 0.9628027508445727, 0.9656639507975968, 0.9684168325334329, 0.9709845129493819, 0.9735275167494174, 0.9760400492286084, 0.9783414694359442, 0.9805318822329863, 0.9825240059542099, 0.9845005659491806, 0.9863750286651307, 0.9881125261715632, 0.9897323509713646, 0.9913012704169074, 0.9926766220745762, 0.9938942460394379, 0.9950452076532107, 0.996077804343651, 0.9969426856025547, 0.9977441183020034, 0.998458087179082, 0.9990120543130572, 0.9994467626009602, 0.9997443186170014, 0.9999427087551772, 1.0, 0.9999607179218224, 0.9998004419636162, 0.9995166058771805, 0.99911595176016, 0.9985760220369737, 0.9979384151340669, 0.9971807015517368, 0.9963064813621868, 0.9953100418543969, 0.9941806357723559, 0.9929505163390873, 0.9916026889831705, 0.9901929760373673, 0.9886050001638979, 0.986858499729541, 0.9850519227914576, 0.9831310832467413, 0.9810729850804445, 0.9789291145648062, 0.9766349470803847, 0.974270688790656, 0.9717933975352405, 0.9692416579114971, 0.9665376704160048, 0.9637699277442389, 0.9608476261851373, 0.9578228363587109, 0.954635222265293, 0.9514153356973157, 0.9481141635699858, 0.9446856109440929, 0.9411574701859056, 0.9374728941227284, 0.9337565728465506, 0.9299604672553584, 0.926045184349768, 0.9219981213384567, 0.9178999625681696, 0.9137082451739735, 0.909418862740844, 0.9050462925456128, 0.9005986790250826, 0.8960493472265378, 0.8914159318193684, 0.8867343363631526, 0.8819334193624826, 0.877073199735861, 0.8721170871920082, 0.8670876421693934, 0.8619400479333282, 0.8567738196026852, 0.8515507079206185, 0.8462409135849156, 0.840863894827958, 0.8354258526464368, 0.8299190423539634, 0.8242790588592271, 0.8186595925873604, 0.8129779118198238, 0.8072944329613791, 0.8014880087633253, 0.7955774511068207, 0.7896753012864781, 0.7837217156198676, 0.7777784471986725, 0.7717210510563804, 0.7655714734333577, 0.7594389791494441, 0.7532653892175946, 0.7470111355976283, 0.7407669440721522, 0.7345585400608438, 0.7282332069470826, 0.7218795388377657, 0.7154233129812032, 0.7090276920782509, 0.7026656769172492, 0.6962098612256659, 0.6897347422538798, 0.6832063716110229, 0.6767025128073723, 0.6701827200932707, 0.6636490939979143, 0.657103707430153, 0.6504965053658589, 0.6439403019219557, 0.6373978121250731, 0.6308239498661137, 0.6242474440428533, 0.6176569734405727, 0.6110830642408964, 0.6045416455602377, 0.5979714812274516, 0.5914098067718621, 0.5848181750931641, 0.5782837897638605, 0.5717623339859819, 0.5652526793596548, 0.5587585716288798, 0.5523265947510673, 0.545863665875242, 0.5393693577049431, 0.5329622350984351, 0.5265786132886251, 0.520279934741412, 0.5139414254297187, 0.5075415129689532, 0.5012808923948985, 0.4950499439006692, 0.4888402966764973, 0.4826760725795134, 0.4765825593380958, 0.47048567794239904, 0.464429489968433, 0.45837822990631866, 0.45241245048886575, 0.44650738793831973, 0.44062670558127887, 0.43479310820253275, 0.4290317856953528, 0.4232934192952339, 0.41754642895323707, 0.41192165518127694, 0.40634796291683767, 0.4008447309782393, 0.39537541068443205, 0.3899803539182218, 0.38462272610949666, 0.37932475598951626, 0.37412457462207127, 0.36894393496764133, 0.36372648402735464, 0.358688012611176, 0.35370936288116733, 0.34882316467912594, 0.34396421334020433, 0.33915874646219196, 0.3344329289571912, 0.32977346929476686, 0.32518269577558845, 0.32065822476462674, 0.31624720229653425, 0.31185532643438096, 0.3075360225318796, 0.30328503259776834, 0.29911206042473654, 0.2949926766739908, 0.2909682664192724, 0.287016165561636, 0.28312929273607795, 0.2793238013471787, 0.2755643846594881, 0.27190833631604894, 0.2683242418861025, 0.2648586953957639, 0.2614139465025987, 0.25801957637116313, 0.2547292824065038, 0.25151301073067145, 0.24842441492571488, 0.24534956089789714, 0.2423354319616813, 0.2394163638515095, 0.23657252418639793, 0.23381103169905346, 0.23111572634618843, 0.22847869216192224, 0.2259343343019381, 0.22346286685798272, 0.22099700261748653, 0.21867886157394947, 0.21648692852545803, 0.2142979064066078, 0.21218051227884777, 0.2100895942156698, 0.20811959895957746, 0.20627076340215453, 0.20442892295246512, 0.20265717536890754, 0.20098005596393884, 0.19934297361551157, 0.1977051032645527, 0.19621422320189763, 0.19478661054643126, 0.19342929736588055, 0.19212598339811338, 0.19091471253103243, 0.18973153084998196, 0.18861095879816137, 0.18750290446101964, 0.1865108528282868, 0.18555935108352287, 0.1846826193453563, 0.18386063372838277, 0.183110674720674, 0.18239410625975475, 0.1817268749033073, 0.18111756437412632, 0.1805599463866901, 0.18003819158009957, 0.17958297769610695, 0.17923970370053188, 0.1788713371675496, 0.17855261706955536, 0.17826714761748505, 0.1780451041126037, 0.17788827100876334, 0.17775102313450972, 0.17765670437616615, 0.17753686330641316, 0.177532509000974, 0.1775778958794045, 0.17764051391373334, 0.17773706330569577, 0.17783968142034157, 0.178004254520481, 0.1782739009458089, 0.17848626225219374, 0.1787301549048655, 0.17893102273903536, 0.17924240091022176, 0.17962859598881864, 0.17997790023203353, 0.18035096967032532, 0.180712152426642, 0.18113286017700136, 0.1815265687212443, 0.18198715794110817, 0.18246071338155492, 0.1830134638479394, 0.18350214576835916, 0.18403636983491514, 0.18454820987959344, 0.18507321083659703, 0.18552189559506377, 0.18607943553183207, 0.18667020067054133, 0.18723009640895638, 0.18779350295364086, 0.18832656642177514, 0.18889782071947248, 0.189498691166896, 0.19006185970584094, 0.19061895548795402, 0.19117832505678056, 0.19173354738332765, 0.19223589325117463, 0.19278557192600432, 0.1933251732567987, 0.19385401189117432, 0.19437136542755828, 0.1949315594052314, 0.19541669153137195, 0.19586132284954746, 0.19632750257081205, 0.19677880480534693, 0.1972455526495347, 0.1976603425839364, 0.19803094143182412, 0.19841633697186706, 0.19878197039701892, 0.1991642164491911, 0.1994831105086797, 0.19976547414311024, 0.20004503068397853, 0.20030137254315855, 0.2004726050397284, 0.2006876835265989, 0.20090191776799463, 0.20105488647182443, 0.20117972867531952, 0.20131607596228765, 0.20137790671104666, 0.20140774129068745, 0.2014142199578676, 0.20139125818134138, 0.2013083661739776, 0.20122817962992653, 0.20114760844743884, 0.2009966595268926, 0.20081371789536762, 0.20061158507489146, 0.20036122044738966, 0.2000258570290147, 0.19971571125174228, 0.19936864685714845, 0.1989831211909023, 0.19856224090214328, 0.19812353684436643, 0.1976258092738088, 0.1970918959149403, 0.1965215973060968, 0.1959147387645313, 0.19526670447037356, 0.19458686561535682, 0.19386984042943026, 0.19311410014166563, 0.1923227901008696, 0.1914911728725585, 0.19062561220242102, 0.18972263946823015, 0.18879723678012367, 0.1878178623021836, 0.18682160273159226, 0.18576733608799575, 0.18467801018670904, 0.18354314425572024, 0.18238488693744873, 0.18119541951242527, 0.17996541259443333, 0.17870034668093177, 0.1774167911403914, 0.17608015450079767, 0.17469815352370244, 0.17329627313055757, 0.1718606374868949, 0.1704422063643524, 0.1689337289609783, 0.16738504124635156, 0.16581832432739485, 0.16422135408534874, 0.1626077804220303, 0.16094942028160245, 0.15929968910633852, 0.1575797448531892, 0.15583394841219902, 0.1540415627355929, 0.1522470929117063, 0.1504157386747605, 0.14857016173418894, 0.14669858586464066, 0.14481358970789734, 0.14289054456792022, 0.1410201722299984, 0.1390416780390851, 0.13704551845416224, 0.13505411847081814, 0.1330201940333577, 0.13097193056719875, 0.12890635802058023, 0.12682553025912569, 0.12476703294959024, 0.12265218028931504, 0.12052997193460331, 0.11839120169754598, 0.11624153654108878, 0.11421241155078153, 0.1120257822196915, 0.10985650555520277, 0.10766303320400378, 0.10546804185562891, 0.10328920063215648, 0.10108850055296192, 0.09893780957676003, 0.09672962459087758, 0.09452406143160766, 0.09232556569848971, 0.09012478094629574, 0.08788558903880096, 0.08569699555405624, 0.08351019714583525, 0.08138417433906289, 0.07919644479739944, 0.07703900421001907, 0.07486494797573134, 0.07270134453259479, 0.07058001225411108, 0.0684351197346751, 0.0663996264210067, 0.06427147515750241, 0.06216395193325807, 0.06007996568427813, 0.05801327839511375, 0.05596615787450138, 0.053942107124103675, 0.05193981662919879, 0.05001492763702006, 0.04805096434696693, 0.04610484948083934, 0.044195915946867684, 0.04231404959774886, 0.04052089852612062, 0.03868736549254642, 0.03685064907019175, 0.03508703251193716, 0.03335468324367531, 0.03167523732621481, 0.030005216640883632, 0.0284147996685513, 0.026809757542339316, 0.025243680761341508, 0.02367683190393614, 0.022195207696748924, 0.02078610779706531, 0.019377694503119047, 0.018011429846655286, 0.016686524038978898, 0.015406873162209896, 0.014204222809185978, 0.013009720628237752, 0.011862896837331107, 0.010762810363801794, 0.009713212183981726, 0.00872933366399099, 0.007777008774676928, 0.0068762745590497595, 0.006052992736606553, 0.0052539313487164705, 0.004505153047804568, 0.003816568702911092, 0.003183348437010948, 0.002580703195136039, 0.0020629838496655306, 0.0016067714022335081, 0.001200171508318775, 0.0008509751878552042, 0.000589637544640815, 0.00035351769540601323, 0.00021271548124737584, 9.482319551966183e-05, 4.074086049296162e-05, 0.0, 8.041144183238742e-05, 0.0002714647554539861, 0.00046935194418138364, 0.0007327907164192686, 0.0010158357591389172, 0.001416840279093645, 0.0019067790417610613, 0.0024324627007800497, 0.003024404520771144, 0.0036487131728592257, 0.004378531839884978, 0.005209424549336905, 0.006066008472156135, 0.0069910737909983575, 0.00795952197419982, 0.009025366519816743, 0.010179712820918296, 0.011378628421914928, 0.012647106181349578, 0.01400166554438439, 0.015407617635717847, 0.016857648826558186, 0.01840870873786294, 0.020052900470209047, 0.021739762783719502, 0.02349761858359099, 0.025298120212918312, 0.027201343538988416, 0.029169300993294785, 0.031211634513793662, 0.03332317133317558, 0.03553081556529546, 0.03777765901629977, 0.040077558911406186, 0.04246828434250111, 0.044928487300207993, 0.04743426207351738, 0.050036141771751926, 0.05272219448170117, 0.055457625513101495, 0.058261776331271296, 0.061177617406806724, 0.06411312407800353, 0.06708932409457033, 0.07016890468264231, 0.07331605530251042, 0.07653489454137714, 0.07981556196203031, 0.08312276496690776, 0.086541537824078, 0.09002390393470136, 0.09359354549751982, 0.09719962578177492, 0.10086114049554556, 0.10459660595136724, 0.10839496376384743, 0.1122423730261701, 0.11616685232501496, 0.12011186826008818, 0.12416247434041323, 0.12827068827598462, 0.1324512326060414, 0.13667221587321496, 0.14095540415750427, 0.14529081613288744, 0.14968320642292537, 0.15418705350023457, 0.15868460318481567, 0.16325819351123136, 0.1678687099188142, 0.1725361789907557, 0.17719984097637045, 0.1819851417440848, 0.1868190404483931, 0.1917040766851581, 0.19663783281987404, 0.20157944120096508, 0.20661366589597413, 0.21176221101668738, 0.2168758662058957, 0.22203687332741515, 0.22714735447382922, 0.2324119648933422, 0.23776282879120983, 0.24309835436838786, 0.2484744914640886, 0.2538889075754836, 0.2593439006281582, 0.26480555968872166, 0.27033946228558586, 0.27590772278155257, 0.2814858385612809, 0.28712372455044277, 0.2927864835460923, 0.29848615273774, 0.30421500610234603, 0.3099857507255804, 0.31576915217035983, 0.3216055664182606, 0.32744023449812126, 0.333302111197319, 0.3391259870600395, 0.34504678368008695, 0.35101292155537384, 0.3569699171258744, 0.3629469670650956, 0.36891777789766905, 0.37493515329714255, 0.3809547395445141, 0.3870041822860482, 0.393066753699222, 0.39914164095380295, 0.4052279857369969, 0.41126385539311744, 0.41737809940945797, 0.42349757471806015, 0.42967685595209815, 0.43579823049139177, 0.44188001899351376, 0.4480191741727495, 0.4541599414055393, 0.46025535764399866, 0.4664026883946459, 0.47260599958529037, 0.47873809852272403, 0.4848687485504636, 0.4909133856945942, 0.49704807321721145, 0.5032132177941676, 0.5093228176237987, 0.5154237878504069, 0.5214689701998942, 0.5275554596816863, 0.5336246519317683, 0.5396821769206827, 0.5457237530031352, 0.5517887836580564, 0.5577909627449394, 0.563724837991781, 0.5696999602997515, 0.5756534836252134, 0.5815860921866026, 0.5874937740048346, 0.5933491225103288, 0.5992113552961884, 0.6050460731250124, 0.6108421097777011, 0.6166208318610414, 0.6223705737009511, 0.6280873876901929, 0.6337722124042847, 0.6394197140650152, 0.6450384936421392, 0.6506789194064792, 0.6562198019550675, 0.6617271153487069, 0.6671250369001516, 0.6725704929748302, 0.6779726692746647, 0.6833340622981703, 0.6886522051246526, 0.6939070185735322, 0.6991388975367187, 0.7043360848079823, 0.709472610154323, 0.7145618738353583, 0.7195956228897958, 0.7245888602635884, 0.7295185504361872, 0.7344123979603552, 0.7392537610988471, 0.7440493820400155, 0.7487827114672249, 0.7534781871948146, 0.7581001765283035, 0.7626672283417767, 0.7672081674418484, 0.771658754196411, 0.7760250001694307, 0.7803659156755534, 0.7846469671891576, 0.7888896701649639, 0.7930457424717121, 0.797094656681434, 0.8011335915825876, 0.8051070608213377, 0.8090413511098226, 0.8128789621721976, 0.816645094489139, 0.8203516547748091, 0.8239908675559412, 0.8275188972753499, 0.8310268916251666, 0.8344959123874159, 0.8378560439490302, 0.8411457114523492, 0.8443866537266574, 0.8475308108396741, 0.8506114673452414, 0.8536120657800496, 0.8565407145618877, 0.8593877633111705, 0.8621715267826218, 0.8648182802505132, 0.8674604413679301, 0.8700235663303058, 0.8725434014088058, 0.8749439553113165, 0.8772212762718284, 0.8794731242514375, 0.8816445684787176, 0.8837579624666766, 0.8857658146444476, 0.8877034248070809, 0.8895515590953659, 0.8913205417437751, 0.8930175106942091, 0.8946263486255378, 0.8961079472198266, 0.8975632839248293, 0.8989357324973722, 0.9002402920824711, 0.9014453967124095, 0.9025865829510966, 0.9036257989218831, 0.9045841060503667, 0.9054627909517332, 0.9062585105289147, 0.907001155791958, 0.9076304416260786, 0.9082050066941738, 0.9086707205400335, 0.9090572458116347, 0.909332904205206, 0.9095638262516744, 0.909633869326578, 0.9097108402119942, 0.9097015015033995, 0.9096378375848876, 0.9094540428292824, 0.9092517190124847, 0.908895081631273, 0.9084601552167005, 0.9078529683515919, 0.9072728228558189, 0.9066072625447251, 0.9058601998701223, 0.9050305802500083, 0.9041071768979365, 0.903115964016126, 0.9021074930984249, 0.9009463458812017, 0.8997088866106716, 0.8983624936084085, 0.8969769790078704, 0.8955435999126894, 0.893999562734273, 0.8923805963254728, 0.8907063412430867, 0.8889359724202388, 0.8870689190135717, 0.8851560695984264, 0.8831695510309626, 0.8810741695257368, 0.8789464516210501, 0.8766970880586173, 0.8744282578639723, 0.8720844964896239, 0.8696685304592299, 0.8671783744129977, 0.8646169181521312, 0.8619852349047623, 0.8592843611084795, 0.8565480515990836, 0.8537076444107553, 0.8507373247943107, 0.847777048426902, 0.8447500507183769, 0.8416635231441959, 0.8385059933392064, 0.8353184011965584, 0.8320321717084816, 0.8286870749855353, 0.8252436765323722, 0.821788219214876, 0.8183037368536701, 0.8147280517483811, 0.8110974804868103, 0.8074322256240557, 0.8036920005427102, 0.7998871716987989, 0.7960469664977777, 0.7921563135718545, 0.7882250567043393, 0.7842351321130692, 0.7801370139876295, 0.7760613766077785, 0.771936958019945, 0.7677398789821013, 0.7635253405424973, 0.7593138939839084, 0.755002604753528, 0.7506510401225769, 0.7462140862587996, 0.7417909149867755, 0.7373056752935514, 0.7328072791639818, 0.7282707128889893, 0.7237138897134227, 0.7191034761801656, 0.7145094024491558, 0.7098284770723707, 0.7051200431371087, 0.7003224171897068, 0.6955694230453692, 0.6907567690487388, 0.6859523681633216, 0.6811206548319726, 0.6763376830009019, 0.6714467424604195, 0.666495681958857, 0.6615740001660774, 0.6566333035630425, 0.6516346609486046, 0.6466647870654223, 0.641733952990402, 0.6367234158631022, 0.6317015654380173, 0.6266277150216948, 0.62159150839194, 0.6166042244530944, 0.6115406169382359, 0.6064724444979532, 0.6013127153913347, 0.5962490646328683, 0.5912083046689005, 0.586128762491933, 0.5810472193429579, 0.5760006790355853, 0.5709144243836944, 0.5657872793633297, 0.5607151352392323, 0.555646124934429, 0.5505547720229876, 0.5454993424689702, 0.5405134185727959, 0.5354623316807267, 0.5304231737585049, 0.5253967781756188, 0.5203839987692293, 0.5153306277983082, 0.5103546743850824, 0.5053919031240405, 0.5004228251538664, 0.4954930621127247, 0.49063133196424846, 0.4857282316243801, 0.4808467050173215, 0.4759831439930327, 0.47114790509682997, 0.46632763658063575, 0.46154222821120633, 0.45678200873187547, 0.451992855116904, 0.44729282980048535, 0.44269959660409985, 0.43804040496419033, 0.4334133564397866, 0.42880858756283075, 0.4242488351635475, 0.41969855504702414, 0.4152090900206035, 0.41075297046901144, 0.40629684559935847, 0.40191438309341393, 0.3975599759558939, 0.3932473731783583, 0.3889705620937142, 0.3847737354250759, 0.3805660603140143, 0.3764039672481779, 0.372278476964975, 0.36819538495803217, 0.36411646111737717, 0.36012448099336375, 0.3561815880738935, 0.35227273239563983, 0.3484074491479562, 0.34455659738254696, 0.3407840860284867, 0.33706420753214605, 0.33337874708597287, 0.32973898671634483, 0.32619762192681334, 0.32264441277960865, 0.3191459512362139, 0.3156927974266809, 0.3122903060014999, 0.3088640966418266, 0.3055725090031993, 0.30237374839937536, 0.2991703692436363, 0.2960175593838096, 0.29291252265302686, 0.2898617576948725, 0.28687380654741934, 0.2839235087661848, 0.2810250930736617, 0.2781934777805083, 0.27539703410867294, 0.27257299854428835, 0.2698921968105999, 0.26725946263877465, 0.2647066005038998, 0.2621675986456165, 0.2596738597079361, 0.25723811431362786, 0.25485335672343706, 0.2525002869819701, 0.2502200723842846, 0.24797641196344353, 0.24579789959610326, 0.2436687458503693, 0.24160097432069186, 0.2395693182625394, 0.23761763710894007, 0.23568247990585478, 0.23379887898526935, 0.23199318297312674, 0.23020796638369073, 0.22839854776675056, 0.2267256998278657, 0.22518980547564302, 0.2235977571107418, 0.22205686586505574, 0.2204814225302035, 0.21905104147220733, 0.21774051732307748, 0.21638833974516955, 0.21508415885295523, 0.21378996448596174, 0.2125841243371623, 0.21138466518136698, 0.2102702932615366, 0.20919654585840636, 0.20816920213602452, 0.20717536696408112, 0.20626943137374978, 0.2053497163979626, 0.20447213133950262, 0.2035718224599339, 0.20278407593949055, 0.20206066092214023, 0.201341139230944, 0.20065860793320314, 0.20000201733982612, 0.19939287736967704, 0.1988554147584106, 0.19830989354106407, 0.19779969858617535, 0.1972628482168841, 0.1968281940163568, 0.19641966281614787, 0.1960431675133376, 0.1956947180965979, 0.19534702723593805, 0.19505653590466415, 0.1948713641443936, 0.19462017555268432, 0.19439757028549448, 0.19417112580157958, 0.19400618706883893, 0.19388254797165821, 0.19376139868477857, 0.1936630323799805, 0.19353138812127058, 0.19348261878071524, 0.1934476538347757, 0.19343231813973608, 0.1934325390942444, 0.19342541825406145, 0.19345782888281196, 0.19358608400174898, 0.1936324208471628, 0.19369487542073194, 0.19378409674935518, 0.1938735453058081, 0.19392105008571114, 0.19404250073092344, 0.19417157641729269, 0.19425994004219177, 0.19440816995757682, 0.19457855519847164, 0.19472958507776375, 0.19488372778658983, 0.1950269621950776, 0.19518712821819909, 0.19539534681848647, 0.1955497399502862, 0.19570602816245275, 0.19584681668546344, 0.19600593214500173, 0.19619132572356818, 0.19634204069378267, 0.19649071869310492, 0.19659911843999223, 0.1967453875842009, 0.19685627722760257, 0.19699130730661937, 0.19711639924531585, 0.19725049629091948, 0.1973520068457052, 0.19743441672780854, 0.19751607273677232, 0.19758576649635037, 0.19762059587753286, 0.1976674643279074, 0.19769938346402324, 0.19771594839307766, 0.19771673194059616, 0.19773254977570903, 0.19769646665853505, 0.19766135409339217, 0.19759166068090267, 0.1975060452455791, 0.19741411632818992, 0.19729294486072274, 0.19716156509825483, 0.19700337154033892, 0.19682643393562604, 0.196606185440649, 0.19639257305490332, 0.19616570687331988, 0.19590617250968967, 0.19562412695890474, 0.19526105262626797, 0.1949399667880666, 0.19463348345201228, 0.1942530467585337, 0.19384798969364253, 0.19338375034150418, 0.19293282677547766, 0.19251696038342914, 0.19200320049834568, 0.19146546507764467, 0.1908972643680356, 0.19031077633916205, 0.18964046702066578, 0.18900944690165508, 0.18834875391720096, 0.18766453666428531, 0.18694430190414563, 0.1862577609773929, 0.1854720459943983, 0.18466116746844713, 0.18376514632047405, 0.18291022668586152, 0.18212690000906104, 0.1812001246774057, 0.18024980719432354, 0.17923364415908716, 0.17823974233224207, 0.1772049741386644, 0.1761578054185311, 0.17508240166447508, 0.17405929621781263, 0.17291771660281954, 0.1717618345793665, 0.1705722056003424, 0.1693590358546097, 0.16816366664581045, 0.16689721368671434, 0.16557753746210754, 0.16427068334909128, 0.16293936329985242, 0.16167143780901536, 0.1602802351328369, 0.15889209386302466, 0.15745902212845164, 0.15600704941518587, 0.1545699792663248, 0.153074702659899, 0.15159427461694158, 0.15005870349059525, 0.14850649811643235, 0.14695366890135442, 0.14536517042314392, 0.14374538078552992, 0.14212583564914033, 0.14048892903896817, 0.13888698539691283, 0.13720951448583452, 0.13557209247115426, 0.13386077806354432, 0.1321390688591221, 0.13039484485027497, 0.12865335808298678, 0.12690206680638283, 0.12513806510130268, 0.1233634599087042, 0.1216143900153081, 0.11981536538281422, 0.11809254158177887, 0.11626896219877204, 0.11444360278878939, 0.11256564752174807, 0.11074266844292172, 0.10896103808198429, 0.10712322987109392, 0.10528447351033626, 0.10352102324600515, 0.10167186140886966, 0.0998287555004191, 0.0979884969893604, 0.09615293884777407, 0.09434758918206226, 0.09251894512001355, 0.09072562387351067, 0.08890776979978006, 0.08709921890756514, 0.08532403900621074, 0.08353193835135994, 0.0817634418553246, 0.07999356645089208, 0.07823683211174089, 0.0765040849433272, 0.07477367831707181, 0.07304214707163324, 0.07134488031917603, 0.06966314988015214, 0.06798289547725601, 0.06633663170535148, 0.06477016514120161, 0.06315157685349025, 0.06155137243251473, 0.05997958231403532, 0.05843152093745854, 0.056928714244848994, 0.055427572698466133, 0.05398476604139673, 0.052534445377291523, 0.051114251411130025, 0.04974995206691888, 0.04838826089844099, 0.04701502935343293, 0.04572565130982094, 0.04446781229703812, 0.0432960181625414, 0.042097233689227215, 0.04093873603867814, 0.03981469082210655, 0.03872916809949903, 0.03765296614253939, 0.03665000717400305, 0.03567679989698479, 0.03475325463168084, 0.03386972153181792, 0.03306439394865742, 0.032259095629543814, 0.03153152947544146, 0.03081268163321436, 0.030141926675737292, 0.029492867589219297, 0.028922925960142523, 0.02833837362810469, 0.02787288950172205, 0.027453266269518054, 0.027126881033840488, 0.026796767393668663, 0.026566235103394377, 0.026334661903405433, 0.02615904546298101, 0.026029238888243753, 0.02596771183733521, 0.02594015579983986, 0.025994507581726167, 0.026104828236122705, 0.0262702845477331, 0.026494681221186547, 0.026741153237578676, 0.0270862891139302, 0.02748843730362481, 0.028002054025245107, 0.028513992664062116, 0.02905117033371017, 0.02969300322221776, 0.030395768380930218, 0.031189829295488206, 0.0320124329022117, 0.0328665605708565, 0.033822105029205546, 0.03484058897580087, 0.03591210372454036, 0.03705928214237735, 0.0383208539590015, 0.03958968205215485, 0.04092606605747344, 0.042261528110322744, 0.04374169108170171, 0.04530346041547459, 0.04690942677650283, 0.048581226481645305, 0.05034000797718232, 0.05214172367605011, 0.054017206010468874, 0.05595382317216995, 0.057958634381674104, 0.059960142122272166, 0.06211023794854348, 0.06437944205679506, 0.06665113589878412, 0.06899087587165796, 0.07140303110472682, 0.07387799297842199, 0.07642538073588341, 0.07903551843601375, 0.08171349620389168, 0.08439059788605824, 0.08721218750662897, 0.09008512045197216, 0.09303500252160748, 0.09604795257857827, 0.09914652362292588, 0.10228337650452944, 0.10549987194206306, 0.10876417554388192, 0.11209367032578724, 0.11543885223721297, 0.11890378097528691, 0.1224746005221301, 0.12605629919087274, 0.12970157262327212, 0.13339648474805832, 0.13716897241268872, 0.14095498951562713, 0.14485535838318725, 0.14881324609460836, 0.15288954275999542, 0.15695424792373597, 0.16102715307000262, 0.16521821533414324, 0.16946499075110905, 0.17372836605621778, 0.1780901837810782, 0.18257115510893265, 0.18702859424601256, 0.19154140049464452, 0.19611311086302, 0.20073330084623286, 0.20535422135598386, 0.21008569872773125, 0.21486515638558887, 0.21966079011087486, 0.2245384797883545, 0.22949187524406597, 0.23445406526337276, 0.23946150975485178, 0.24451189463285192, 0.24960753086906562, 0.25478001522153804, 0.2599556476845445, 0.2651739988559485, 0.2704040800416043, 0.275707997837287, 0.2810389324377106, 0.28641809947424035, 0.29183221182333646, 0.2972580391228175, 0.30274213314579773, 0.3081886533732681, 0.3137424078725276, 0.3193215687851408, 0.32498087373767803, 0.33060275176339193, 0.33622946277425153, 0.3419074134846366, 0.34760909836592246, 0.3533439957890798, 0.35908896350457953, 0.3647927800895632, 0.3705872558238075, 0.37639729418676837, 0.38220137845079327, 0.38804307052033354, 0.3938998764150467, 0.3997647431045768, 0.4056403912857455, 0.41156314281313056, 0.4174529075767894, 0.423322916706424, 0.4292351275858338, 0.43515297586239715, 0.44107385259030374, 0.4469997713413776, 0.4529024854438779, 0.4588346161887975, 0.4647650227136433, 0.47068076581299195, 0.4766060972928734, 0.48245585950368974