0.04504874875340989, 0.04489711069927032, 0.044672495976509956, 0.04446706839331031, 0.044310702008038716, 0.0441315364790122, 0.04385669627171546, 0.04371673072141947, 0.04358050080113029, 0.04345717162176766, 0.04332540767367145, 0.04329436696559623, 0.04315536410113654, 0.04302397481478241, 0.04280779079197452, 0.04270043657303589, 0.042664977172981386, 0.04254886820910989, 0.04243731350253069, 0.04233163911814395, 0.04222815575218719, 0.04204701764045391, 0.04196173527128636, 0.041875742266429164, 0.04181257831996868, 0.04172427996169383, 0.041695631112452676, 0.041605502342588155, 0.041428782352603145, 0.041363275422094004, 0.041298874360533325, 0.04126733632962076, 0.04120336999658193, 0.04114917842373114, 0.04109466443187226, 0.04104592235791664, 0.041021158952278716, 0.04098241951333354, 0.04086626686490316, 0.04085331288551965, 0.04084323591336857, 0.04090211552091161, 0.04089176645456998, 0.040805138844068424, 0.040822802967960925, 0.040844393828056186, 0.040865738740165816, 0.040897899792480166, 0.04104505328242586, 0.04107513165549083, 0.04111798856905895, 0.04112256428930615, 0.04119610369472324, 0.041177192192873684, 0.041281215891956026, 0.041388586748202824, 0.041634121328230744, 0.04173395057211878, 0.04183733979074464, 0.04196469661431892, 0.04210407175510868, 0.042266663400519225, 0.042427977649707876, 0.042611173510221374, 0.0427952089548694, 0.042991501428221626, 0.04308228671076775, 0.043317381105926506, 0.04360009659806587, 0.04384102432006632, 0.044091142552952024, 0.044419386830641436, 0.044680271525027696, 0.04492091529780747, 0.04521396909366367, 0.04551867687083931, 0.04578453583758146, 0.04611929451672237, 0.0465334309786474, 0.046878190808828386, 0.04723709178419287, 0.04751695547821613, 0.047915601796653946, 0.04839313257737216, 0.04880098038994783, 0.04922282642415371, 0.04956563422270911, 0.05002734617992955, 0.050465306148159875, 0.050949765607675945, 0.051442837561729536, 0.05207932249176445, 0.05257533813334446, 0.053062178520172844, 0.05359843251099743, 0.05415090258087199, 0.05459703690780797, 0.05519715416534495, 0.055822714743676144, 0.05643994440214337, 0.05706898911066771, 0.05780189218414592, 0.05844476525397763, 0.059037633813092225, 0.05972600110016721, 0.06042849510727592, 0.06115032298004149, 0.06188134186090337, 0.06263738102445854, 0.06339778073178018, 0.06417427614307449, 0.06502406549898145, 0.0658256766968194, 0.06656345680301999, 0.06741404663339433, 0.0682785991926665, 0.0691999055979056, 0.070087994465301, 0.07098353126075324, 0.07190723287009047, 0.07284741098620773, 0.07370935168138483, 0.07469440954235447, 0.07568241516128547, 0.07669146812580044, 0.077712557151233, 0.07876262969758453, 0.07980749839536787, 0.08093876390330662, 0.08200391064618887, 0.08308809452598832, 0.08410762479040362, 0.0852391801792832, 0.0865112830454357, 0.08765345961605191, 0.08881658999721898, 0.0898741530989209, 0.09109276488620491, 0.09232310178126074, 0.09356558638763146, 0.09482057255662422, 0.09620754169304793, 0.09747327870683617, 0.09861196968640973, 0.09993526572981522, 0.10126864834019073, 0.10268446190556074, 0.1040303607191415, 0.10545205328828358, 0.10682077287465602, 0.1082076621869011, 0.10961521148997914, 0.11103576874891308, 0.11245785302016262, 0.11391209146728484, 0.11538053826505648, 0.11687258540369602, 0.11836702311586193, 0.11985875346488788, 0.12138208126410321, 0.1229173107767392, 0.12433522212851723, 0.12590986645376254, 0.12755215776863835, 0.12912749957113648, 0.1307118724106826, 0.1323232857956733, 0.13392355444154627, 0.13557796723530713, 0.13719256773726263, 0.1388192579755975, 0.14039866100424797, 0.14205519825856552, 0.14380045737603842, 0.14546079928426275, 0.1471326845699336, 0.1488006489017468, 0.15049522059149942, 0.15212814090993057, 0.1538481870670348, 0.1555718399732649, 0.15723224549614642, 0.15897178588532923, 0.16083047160472141, 0.1625553289723652, 0.16428767537899325, 0.16597947366087581, 0.16773075189365616, 0.1695518286194817, 0.17130013017987514, 0.1730545698267142, 0.17468535024744483, 0.1764659877320968, 0.17833465748664237, 0.180097281602649, 0.18186223949229877, 0.18353916299814643, 0.18531845273580108, 0.18713745449708907, 0.18890261479026352, 0.1906661732950902, 0.19241964702272388, 0.19418005457128423, 0.19592758498687474, 0.19768275749010597, 0.19943365122316423, 0.20121100984789247, 0.20294856002720812, 0.2046712256828129, 0.20640270601351923, 0.2081288920460987, 0.20981663775176704, 0.21153488833435077, 0.21321514359731406, 0.214919664663664, 0.21661343011734735, 0.21831107408488007, 0.21998123279558865, 0.22172438677167813, 0.22336313921909812, 0.2249956078403837, 0.2265325801428557, 0.22816055915378233, 0.22975639875106812, 0.23135812952537677, 0.2329443123787517, 0.2346471081272073, 0.23618515137553728, 0.23760199504722496, 0.23913591584869973, 0.24065249949581322, 0.24211236571602793, 0.24359861376117517, 0.2451234272826774, 0.2465618512441139, 0.24804377884200668, 0.2494401947387108, 0.25082199472426336, 0.25213591136136515, 0.2534920962091761, 0.25476420039509867, 0.25608722048118326, 0.2573854471491086, 0.258667148983637, 0.2599150088602684, 0.2612186717443207, 0.2624078851294977, 0.26357709441664545, 0.2647058679454101, 0.2658350822400978, 0.26687062128916694, 0.26796124053309855, 0.269023398868916, 0.2701975795736649, 0.2711852141292301, 0.27201190746611714, 0.2729750461805542, 0.2739074863325493, 0.27480935706166876, 0.27568073372749113, 0.27662124104001645, 0.277419077507569, 0.27819197113622446, 0.2788851572460419, 0.2796123959954598, 0.28026677148799967, 0.28093829844892143, 0.28157652163828967, 0.28223051200378035, 0.28279616093402105, 0.28335753054326446, 0.2838586599659575, 0.28433005450955207, 0.2847727708229033, 0.28518280757890113, 0.28547507410341105, 0.28583312238088504, 0.28615419811852155, 0.28653331000115456, 0.28676934351748373, 0.28684714158979124, 0.2870369204432292, 0.28718754103784944, 0.2873354644377676, 0.28740477115069357, 0.2874807835345907, 0.2874732749502635, 0.28743247151669277, 0.28739559523934416, 0.2872824915662376, 0.2870393333478957, 0.2868738898672125, 0.2866698302028318, 0.2864879295101986, 0.2862000472796826, 0.28591545919188455, 0.2855540756296028, 0.2851601020187118, 0.28469224542332716, 0.2842368957622363, 0.28369155549762315, 0.2831708353871611, 0.28261106723044344, 0.2819980489023911, 0.2813634772402367, 0.28074263446453684, 0.28002491630952087, 0.27927256276843193, 0.27845618103536707, 0.27763828157420506, 0.2767825118932351, 0.2758926333463374, 0.27496699314790535, 0.2739895459971458, 0.2729952846173274, 0.2720941546932259, 0.2710122694335143, 0.26990253945239256, 0.2686206084576374, 0.2674714461706353, 0.26633856877863127, 0.26510820197123053, 0.26384480681837374, 0.2626368142450187, 0.26129701508661923, 0.25981240160202373, 0.2584325400533764, 0.2570180990582684, 0.25555347308363, 0.254074067881333, 0.2526657261800567, 0.2511070049008409, 0.2495221958507145, 0.24794216633256302, 0.24630086908424784, 0.24451741907257302, 0.24284159354129498, 0.24113426046593442, 0.23950898948846586, 0.2377270840772417, 0.23589157396931826, 0.23406831044113216, 0.2322205737874115, 0.23034212168895052, 0.22844716643956853, 0.22646303255119438, 0.2245290362047674, 0.22256840478259024, 0.22055438482393555, 0.21854695349853487, 0.216555016344389, 0.21449287008876333, 0.2124098168628636, 0.21037997755581517, 0.20824775415415805, 0.20601902659331964, 0.20386742402247907, 0.20169650690988933, 0.19959526214201778, 0.19737700011953951, 0.19507165034286497, 0.19283896433775227, 0.19059023846806183, 0.18828870077320672, 0.18601496912824486, 0.18383967504877483, 0.18152082101417324, 0.17919455121488165, 0.17683639918487942, 0.1744985426697213, 0.1721848407792869, 0.1698262796863033, 0.16746193108571594, 0.16506262656715645, 0.16269113911220218, 0.160373455808769, 0.15798172889775053, 0.15558802413397252, 0.1530879971610899, 0.15070407092395882, 0.14830315906397706, 0.1459072698297088, 0.14350593955465935, 0.14124726393144757, 0.13881986346191752, 0.13630385416154986, 0.13390042133129404, 0.13149749574674535, 0.12913666804325527, 0.12673190160020076, 0.12437466885557955, 0.12197511287695685, 0.11958387881645235, 0.1172010970584519, 0.11482696446758606, 0.11238989648079648, 0.11004296572152979, 0.10770157077134192, 0.10537811279362598, 0.10304922385940063, 0.10073585187031907, 0.09842488645314602, 0.0961248094028212, 0.09384773795121717, 0.09157004594474578, 0.08939408368656605, 0.08713293215749975, 0.08489142100622793, 0.08267430609105891, 0.08047111676047577, 0.07829256685976155, 0.07612829393682136, 0.07398421016112887, 0.07184412715510756, 0.06974295948801194, 0.06780369242205336, 0.06572468899125536, 0.0636743713826515, 0.06153939852689976, 0.059558806769703494, 0.05768062036674419, 0.05573188597778633, 0.05380978411796229, 0.051855515362929476, 0.04999412282356362, 0.04830153078667795, 0.04646938792661488, 0.044670176799511324, 0.04288866497099719, 0.04115569543192899, 0.03951564923633633, 0.03783653072887408, 0.036191725648004894, 0.034620003795321055, 0.033037743856221005, 0.03138333539085162, 0.029885513818465607, 0.028400226916915183, 0.026962873670376905, 0.02555480986924553, 0.02423722446977059, 0.022882399014589612, 0.02156084869299402, 0.020276233838206384, 0.01902683900578432, 0.01782107821734054, 0.01664185783115461, 0.015562786496082741, 0.014448680024744491, 0.01337507425096112, 0.0124396663111201, 0.011433944917244865, 0.010401784066524212, 0.009495080573940908, 0.008628155363121434, 0.007851605370823082, 0.007057824832928861, 0.006246316316373538, 0.0055452218783280825, 0.004882856824741102, 0.004403207846301984, 0.003801047901244713, 0.003163314469965126, 0.0026662086944760984, 0.0022105265718039544, 0.0018028544057939167, 0.0014293816507129334, 0.0010848639245453825, 0.0007971314003400917, 0.0005508082905758084, 0.0004979273409005531, 0.0003157844074721064, 9.922123321036206e-05, 2.7728961032450694e-05, 0.0, 8.451379160046685e-05, 0.00013538264613626653, 0.00016671467911329448, 0.0003202827434853076, 0.0005164311654671463, 0.0007683405745404739, 0.0010483514195395662, 0.0015108042893249947, 0.0018605866371851395, 0.0022618239568649072, 0.0026056502308446634, 0.0031202465595561936, 0.0036904001508263123, 0.004288470758195889, 0.00493002985360548, 0.005766931206473896, 0.006476296908929915, 0.007100552097709486, 0.007930124752588264, 0.008801760860115936, 0.009789101285620454, 0.010736057184813217, 0.01169698754651395, 0.012740847364743891, 0.013828590335172643, 0.014951931465685745, 0.016128116541322787, 0.01742575435341211, 0.01867815298856495, 0.019977944780292467, 0.021386489997456227, 0.022771242274211033, 0.024242574357721855, 0.025719637620556117, 0.027245956710726108, 0.028799218646962728, 0.03042359584971821, 0.0320523178303493, 0.03377160007783551, 0.035532655609215404, 0.03729780004718558, 0.03914676500665853, 0.041118295142690116, 0.043035511790029186, 0.04499703964578246, 0.04698600140754774, 0.04903661712338648, 0.0511601460472318, 0.05329033702114033, 0.05546360802997694, 0.05768925300798903, 0.05994598042284381, 0.0622531158819675, 0.06459283029708814, 0.06697434577980153, 0.06944128147135677, 0.07189946732693289, 0.0743630857528471, 0.07691126750249182, 0.07949894805904271, 0.08209644370236703, 0.08476596957595421, 0.08749209683423385, 0.09023314136173209, 0.09301223013792502, 0.09578179270937787, 0.0986422932682451, 0.10166976759797636, 0.10458314664693602, 0.10753893305948244, 0.11054265674901512, 0.11357951975261672, 0.11665804931351774, 0.1197739654114151, 0.12292846268919765, 0.12603105525737474, 0.12927207181889616, 0.13264923826074915, 0.13594054487726895, 0.1392697078734628, 0.14250700020733106, 0.1459260251600565, 0.14944546650610938, 0.15291302319494235, 0.15641402933491597, 0.15999065980754187, 0.16355236967560294, 0.16701846626912367, 0.17066608689517013, 0.17434019191717007, 0.17814905410104853, 0.18186394158386224, 0.1856615967398165, 0.18943724310602844, 0.19324822185632898, 0.19702664618208454, 0.2009139981786708, 0.2048433802618686, 0.208786822116272, 0.21275956531214507, 0.21667638798734412, 0.22071751431509073, 0.22491284897924596, 0.2289850114637879, 0.23308875732123266, 0.23719876194224784, 0.24136633361287907, 0.24551607981835427, 0.24974474853921427, 0.2539978327656093, 0.25835691175357167, 0.262648303479734, 0.26695700733825883, 0.2713065351617575, 0.2756826397623337, 0.2799769745767523, 0.2844181371356387, 0.2889304252191699, 0.2934031162393586, 0.29789829319939987, 0.30232922357864106, 0.3068797059519824, 0.3115875954840746, 0.31615476230466233, 0.32074761316934297, 0.3253571243313709, 0.32999985554151506, 0.3345609119017585, 0.3392618650324222, 0.3439785475109795, 0.34876838141622785, 0.35351005014894715, 0.35817656492238203, 0.3629689068255073, 0.36777469886113584, 0.37259921033341614, 0.37743230187582527, 0.38228812034449655, 0.3871493801590519, 0.3920257445387246, 0.39689913852467223, 0.40180759404998173, 0.40671824409415924, 0.41165530190437366, 0.4166051119062005, 0.4215659487867752, 0.4265411406831447, 0.4315204034879588, 0.4365208793905682, 0.441532658835135, 0.44654735431055265, 0.45158206329996337, 0.45663010104452845, 0.46168426287847564, 0.46674811463918714, 0.47180171032664003, 0.47688633545142645, 0.4820225052733147, 0.48711621768407204, 0.49221930823900295, 0.4973637491297534, 0.5024794351043104, 0.5075912682583611, 0.5127261229460065, 0.5179166792089205, 0.5230580701486565, 0.52820753523094, 0.5332970756934028, 0.5384680523314075, 0.5436338447849187, 0.5488080078760562, 0.5539824681475637, 0.5591307877169066, 0.5643081813065447, 0.5694572756848049, 0.5746334559221924, 0.579805619457359, 0.5849867883158084, 0.5901490843794484, 0.595297997708803, 0.6004540428285203, 0.6056052836856843, 0.6107171291389056, 0.6158621476783565, 0.6210663582745891, 0.6261872804149914, 0.6313038832129345, 0.6363337412510452, 0.6414496778258223, 0.6465266374677061, 0.6516235532795623, 0.6567074419102313, 0.6618811662846, 0.6669259114825226, 0.6718113135036454, 0.6768592048265711, 0.6818890047172186, 0.6869385081545248, 0.6919279851317728, 0.6968773710608702, 0.7018383651320692, 0.7067815772048676, 0.7116691799448897, 0.716580690246115, 0.7215006954297665, 0.7263665595457571, 0.7312128140604491, 0.7361270948583083, 0.7409213512153475, 0.745699249294195, 0.7504594565790444, 0.7552007059731772, 0.75978953843258, 0.7645060268822509, 0.7691698147635058, 0.7738295147391778, 0.7784580106763794, 0.783061850961511, 0.7876270694053263, 0.7922510255342657, 0.7967424704426985, 0.8012072437580946, 0.8056540107894443, 0.8100608505376646, 0.8143762529543869, 0.8187310572092471, 0.8230508417658979, 0.8272518242585967, 0.8315105340014747, 0.8357246727710312, 0.839901272081282, 0.8440364572669187, 0.8481530096062396, 0.8522021612627148, 0.856202544109142, 0.8601710317893484, 0.8640974482977024, 0.8680596777200416, 0.87189054595093, 0.8755825828145144, 0.8793463676531408, 0.8830629695695393, 0.8867124967674946, 0.8903362621661081, 0.8940102981858885, 0.8975225413648356, 0.9009904414831642, 0.9044111891723956, 0.9077871387127544, 0.9109928408346634, 0.9142876899772725, 0.9175259209829965, 0.9206880125147588, 0.9238156155829551, 0.9269001686686964, 0.9299104294871495, 0.9328637024263281, 0.9358234045396953, 0.9386538255456826, 0.9414201256741117, 0.9441422458962264, 0.946807745687065, 0.9494077178024699, 0.9519588004656998, 0.9544310471306116, 0.9568655081064901, 0.9592384136906903, 0.9615999495263229, 0.963842051040689, 0.9658935152792896, 0.968031247836223, 0.9700999860120681, 0.972101661110971, 0.9740330129869026, 0.9759614169886734, 0.9777480506695256, 0.9794701432461739, 0.981187528190211, 0.9827711891306212, 0.9841777412526124, 0.98564922230596, 0.9870495611407845, 0.9883755724767995, 0.9896342367616753, 0.9907759745469872, 0.9918979922593553, 0.9929461891958925, 0.9939176034263054, 0.9948194153041043, 0.9957279456214698, 0.9964732245417589, 0.997149969721732, 0.9976890316727034, 0.9982357031394389, 0.9987182032427876, 0.9991158109678767, 0.9994401940683832, 0.999637453539675, 0.9998221354574026, 0.9999729416202653, 1.0, 0.9999538558725313, 0.9999356962800686, 0.9997302232816252, 0.9994587470539243, 0.9991169575993062, 0.9987060588610102, 0.9981747988668982, 0.9976302668778835, 0.99695174566278, 0.9962677348204152, 0.9955068587734895, 0.9947252056491687, 0.9938052693655509, 0.9927511617836006, 0.9916948519168526, 0.9905630386499636, 0.9893922427863457, 0.988106651734706, 0.9868096983558127, 0.985373155344832, 0.983868715069705, 0.9822096280259213, 0.9805797706618271, 0.9789257303599038, 0.9771440513812428, 0.9752933368225488, 0.9733918128620976, 0.9714015879019658, 0.9693377014129029, 0.9672142588827687, 0.9650238021883573, 0.9626817906893641, 0.9603691606705573, 0.957945120665362, 0.9554976108360581, 0.9529794473440593, 0.9505062875556507, 0.9478363796806408, 0.9449803684314585, 0.9422058168810723, 0.9393643350453329, 0.9364474726235759, 0.9334773316051448, 0.9305414955001498, 0.9274328740125043, 0.9242684805615465, 0.9209327158021284, 0.9176724634418434, 0.914359226400284, 0.9109770499204163, 0.9075369208927553, 0.9041216804113286, 0.9005588899443675, 0.8969690656746288, 0.8933040279201516, 0.8895912881086349, 0.8857920066845243, 0.8819899255353734, 0.8780608140583253, 0.8741721791952051, 0.8702322128992079, 0.8663093739872368, 0.8622627677070174, 0.8582170399747994, 0.8540792613375393, 0.8499024006003993, 0.845553079115851, 0.8413165661780898, 0.8371314997141908, 0.8327948013612718, 0.8283273725862988, 0.8239314191809051, 0.8194958188659799, 0.8150712077957911, 0.8105550141658839, 0.8060083199166744, 0.8014287302034291, 0.7968192537537188, 0.7922413684867009, 0.7875676842244097, 0.7827694864119872, 0.7780626283024071, 0.7733280588589286, 0.7685460842706714, 0.7637633237737355, 0.7590181626066796, 0.7541802420381318, 0.7493244517863539, 0.7443472670370117, 0.7394718780759226, 0.7346426585010015, 0.7297191170601964, 0.7247821832813033, 0.7198787200777952, 0.7149126529622554, 0.7098150894118027, 0.7048506549806742, 0.6998734081381426, 0.6949096736528055, 0.6899091152276746, 0.684957868132573, 0.6799392757774043, 0.6749203315177436, 0.6698186264618079, 0.6648121093487783, 0.6598358625465472, 0.6548220319193115, 0.6498107490194904, 0.6448178988333281, 0.6398134002127255, 0.6347569956550068, 0.6297746792701001, 0.6247979424097022, 0.6198576427412926, 0.6148926907889192, 0.6099620468344076, 0.6050181625470198, 0.6000891091051498, 0.5951447031111552, 0.5902517560222554, 0.5853336139097319, 0.5804781775522405, 0.5756382507848853, 0.5708201070296307, 0.5660146396387908, 0.5612207257064761, 0.5564568779267847, 0.5517145487678006, 0.5470438496004716, 0.5423417043156812, 0.5377438135868905, 0.533087600964978, 0.5284644300671356, 0.5237420573636782, 0.519201800486919, 0.5148082534263646, 0.5103057903644649, 0.5058385138958843, 0.5014180368250368, 0.49702029708123235, 0.49264767313268587, 0.48832471253639753, 0.48403819307953644, 0.4797526223401247, 0.47554483518154356, 0.471304251391904, 0.4671774684415006, 0.4630841448579572, 0.4591055642406387, 0.45507278931372436, 0.45108316331882486, 0.447133592379553, 0.44322639111647094, 0.4392411104763349, 0.4354350479816333, 0.43170978268311655, 0.42797291627298406, 0.4242777989611818, 0.42068232555258495, 0.4170656660575375, 0.41351072315752674, 0.40998636641537195, 0.40651009702172797, 0.40304273975279925, 0.3996676483479282, 0.39627648057462606, 0.39300153586048925, 0.38976977812142716, 0.3865526206082973, 0.38341326862105124, 0.38042861999417726, 0.3773633687347896, 0.37434949327346734, 0.37128382909541036, 0.3683848303901604, 0.3655338663134018, 0.36272458232866234, 0.35996134130862617, 0.3572494354293946, 0.35457877154793216, 0.35193090781918895, 0.34935807973441546, 0.3468314306824984, 0.34433325551501043, 0.3419019319210718, 0.3395930836337327, 0.3372437413599475, 0.3349447935498205, 0.3327120268283949, 0.330510199058049, 0.3282715754856978, 0.32617954170830127, 0.32413116559811456, 0.3222408587480371, 0.3202656408931587, 0.3183259677998202, 0.3164521065190916, 0.31462576282926896, 0.31278088456419356, 0.3110556408636909, 0.30943743186834105, 0.3077872553210801, 0.3061821758317834, 0.30462472682421987, 0.3031072609340136, 0.30155785476687846, 0.300135532092323, 0.29875081183938695, 0.29737262906490625, 0.2960668465108208, 0.29489131783709305, 0.2936447096303341, 0.2924389681961115, 0.2911426005055754, 0.2900325143920791, 0.28907587967212983, 0.2880125533386065, 0.2869874857809535, 0.28586094812812746, 0.2849271370496099, 0.28401777787038884, 0.28314006238440675, 0.2822902583946151, 0.28153209084812353, 0.28073010242665175, 0.27989740704859295, 0.27916519984910976, 0.2784593614728618, 0.2778873934885108, 0.2772198202937785, 0.276611440514215, 0.27600191831179727, 0.27542282217707736, 0.27474537286941253, 0.2742390300499132, 0.273761705508714, 0.27329237192872397, 0.2728423474335384, 0.2723753022046378, 0.2719671608774023, 0.2716451528700201, 0.2712597355952521, 0.2708936140057509, 0.27061441676902637, 0.27027539178449, 0.2699224283762925, 0.2696269823022458, 0.26934713375817526, 0.26905247078794664, 0.2688044989931807, 0.26860179343875995, 0.26837075082742384, 0.2681512222787625, 0.2678361059693893, 0.26765013519795505, 0.26751751051091077, 0.26733057104602065, 0.26714905980768144, 0.26703932794854757, 0.2668584218089671, 0.26658039251704846, 0.2664262780705425, 0.266271400410637, 0.2660665646395129, 0.26591566039021514, 0.265832286941729, 0.26566371339581907, 0.26549484211015406, 0.26526128823526623, 0.2650977515881006, 0.26502456145983655, 0.26483669125925335, 0.2645939379467495, 0.2644098100729486, 0.26421957863138285, 0.26411251431913013, 0.2638971242511957, 0.26356640141590926, 0.2633586405662668, 0.2631394362866117, 0.2629053301242925, 0.26266303512349165, 0.262377403924217, 0.26211413712920345, 0.26183625600876165, 0.2616351268347144, 0.2613162050677926, 0.2608943893377322, 0.260566645849885, 0.2602220442500156, 0.2599780709252573, 0.2595846361293532, 0.2591757134884011, 0.25876059792035505, 0.2583324688373534, 0.25787572848912804, 0.2574207953684128, 0.25699688177402386, 0.25650272431301413, 0.2559937834444393, 0.25545286002952555, 0.254913887931423, 0.254312769046731, 0.25374274303072375, 0.2531512262139167, 0.2525544949623277, 0.25191777798982656, 0.2512962515992537, 0.250613351410664, 0.24991139146092775, 0.24910829982407573, 0.24837728996934444, 0.24757577045506343, 0.24680132118357156, 0.24600020493103258, 0.24526614492906001, 0.24440182214696782, 0.24351127399866984, 0.2426080921444493, 0.24168429726946516, 0.24074298887056586, 0.23977708605051667, 0.23871686748703405, 0.23771845947827583, 0.23669489336094762, 0.23571201348468512, 0.23463142984515903, 0.23354714694182369, 0.2324243288586291, 0.2312822006439376, 0.23000138971907924, 0.22883520948906946, 0.22777323623673937, 0.2265386210034956, 0.2252866519013244, 0.2238847781663881, 0.22261399227506806, 0.22130629720630574, 0.21998694296786167, 0.21864327991390628, 0.2172892560614224, 0.21589790704943124, 0.21459645024621574, 0.21314937657380353, 0.21168852459341114, 0.2100894244247351, 0.2086156426292618, 0.20714633812525104, 0.2056268040931071, 0.20408871783399923, 0.20263056559957, 0.20104453430481772, 0.19936042267260085, 0.19776192629602077, 0.19614648238978377, 0.19446402057873263, 0.19282270054749293, 0.19117461434876087, 0.18949637306227232, 0.18780234780306213, 0.18614223183708523, 0.18441254364836304, 0.18275022454070738, 0.18098884789554778, 0.17922134426537484, 0.17729551506279478, 0.17553399557774838, 0.17384196140291475, 0.17204001503401636, 0.17022962496192443, 0.16847151833440627, 0.1666375736038345, 0.16466897258582325, 0.16284336362093774, 0.1610062545815884, 0.15922568066714768, 0.15736031936202513, 0.1554756049404892, 0.15360315767051555, 0.15172599065606668, 0.14977605291193447, 0.14789968819724433, 0.14609959449602583, 0.14419977663646116, 0.1422997093664011, 0.140332721738172, 0.13844145986951786, 0.13665974065206574, 0.13474888231117235, 0.13284294389077556, 0.13085854018647294, 0.12897269659178381, 0.12711145614229807, 0.125223491563717, 0.12333848616325846, 0.12138672828380925, 0.11951800471684934, 0.1176579462321693, 0.11579024655079893, 0.11392553964600476, 0.11216590287771255, 0.11029687235095305, 0.10842747643332325, 0.10658190879987511, 0.1047466054825511, 0.10290860328227108, 0.10109581415922031, 0.09919009904697253, 0.09741049288094975, 0.09563567090777225, 0.09395168874792936, 0.09217906553673505, 0.09040611432650293, 0.08866082238340021, 0.08692796823559358, 0.08520299483216011, 0.08349665544684844, 0.08176103980795311, 0.08008678589725897, 0.07842405077423664, 0.07685352824740348, 0.07520573210159996, 0.07346483582088706, 0.07186683275605209, 0.07028036977012458, 0.06872917398159706, 0.06716542677584547, 0.06570830769761983, 0.06416385354400661, 0.06264061582601439, 0.06105987926184168, 0.05958801097722541, 0.05816475442919881, 0.056721115438608714, 0.055296117574706774, 0.053960079521733734, 0.05256382088663279, 0.05108108521447305, 0.04974403801388874, 0.048422930083388376, 0.04717709491111871, 0.04588204285164604, 0.04462242597692853, 0.04336692563434759, 0.042132862774223866, 0.040905380919743856, 0.0397155905512162, 0.03854599914734332, 0.03739662794554108, 0.03626749895495109, 0.03508679301468122, 0.03400729390925157, 0.03299304449602654, 0.031940477031733895, 0.03090802921617218, 0.029979020467782565, 0.028976417540471925, 0.027890950896967314, 0.026951103469662323, 0.026028847197931256, 0.025242072480705494, 0.02434108178672851, 0.023403081450078293, 0.022559246788110002, 0.02173552532072089, 0.02095139460058185, 0.020165074606526417, 0.019324509352648324, 0.01858912622349181, 0.017869842135388093, 0.01731885246823802, 0.01661355540265962, 0.015901089448099197, 0.015249846755002178, 0.014620267202276523, 0.014046048684296571, 0.013453740950729468, 0.012898089756190072, 0.012347115260878687, 0.01177671203574221, 0.011272956289393307, 0.010786924225368017, 0.010244877312486581, 0.009802798732898828, 0.009476421125539964, 0.009047368295691496, 0.008637568365125055, 0.008301932781525183, 0.007921860450634692, 0.0074726828303999454, 0.007144429269432608, 0.006830065398710869, 0.0065132226781877, 0.0062285578235210136, 0.006075870050419234, 0.005801738958383393, 0.005547109230033976, 0.005214655144403251, 0.005008315220424522, 0.004888453177058097, 0.004695382354707709, 0.004517909650593992, 0.004326002055894434, 0.004181557788181366, 0.004171723813167468, 0.004035826595682583, 0.003918401881987162, 0.0037300260896500612, 0.0036570518806490165, 0.003608891291603541, 0.0035540873467068833, 0.003509809638743395, 0.003526348348816735, 0.0034957642661846092, 0.003526597990857642, 0.003513999828487522, 0.003515262280953042, 0.0035000245644805734, 0.003529906835132827, 0.003703252175739888, 0.0037348912602634165, 0.0037827198850606896, 0.003869759365392162, 0.003942627675070844, 0.003936067274811531, 0.004046761323661588, 0.004163582015405884, 0.004412056310560642, 0.004524675871708356, 0.0045846527723408205, 0.004729719272351242, 0.004881637909393647, 0.005005765782521522, 0.005174704026194686, 0.00538845547317143, 0.005560264568223815, 0.005738440682573041, 0.005940651025571107, 0.006128447851673884, 0.006383256905093679, 0.006576276800873417, 0.00677865020310698, 0.006966774258078824, 0.007188605670552563, 0.007405118418555255, 0.00764030997387139, 0.007880403738541729, 0.008154660036789354, 0.008400479629385602, 0.00866069752706741, 0.00891765359502405, 0.009180747395360801, 0.009479089465000739, 0.009749951760927172, 0.010160148182921061, 0.010428061746833759, 0.010709759497817066, 0.01094839362450293, 0.011260857823876475, 0.01159031469408982, 0.01191554148013312, 0.012247810315331334, 0.012539450432551546, 0.012890898405879649, 0.013325980522337359, 0.013674826686008364, 0.014032304814501429, 0.014391502399792361, 0.014766007753438686, 0.015268694959367949, 0.015642535804922073, 0.016030357359026543, 0.016331586162740983, 0.016757195727829945, 0.017198535985985617, 0.017635040296874672, 0.01807857682036796, 0.01850324188218774, 0.018964829184016894, 0.01948658901309644, 0.01995443813382908, 0.020432572219157653, 0.021001030901137387, 0.02148976963506112, 0.022042499400780815, 0.022554574412588554, 0.02308354262122229, 0.02364342948895001, 0.024202458202814366, 0.024694332293726712, 0.025295709895594785, 0.025907825265662366, 0.026534421817072405, 0.027169042558811918, 0.02793033485018728, 0.02857573787519003, 0.02924088950611626, 0.029871478007876227, 0.03058176403993512, 0.03136823608767865, 0.03210275555757236, 0.03285711639093881, 0.033629581816692525, 0.03442360391466056, 0.03521281596043192, 0.036049431653987746, 0.036904681151112825, 0.037774106009245925, 0.03866858181364708, 0.03962197867625736, 0.0405515009799789, 0.04150402551664301, 0.04249610732477087, 0.043493297749623766, 0.04451358046618132, 0.04556063762212956, 0.04663279386603678, 0.047771176186209574, 0.048889328640744883, 0.04995588839310877, 0.05114104754471351, 0.05235032662495683, 0.05355026618731219, 0.05481457292578298, 0.05623735119850638, 0.0575349184218599, 0.058866555771893786, 0.060121060419512214, 0.06153442890263145, 0.06309290340360049, 0.06454744433795784, 0.06603795669089728, 0.06754310881619394, 0.06910800277811231, 0.07058674738456254, 0.07223652449228606, 0.07391474318287546, 0.07563901590939814, 0.07737580912937292, 0.07916185285599739, 0.08096330774655539, 0.08280030165054827, 0.08466530419477436, 0.08657627388350264, 0.08852085822832231, 0.09050660417201416, 0.09253021762681325, 0.09460695420715767, 0.09670609405659226, 0.09897939583867085, 0.10114251297714291, 0.10335411175950876, 0.10558242362376939, 0.10789279222986092, 0.11026924614788963, 0.1126664876718971, 0.11510951244205572, 0.11751156058745593, 0.12005648446538217, 0.12259939779886829, 0.12523121354371797, 0.12790233019671185, 0.1307393683338534, 0.13347580879585996, 0.13625127118689911, 0.1390862509614918, 0.14196888857566006, 0.14480434292551253, 0.14779387986102477, 0.15091850459090428, 0.15398103165532076, 0.15709215889801387, 0.1601749739273244, 0.16339251326930576, 0.1666228882322275, 0.169932584013923, 0.1732853738280435, 0.1767325242039932, 0.1801669735822926, 0.18362131094240078, 0.18715457073060932, 0.19070943382879088, 0.19433818160942, 0.19801201046983155, 0.20185858829696696, 0.20560735683623657, 0.2094058471396944, 0.21326011910019113, 0.21716550448192112, 0.22101026497287496, 0.2250298356443977, 0.22908415162880888, 0.23319090135611156, 0.23734068523320315, 0.24149130276785205, 0.24573320169799426, 0.25008323350349343, 0.25439943824967237, 0.2587612672921794, 0.26315368368860215, 0.26760757432615845, 0.2720741617371991, 0.27661913486792244, 0.28120549894459845, 0.2858282654860598, 0.2904977003316455, 0.2952322970289375, 0.29997975997915377, 0.30476878229722787, 0.30963640287599503, 0.3145022333652127, 0.3194362528926542, 0.32438203740799537, 0.329369626578226, 0.3342983769265347, 0.33937906899719583, 0.3444733586093039, 0.3496227671049968, 0.3548039089771747, 0.3599856352941748, 0.36523370257735077, 0.3705339974791628, 0.37583780597347205, 0.38117195675689947, 0.38662251158399774, 0.3920049289116451, 0.39728544259322696, 0.402750896797544, 0.4082397515324309, 0.4137404214746393, 0.4192769515710562, 0.4248599654825085, 0.43043703962005353, 0.43603670266760086, 0.4416549783077629, 0.4472980508982337, 0.45293676400848937, 0.458622378692928, 0.4643250752394332, 0.4701715107099109, 0.47589012227324917, 0.48147070019901084, 0.48725161781031373, 0.49304186583541504, 0.4989112248609017, 0.5047098847154209, 0.5104729211368092, 0.5162997815708968, 0.522133237270549, 0.527985498164707, 0.5338278921658605, 0.5397418710910896, 0.5455840082942531, 0.5514323697884246, 0.5572689758611525, 0.5631269450064957, 0.5688825525133671, 0.5747531484080056, 0.5806157322729913, 0.5865563260461144, 0.592390319778856, 0.5981214068242834, 0.6039564619108202, 0.6097782195751071, 0.6156187266310099, 0.6214078587051204, 0.627105104149084, 0.6328760328509466, 0.6386268594383787, 0.6443505549131148, 0.6500604118774478, 0.6557921090821413, 0.6614511977258131, 0.6670890272183468, 0.672637451361217, 0.6782375994002664, 0.6838156069057809, 0.6893568818587804, 0.6948683684778854, 0.7004373373113696, 0.7058753562222991, 0.7113101871739729, 0.7166880117933015, 0.72203610818992, 0.7272971343742435, 0.7325873798458734, 0.7377546063892002, 0.7429781739491048, 0.7481565026594118, 0.7533299188500745, 0.7584110519828074, 0.7635177364748965, 0.7684996457731011, 0.7734387569366769, 0.7782338501549013, 0.7830951518299702, 0.7878641939148326, 0.7926236537802557, 0.7973264940052561, 0.8020343328230666, 0.8066147355779473, 0.8110686640256091, 0.8155477569866654, 0.8199659444166867, 0.8243031086814885, 0.8286003295191283, 0.8328648253586272, 0.837030110017334, 0.8411322929711734, 0.8451345804511584, 0.849112471088142, 0.8530601501394194, 0.8568971593506663, 0.8606672675735015, 0.8643597073800493, 0.8679943530859228, 0.8716484788666106, 0.8751302835683934, 0.8785451250025511, 0.8818098185915698, 0.8850965148376744, 0.8883154865949107, 0.8914487686233898, 0.8945054103759903, 0.8974161698415501, 0.900326213978582, 0.9031815661716606, 0.9059231313385352, 0.9085836088518172, 0.9112409784812622, 0.9137281870440415, 0.9160036218272476, 0.9183509404270469, 0.9206108549342313, 0.922772124051883, 0.9248591742092125, 0.9269940743143109, 0.9288887669284557, 0.9307035700731819, 0.9323737354386954, 0.9340336957198507, 0.935644823107706, 0.9371269830428749, 0.9385243216723419, 0.9397024087900364, 0.9409454528790372, 0.9421355109711518, 0.9431864773350488, 0.9441472295868372, 0.9449853180154677, 0.945770362330445, 0.9464769709002651, 0.947077779453749, 0.9475886031659414, 0.9479998739400887, 0.9483326356877189, 0.9485787700824794, 0.9487316059201117, 0.9487952643154808, 0.9488140538273429, 0.9486944559766419, 0.9484627041579471, 0.9481742250680387, 0.9477980533571934, 0.9472886595177776, 0.9467434660636609, 0.9461723184160421, 0.9454404337668694, 0.9446237140560175, 0.9436961072404958, 0.9427132869846789, 0.9417049438059828, 0.9405430461103232, 0.9392994826696387, 0.9379644404653622, 0.936558815491055, 0.9350842250347768, 0.9335131835444862, 0.9318614837530486, 0.9300053316033391, 0.928208949451131, 0.926427240386541, 0.9244464121971544, 0.9222830735547258, 0.9201599428709089, 0.9179540082757331, 0.9156552821668035, 0.9132894445814819, 0.9108736887630741, 0.9083468819813145, 0.905745086243293, 0.903150962744962, 0.9003919289680437, 0.8975573675791163, 0.8946649832480945, 0.8917055464274253, 0.8886910502583041, 0.8855978157893466, 0.8823257476178193, 0.8791185209077411, 0.8758416795201096, 0.8725801676381406, 0.8691585291907689, 0.8656114821674922, 0.8620787412390849, 0.8584839519391696, 0.8547681430181009, 0.8510611850122995, 0.8474203748225922, 0.8435767491981689, 0.8396826785710184, 0.8357012833491412, 0.8317131559644123, 0.8277089736069663, 0.8236169815619515, 0.8194788961190466, 0.8152825623727902, 0.811056709763891, 0.8066464733168816, 0.8023515791231334, 0.7980071410623402, 0.7936938433646455, 0.789247225598214, 0.7847571510331379, 0.7802353900818827, 0.7756774951900137, 0.7710211654390441, 0.7664031695477052, 0.7618442584654053, 0.7571449178329197, 0.7524189208723394, 0.7475627338406142, 0.742799558421932, 0.7380101211769481, 0.7331893820123504, 0.7283430300863627, 0.7234662669347889, 0.7185746539268789, 0.7136375973996087, 0.7087088014707301, 0.703760879734716, 0.6988657680537216, 0.6938758377130487, 0.6888920469757069, 0.6838806665868504, 0.6788620181335014, 0.6737798593988711, 0.6687566467349413, 0.6637600605371128, 0.6587186497786561, 0.653674389321684, 0.6486479955201178, 0.6435989366143304, 0.6385270289664384, 0.6334853367639725, 0.6284459067106842, 0.6233250621996378, 0.6183045613427686, 0.6133831769274468, 0.6083544787886096, 0.6033361074432008, 0.5983159203254199, 0.5933226318327696, 0.588250317647296, 0.5832944791873588, 0.5783480626828336, 0.573404707199419, 0.5684834788929132, 0.5636008329247545, 0.5587062929482576, 0.5538303405976643, 0.5490101426327926, 0.5441705178780246, 0.5393861251126887, 0.5345918290065734, 0.5298251455222082, 0.5250442029451665, 0.520339878693664, 0.5156348465133177, 0.5109891215056496, 0.5063708463232892, 0.5018726187823943, 0.49730112402148013, 0.4926284011843895, 0.48814637441801884, 0.4836931864569165, 0.4792833736306467, 0.47489053351169547, 0.47060813073030966, 0.4662740734166092, 0.46198013156414686, 0.4576303169493264, 0.4534298350961052, 0.4492798405566647, 0.44515025009242154, 0.44105951794177145, 0.4370150533654117, 0.43300378712227494, 0.42900155022495684, 0.4250784388488295, 0.4211964521798833, 0.4174413306856542, 0.41363330267315424, 0.4098293896325455, 0.4061232942446967, 0.4024628744857609, 0.39888931775451236, 0.39531617189629775, 0.3917806013100638, 0.38830688270889463, 0.3848814929268936, 0.38140493467131503, 0.3780890952116399, 0.374839152095989, 0.37160739410286664, 0.3684216436578499, 0.36534445590615683, 0.36224434314217707, 0.35919832573358484, 0.3561992885428933, 0.35325093104349736, 0.3503236822461356, 0.34747986267674347, 0.3447351640418844, 0.3419820277691357, 0.33928035192646855, 0.33660035639463487, 0.334004169317272, 0.331375052925744, 0.3288865093223484, 0.32644188748202885, 0.3240090611038051, 0.3216578980496722, 0.31948073967784774, 0.3172003497681274, 0.3149716009554763, 0.31282314054136634, 0.31069177100826517, 0.30847442784920925, 0.3064618762341479, 0.30449110640384475, 0.3026016323485925, 0.3007103610329277, 0.2988621446913706, 0.2970602055064127, 0.2953023283200576, 0.2936649485032152, 0.29198455108514615, 0.2902094715415477, 0.28864075787664073, 0.2871094710639614, 0.2856109404886538, 0.28415570684071145, 0.28286862825181247, 0.28147193709656376, 0.2801200020053496, 0.2786662884243138, 0.27741863846064313, 0.2763379918759825, 0.2751397668450455, 0.27398230538924423, 0.27283996525785104, 0.2717637254294293, 0.27061744182770314, 0.2696259729577732, 0.268663011786791, 0.2677498426328618, 0.26684129194353307, 0.26597376243759313, 0.2651225729897749, 0.2643008102556711, 0.2636058715681639, 0.26282884490872693, 0.26195433592799783, 0.2612586625929081, 0.2605860004828152, 0.2600030509850981, 0.2593671566548201, 0.25875221258035513, 0.2581676716402916, 0.2576067960903076, 0.2569984883499931, 0.2564911610261072, 0.2560515336217209, 0.25557167921248497, 0.25511109380145125, 0.2547097747818137, 0.25428010445268545, 0.25387116800805776, 0.25347835013185593, 0.2530567651189604, 0.2527025536743688, 0.2523606183405041, 0.2520842073542902, 0.25175810206229177, 0.2513163758671907, 0.2510322101111229, 0.25075201548018294, 0.2504839780881088, 0.2502106695700467, 0.25006894728042206, 0.24978771300481972, 0.24951722507728274, 0.24918422477741703, 0.24894014156283137, 0.24875917269268227, 0.24851224653138396, 0.24827018543896098, 0.24799106246507163, 0.24776062355889633, 0.24757204977382138, 0.24733444754193495, 0.2470973980221298, 0.2468354533719113, 0.24659978282762304, 0.24624789903954988, 0.24601873476308747, 0.245778446568737, 0.2456677498916933, 0.24538825912951495, 0.24509960277210144, 0.24481457006051097, 0.24452440895539826, 0.24417432707509254, 0.24387803860839352, 0.24348611407739962, 0.24317876104262295, 0.2428552330966626, 0.2425044292573194, 0.2421508885389656, 0.24178941210613297, 0.24140281230291044, 0.2410008392883613, 0.2406536647291483, 0.24021191007070558, 0.23974051095172297, 0.23927692843072731, 0.23879923268015177, 0.23835263152169392, 0.23783942080088813, 0.23732298810181673, 0.23678168221600532, 0.2362263334871952, 0.23566270059206926, 0.235076190418599, 0.23440857330886267, 0.23379808784562897, 0.23316692359079813, 0.2324546717028653, 0.23178978195050307, 0.23108773001369834, 0.2303767454590028, 0.2296417690064993, 0.22898936196519745, 0.2281942184709496, 0.22738705192122402, 0.2265568571773205, 0.22570890100907862, 0.22472512047575455, 0.2238550479819611, 0.22303111586127217, 0.2221011668227246, 0.22115069498117876, 0.22013878232722983, 0.21915214573124264, 0.21813102287248523, 0.21710000030857546, 0.21604582247244736, 0.21494759635714067, 0.213850762064258, 0.21280560710733687, 0.2116528567666453, 0.21048172514259877, 0.20923809349754752, 0.20803634485916953, 0.20680118804430017, 0.20555725641597397, 0.2042913499721369, 0.20308223638424755, 0.2017636397291646, 0.20045145693311225, 0.19909679766712246, 0.19772647760399722, 0.19623239908446546, 0.19484345216846846, 0.19348426811857297, 0.19204449626796813, 0.19058662761571546, 0.18913703075020905, 0.18764041632511408, 0.18614428199684677, 0.18461399125654648, 0.1830689756724816, 0.1814749775321001, 0.1799049877742501, 0.17839042719770942, 0.17677897707365026, 0.17515604375286745, 0.17337945691014212, 0.17175122735394238, 0.1702193218728212, 0.16853846129021374, 0.16684687509390364, 0.165043466735316, 0.16334367450325726, 0.16169984984709046, 0.15996030111010717, 0.15821099011018386, 0.15636411743432468, 0.15460755233247836, 0.15297784810222062, 0.15117754459936916, 0.14937374199424344, 0.14741771574225163, 0.14562534444322306, 0.1438225627779862, 0.14200716331113097, 0.14018225128580208, 0.13846646395022424, 0.1366108317027276, 0.1346785782252259, 0.13283282486351175, 0.13098282980523585, 0.1291602972532476, 0.127299919969935, 0.12549616795386437, 0.12362789524926915, 0.12176306614790569, 0.11978732879614264, 0.1179437261314446, 0.11607268080437089, 0.1142273160413241, 0.11237964962749337, 0.11056345438103066, 0.1087103321112441, 0.10691211635601096, 0.10505834922710691, 0.10321143517094099, 0.10138297943129883, 0.09954888647744865, 0.09763310775827697, 0.09582676874224454, 0.09402387873022391, 0.09235764566144457, 0.09054773796252207, 0.0887562868133178, 0.08697259958992691, 0.08520227729953825, 0.08334556875473492, 0.08161418029250969, 0.07998991457717103, 0.07826182874208128, 0.07654849914224601, 0.07470129902219601, 0.0730361838106211, 0.07138894126989698, 0.06973656966642358, 0.06809377758850195, 0.06657259300016882, 0.06493784796350077, 0.06329229841452856, 0.0616983305144978, 0.06012113161331913, 0.05847928745815677, 0.05694662655195978, 0.05551991515172658, 0.05400215715173443, 0.052504235480390946, 0.050941256252380406, 0.04949379615474281, 0.04812682434545642, 0.04670222975932994, 0.04529794431769762, 0.043865099622583455, 0.04250797620093152, 0.04119980218376642, 0.0398751410122765, 0.038571163415470205, 0.037345210202312344, 0.036075952299681045, 0.03483278193531683, 0.033611941980542105, 0.032415127890587835, 0.031118046907992348, 0.029984400194207395, 0.02884609060775455, 0.027749150349759704, 0.02666927786294435, 0.02571674628105615, 0.024659713307482557, 0.023554751810564004, 0.022557814518028622, 0.02158829281410814, 0.02063266328187863, 0.019698963599379657, 0.018808635589942318, 0.017916725082359107, 0.01711215771422962, 0.0162594766013333, 0.015433925167532246, 0.01462513104050492, 0.01385340743848417, 0.01308221158799178, 0.012363279929550804, 0.011667338702985955, 0.011031853089391431, 0.01037688021027311, 0.009735309003786365, 0.009131048007623889, 0.008550220884049324, 0.007876664032923433, 0.007356658585737704, 0.00691331478536513, 0.006418899059260781, 0.005945470367318551, 0.005483266666881836, 0.005053123739951617, 0.004756092257318045, 0.004352639664244067, 0.003975988500993115, 0.003510907542996275, 0.0031995755926587034, 0.0029044228972368424, 0.002629126807106259