0.024697184878842898, 0.024512479025626522, 0.024354461701673748, 0.024227951656618806, 0.024111270043241786, 0.02396230485190381, 0.023883562287053912, 0.023814386469463576, 0.023777598089528333, 0.0237202346833669, 0.023642558076086184, 0.023601904010634677, 0.02356495650384908, 0.023521845461400636, 0.023492253920891958, 0.023456198163623793, 0.02343197235421697, 0.02340939164499351, 0.02339017492237511, 0.02337118012020457, 0.023394497272807166, 0.023375306198184443, 0.023361187164441487, 0.023306615358142036, 0.02330835951673065, 0.023338576127955417, 0.023342699065291822, 0.023351804582864667, 0.023365352120760196, 0.023385264987509535, 0.023393622250069076, 0.023427394974536005, 0.02346645349854568, 0.023515136564915273, 0.023565502523749858, 0.023621000807409535, 0.023685298497462443, 0.02375685839749648, 0.02379834681651761, 0.023890130715179956, 0.024014644816391695, 0.024115757284864647, 0.024225536732777313, 0.024324643427132947, 0.024455032815729087, 0.02459767919759651, 0.024744630506573655, 0.02490088212959078, 0.02506359482049586, 0.02523971818140583, 0.025397562357799438, 0.025597442761485966, 0.025806215769059712, 0.026018852016121623, 0.026247446993613546, 0.02648353645947025, 0.026732517496650253, 0.026991965538650502, 0.027284974696756926, 0.027563490336730532, 0.027829603274231035, 0.02813677497888131, 0.028455411093931956, 0.02878031512483096, 0.02912343627672469, 0.029496577673878577, 0.02986165909522306, 0.0302402800681376, 0.03064038798532784, 0.031045410393144096, 0.03147336365409749, 0.03190595345189142, 0.03235344973816386, 0.03280409548364918, 0.03328293956493982, 0.03373924839181738, 0.03425157634739133, 0.034776488708204815, 0.03534974629811601, 0.035896718999199294, 0.03646503931138034, 0.0370431203109046, 0.03763755547167903, 0.03820526890403365, 0.03883808102763071, 0.03950232489879577, 0.040161757938238576, 0.040837208290321884, 0.041535204040824926, 0.04224264480240649, 0.042963264367058905, 0.043705579373904575, 0.04446512752694679, 0.04523427095426704, 0.046029890586200724, 0.0468483973888196, 0.04767837000471518, 0.04852654388468796, 0.04935545414840618, 0.050245345349455586, 0.05115422152327606, 0.05207755194265378, 0.05301854992181843, 0.053973665967448244, 0.054951579199544125, 0.05596600162014502, 0.05697888193788468, 0.05801183814944192, 0.059022623611703434, 0.06010141417640397, 0.06124606607967735, 0.06235526477701566, 0.06348597892922335, 0.06461541735991973, 0.06579191624448216, 0.06696422986848245, 0.06818422577522867, 0.06942329016759335, 0.07070292268447835, 0.07197836864234007, 0.0732851153319148, 0.07460152027495451, 0.07593967456651345, 0.07727520330538235, 0.07865975769310478, 0.08005511400589296, 0.08148142907800679, 0.08292768845726797, 0.08440896595067267, 0.0858937098708384, 0.08736200567329333, 0.0888938837889745, 0.09044477745341639, 0.09204004011403089, 0.09362650309091901, 0.09522068013011818, 0.09685085247747768, 0.09850116654678025, 0.10017398921250922, 0.10186430814763822, 0.10359291884231916, 0.10532139137834963, 0.10707097958924292, 0.10879830123976668, 0.11059486059146931, 0.11244313774166356, 0.11427152811942619, 0.11611999698693691, 0.11798439228212879, 0.1198728234756869, 0.1217663019166527, 0.12369465024050652, 0.12564096477334724, 0.12761926586086955, 0.12959941109065315, 0.13158619428296117, 0.13360436762251476, 0.13563974744307822, 0.1376717618159684, 0.1397435864870254, 0.14180971908046505, 0.143915140303929, 0.14603471699216067, 0.14820772151234532, 0.15035075769699546, 0.15251094875814175, 0.15468622933460124, 0.1568771316452511, 0.15907776460959916, 0.16129940559233716, 0.16349751243229677, 0.16575179555618197, 0.1680173712995797, 0.17029810001464926, 0.17258553690007863, 0.17488966643654566, 0.1771986006864962, 0.17951859174788515, 0.18185560295809752, 0.18419595963295432, 0.18651849585275151, 0.1888828444588858, 0.19125518836523023, 0.19365336446909673, 0.19603876893681502, 0.19843167963806768, 0.20083331733141124, 0.20322661013536095, 0.2056444596157899, 0.20806784699690098, 0.21047602923922318, 0.21291200242303668, 0.215370081892363, 0.2178099880500456, 0.22025369771522207, 0.22270309285012801, 0.22515268602361466, 0.22757809569647028, 0.23003550977750556, 0.23249285911958953, 0.23496237166487302, 0.23741700475296346, 0.23988690410705807, 0.2423381987628554, 0.24478891846250775, 0.2472368360004843, 0.24968463572470886, 0.2520984407630286, 0.25454434329627895, 0.2569846152510094, 0.25943928258393145, 0.2618645806429712, 0.2642763605054194, 0.2666906924599213, 0.26909769049419113, 0.2714944542695628, 0.27388543275145094, 0.27624531778442457, 0.2786202636829803, 0.28098374031867607, 0.28332280956910455, 0.2856637435093091, 0.28802577343379376, 0.2903351455876346, 0.2926322799487893, 0.29489686554072125, 0.29716990998120507, 0.2994173421779214, 0.3016603278231687, 0.3038862779421481, 0.30612375702848404, 0.30831057210868323, 0.31048055056119916, 0.31263295075336817, 0.3147670476453902, 0.3168350674337806, 0.3189363943327429, 0.32102410346441485, 0.3230778885915434, 0.3251085557093619, 0.327133714294861, 0.32911455094685743, 0.33107036667221534, 0.33300387419827465, 0.33491260198649536, 0.3368139947384657, 0.3386690978805213, 0.34048297340227324, 0.342288257507851, 0.34406569907298407, 0.34577160579768546, 0.34749717268201774, 0.3491963338885296, 0.350857227941423, 0.3524861257720547, 0.3541039075694894, 0.35566521621768254, 0.3571673018974292, 0.3586680163412907, 0.36013437274144616, 0.36155745025824415, 0.3629552849497654, 0.36431734496206414, 0.36564335782881824, 0.3669330314246938, 0.3682244930725884, 0.3694356895409595, 0.3706023281763901, 0.37174377538976094, 0.37284828301936573, 0.3738816112277642, 0.37491499284369467, 0.3759268952149148, 0.37687710518419054, 0.3777876885367909, 0.37862533976226953, 0.3794597626601941, 0.3802838161726682, 0.3810290453504477, 0.3817333921748536, 0.38237531067766595, 0.3829994861050345, 0.3836174063395129, 0.38415052899926283, 0.38464230001391453, 0.3850514799390821, 0.3854643896257574, 0.3858355506667519, 0.3861582704725951, 0.3864362285697504, 0.38667014542286426, 0.3868582866313419, 0.38701798518577174, 0.3871141408701569, 0.3871661641153735, 0.3871369906429091, 0.38710484049716726, 0.3870636136603471, 0.38693340991040764, 0.3867589011136063, 0.38654227151524534, 0.3862783754315835, 0.3859228157941755, 0.38557556236307783, 0.38518087574099347, 0.3847563332685634, 0.3842655369958943, 0.38374642992355357, 0.38316244082440026, 0.3825341062089891, 0.38185671599672333, 0.381140298530013, 0.38037148784311975, 0.37956706789948913, 0.3787178839024551, 0.3778092333928544, 0.37687301823487307, 0.375878498539561, 0.37485437918688824, 0.3737852353543444, 0.37268563517086684, 0.3715259893099952, 0.3702998853491517, 0.3690576631611385, 0.3677718021314611, 0.3664804584391261, 0.3651040588123526, 0.36368290027898564, 0.3622271575190524, 0.36073146255519223, 0.35915607554646256, 0.35758635175962833, 0.35601451373220205, 0.3543578152293578, 0.35266327043188256, 0.3508950993149777, 0.34913035764682976, 0.3473165311345649, 0.3454759696223951, 0.34359726632688253, 0.3417007539439641, 0.33974543599997503, 0.3377465610272308, 0.3357229925197376, 0.3336650508725277, 0.3315984392401065, 0.3294703847721556, 0.32727823014899615, 0.3250924358717897, 0.3228744758240015, 0.3206164461089318, 0.3183374110913767, 0.31606317548888757, 0.3137194546002824, 0.31134875338731194, 0.3089193803099394, 0.3065002188856444, 0.30406003374361734, 0.30158628411254623, 0.29908718373735854, 0.2965752325795973, 0.29402614388262305, 0.29142867923994076, 0.2888385209087837, 0.2862257091699161, 0.28361543173793796, 0.2809568375910631, 0.27826776026986727, 0.27557385693141034, 0.2728618655055619, 0.2701168580534992, 0.2673729552946202, 0.2646492341814702, 0.26186818870283396, 0.25907429147261263, 0.25626497114903046, 0.2534474915649848, 0.25059522529571066, 0.2477588733474287, 0.24491128478989846, 0.2420878540630249, 0.23921605974651233, 0.23632973274762062, 0.23344612700096612, 0.23055656676100933, 0.22763036262517933, 0.22473493385674426, 0.22182212124142392, 0.21891791752119405, 0.21600935849955794, 0.21309354522634458, 0.21017980914005033, 0.2072683967164665, 0.20435193532059134, 0.20147757532768076, 0.1985577948036069, 0.19564261831457033, 0.19269960985095402, 0.18979935826639133, 0.18692856008342576, 0.1840346784829014, 0.18114821934793768, 0.17827606341728378, 0.1754054829059548, 0.1725437392956649, 0.1696930825428271, 0.16685317915061496, 0.1640152268013637, 0.16119985934589584, 0.15839264728967004, 0.15560263423583576, 0.15282587921727722, 0.1500411403991712, 0.14729583146786257, 0.1445678156475747, 0.14185128452247567, 0.1391507785702659, 0.13645373633882651, 0.1337892606361114, 0.13115956115290758, 0.12852874780336643, 0.12591799784101915, 0.1233537946303674, 0.12078167882307267, 0.1182336166137719, 0.11570828969690067, 0.11320698832829382, 0.11068223072535469, 0.10823614008617063, 0.10583604756453714, 0.10343268603601877, 0.10105461165721985, 0.0986834960636399, 0.09635985293748028, 0.0940916940141948, 0.09181623909397607, 0.08956930706149983, 0.08733001785784, 0.08514370604445756, 0.08300680291994379, 0.08087473842686471, 0.0787729990078587, 0.07669085045211059, 0.07465189067398859, 0.07263317945684239, 0.07065672870443819, 0.06871079192238073, 0.06682555529417919, 0.06493798859696756, 0.06305856875147614, 0.0612407372324311, 0.05945488374627144, 0.05772560481000899, 0.0560014510829134, 0.05430357156194756, 0.052648667655333395, 0.05102748938077945, 0.04941659638062389, 0.047866113183332566, 0.046350642080394536, 0.04486543706014336, 0.04341350635944662, 0.041984828374878526, 0.040601235642019236, 0.03925314546554039, 0.03793573418047203, 0.036651931164804905, 0.03542850211846401, 0.034208803936847505, 0.03299147261589804, 0.03184636695130824, 0.030734333905985595, 0.02966407466826423, 0.02861728151280784, 0.027597892366724525, 0.026619162484442127, 0.02567356386108833, 0.024769650430594852, 0.023888976457133306, 0.02304554765045216, 0.022230813832939185, 0.021449191546578487, 0.020670609257141898, 0.019958179155550877, 0.019281079886812574, 0.018629256582939416, 0.01800819027471763, 0.017421645628750617, 0.01686109763286305, 0.016355289984938983, 0.015852248677524047, 0.015380444617692291, 0.014915848015423831, 0.014508008701952381, 0.014130183955699285, 0.013778748636015966, 0.01345524920155161, 0.01314130455548732, 0.012874922818711061, 0.012675972074994468, 0.012455809591503823, 0.01226332792455345, 0.012076714889618789, 0.011940388000803737, 0.011827912547847427, 0.011740533167701921, 0.01167688757734543, 0.011627908202184758, 0.011611492793536635, 0.011616977200005506, 0.011643960458917876, 0.011692023737717175, 0.01175445644745408, 0.011844151875101438, 0.011986953962427088, 0.01211071225475971, 0.012254868803517584, 0.01238653056889638, 0.012573371250648436, 0.012796272142312905, 0.013013110066407672, 0.01324663307013976, 0.013494655782668508, 0.013759901885537029, 0.014087756505587478, 0.014375880370576752, 0.014680267248937678, 0.015000728706668008, 0.015334673461832761, 0.015657049691102733, 0.016020388675688852, 0.016394200025527685, 0.016795953389763557, 0.01718671869491651, 0.017592760063876306, 0.01800169922914366, 0.018419348929638254, 0.018859123626998913, 0.019290318160523894, 0.01976348315052799, 0.02020447302016596, 0.02065338004211076, 0.021131981130640798, 0.021590994573396236, 0.022065094337977396, 0.02253494456629166, 0.023009828720105343, 0.023509997510012592, 0.023989551096565642, 0.024517439621498053, 0.024997663710418474, 0.02548224120459208, 0.025966881287069782, 0.026457203018651915, 0.026962652852837256, 0.0274523513454691, 0.027942209947631268, 0.02848237927508848, 0.028963675448483515, 0.029453536031143878, 0.029934228015187733, 0.030414076778907607, 0.03093922521550362, 0.031408763651167904, 0.03190819162612656, 0.03237140449985131, 0.03283363886334415, 0.0332843977453063, 0.03374273478412463, 0.03421235415787982, 0.03465921744641187, 0.035101276824660646, 0.03560141361733774, 0.036023944238411675, 0.03645526484596111, 0.03686940238793339, 0.03727943772730861, 0.03769161059780199, 0.038090197758191724, 0.03851744756283261, 0.03889938534999319, 0.03927632787718718, 0.03966404886157726, 0.04002692465717499, 0.04042707368351678, 0.040772203583174196, 0.041112870290097886, 0.041467171817957976, 0.04179446474147501, 0.042134545352058635, 0.042448484613562786, 0.04275715471672799, 0.04308435654400954, 0.04337796734310554, 0.04368995005207134, 0.043969825503149554, 0.04424586334427432, 0.04451595019403133, 0.04478066932027175, 0.04507741217641896, 0.04532593746977192, 0.04557929431472735, 0.04581879366937487, 0.04605439439388093, 0.046331364371646803, 0.04655281903133586, 0.04674661015194723, 0.04696742094918574, 0.04718438737909209, 0.047440703022462484, 0.04764474055953391, 0.047860234964253213, 0.048060366389874355, 0.048259930760624487, 0.04846042770169263, 0.0486585339878427, 0.04887580119092097, 0.049070669129082416, 0.049266527954293086, 0.049481515565262604, 0.0496774328503892, 0.04989701923449766, 0.05009537428799087, 0.05029774547322081, 0.05049716500379821, 0.050708811381116915, 0.050922216552480276, 0.051142734766603214, 0.05136798000953655, 0.05164155176899353, 0.051872202663701295, 0.05210598292654699, 0.05235477194057422, 0.05261234728353574, 0.05291124492481242, 0.05318350145825954, 0.0534527125757955, 0.05375081790602618, 0.05406050737738535, 0.05439953168247564, 0.05473172727455664, 0.0550615951690291, 0.055424620676216604, 0.055801825359929065, 0.056200941313951626, 0.056607647022923355, 0.057070217106580216, 0.05750591488217833, 0.057961801920811504, 0.0584382605718757, 0.05893572636930988, 0.0594272280241633, 0.059971669947015666, 0.06053714790196011, 0.06114800929645373, 0.06175503107378878, 0.062389995888348766, 0.06304685899902794, 0.06372998017468742, 0.06444549354620469, 0.06518238608191156, 0.0659564591627748, 0.06675001478190001, 0.06757392390203625, 0.06842723047427879, 0.06931390420655843, 0.07021234696234992, 0.07116660561413672, 0.07215325244797156, 0.0732013885966939, 0.07425181540563507, 0.07532464272712762, 0.07645048932118674, 0.07761326814476999, 0.07883646252437945, 0.0800724322330553, 0.08133233168848396, 0.08265172633365005, 0.08401169027819494, 0.08543017987516571, 0.08687119304620088, 0.08833778276967667, 0.08986885355509912, 0.0914436202638434, 0.09308161002551538, 0.09474347907148149, 0.09643882922715072, 0.09819652516246484, 0.10000131101327729, 0.10183106206292228, 0.10373476012655306, 0.10569472996483746, 0.10769338962149362, 0.10974167177963152, 0.11182843496904961, 0.11397929875795906, 0.11620367242749338, 0.11845383104403176, 0.12075728721284673, 0.12311914362441483, 0.12552977984236224, 0.12798258886187944, 0.13050458801232187, 0.13308125856997566, 0.13570595692853757, 0.13839408956681384, 0.14114317219436132, 0.14394193783746326, 0.14679726062569323, 0.14971572531172092, 0.15268427645579935, 0.15570981800089137, 0.15879421413297698, 0.1619367188818534, 0.16513358301181125, 0.168393302754692, 0.1717090262174173, 0.17508591084657252, 0.17852130560758817, 0.1819792567901184, 0.18553659647228019, 0.1891648546849525, 0.19283435430833853, 0.19656207912440862, 0.2003371647359912, 0.20418304147923552, 0.2080663697419845, 0.21203061117330557, 0.21605169676018326, 0.22013999346342944, 0.2242739260261225, 0.22848286165795223, 0.2327300206475834, 0.2370356863553119, 0.2413603379192134, 0.24578705507529064, 0.2502910822578793, 0.2548256733705994, 0.2594167007523864, 0.26405912647455304, 0.268762597934211, 0.27349919758989677, 0.2783152511456687, 0.28318437662898444, 0.28808121061105374, 0.29305881534923284, 0.29808714635451933, 0.303165999266315, 0.30829510231527063, 0.31347490555083857, 0.3187033484728818, 0.3239432605711397, 0.3292742016891286, 0.33465109679560306, 0.3401105221479142, 0.34557371348649607, 0.3510422540100296, 0.3566037436346454, 0.3622081914730234, 0.3678746907178626, 0.37356096115357446, 0.37925190227657507, 0.3850267264880764, 0.39084002725256206, 0.39670453195618316, 0.4025912129101592, 0.40849549817190456, 0.41445819468783474, 0.4204551827969352, 0.4264636930875829, 0.4325295718203096, 0.43861182215883776, 0.4447396962888576, 0.450895663759986, 0.45706796610286227, 0.4632791123471746, 0.46953325437537835, 0.47579115897884844, 0.4820732307215767, 0.4883328433855392, 0.49466557704832187, 0.5009983964400015, 0.5073688108792139, 0.5137545608296666, 0.5201446056955289, 0.5265597102500368, 0.5329985941748375, 0.5394352703055135, 0.5458826195224701, 0.552334748377394, 0.5588004362664015, 0.5652477508823069, 0.5717288066368974, 0.5782126245935785, 0.5847027866908304, 0.5911881082554847, 0.5976635185985713, 0.6041477306352867, 0.6106282778612425, 0.6170568077748531, 0.6235320767157867, 0.6300002124021866, 0.6364535404996875, 0.6428688130063102, 0.6492999121161552, 0.6557150124631458, 0.6621012946663364, 0.6684826580103568, 0.6748463615070123, 0.6811862630147342, 0.687503949218651, 0.6937824660017089, 0.7000538648240152, 0.7062880513553098, 0.7125054589635331, 0.7186927357487627, 0.7248447118184203, 0.7309684375611704, 0.7370610871684694, 0.7431146642829535, 0.7491315253429197, 0.7550843809850482, 0.7610268534315013, 0.7669221902166549, 0.7727791618402079, 0.7785909320660293, 0.7843483961440187, 0.7900669454326139, 0.7957054005569699, 0.8013275458520603, 0.8068959150441147, 0.8124125838538674, 0.8178697738857916, 0.8232590695502492, 0.8286026212938218, 0.8338862181536656, 0.8391032147261721, 0.8442641074244615, 0.849383951425012, 0.8544132047513529, 0.8593775812430072, 0.8642717773905696, 0.8691027663860148, 0.8738543623582432, 0.8785469475025539, 0.8831671759600512, 0.8877036614548377, 0.8921769058962981, 0.8965768153163445, 0.9008956381336604, 0.9051360078569718, 0.9092529009092253, 0.9133386382571188, 0.917343337670536, 0.9212596202532302, 0.9250904611427934, 0.9288476276425555, 0.9325036344476634, 0.9360513368895155, 0.9395348564530946, 0.9429282439583572, 0.9462276406418575, 0.9494389906355998, 0.9525751098199364, 0.9555985978704137, 0.9585291584033402, 0.9613479118637768, 0.964092407997367, 0.9667295415170722, 0.9692820466620141, 0.9717363282897773, 0.9741036434495646, 0.9763584660187141, 0.9785087187542232, 0.9805654911833955, 0.9825217266720061, 0.984348691513541, 0.9861059577802903, 0.9877439892045202, 0.9892959404450506, 0.9907430496607069, 0.9921126865630935, 0.9933463742452336, 0.994452941197453, 0.9954820969253191, 0.9964057105240893, 0.9972542884641665, 0.9979626996356747, 0.9985388111478347, 0.9990423651200214, 0.9994397066375451, 0.9997433955301979, 0.999926768005191, 1.0, 0.9999730577598616, 0.9998403666339172, 0.9995925754538063, 0.9992497901059162, 0.9987978606628469, 0.9982436830696926, 0.9975837913133685, 0.9968161234626992, 0.9959459944013166, 0.9949529118155702, 0.9938756121229249, 0.9926931537342497, 0.9914210004076761, 0.9900280252150885, 0.9885104615072191, 0.9869154750156384, 0.9852175815290241, 0.983440221165613, 0.9815357203279426, 0.9795214884408879, 0.977419742955772, 0.9752189935763185, 0.9728932555086077, 0.9704999490194152, 0.968020034516307, 0.9654294640587889, 0.9627431219357274, 0.9599767887044475, 0.9570996650280177, 0.9540949862798112, 0.9510386188039053, 0.9478896605731314, 0.9446743690203773, 0.9413405217523526, 0.9378844409251583, 0.934380470628854, 0.9307887778439613, 0.9271239848971371, 0.9233590169861348, 0.9195022922793551, 0.9155733276741832, 0.9115631029841346, 0.9074775926131683, 0.9033080637768334, 0.8990809759009443, 0.8947558849037281, 0.8903572519928943, 0.8858775780758072, 0.8813363761036244, 0.8767293479722871, 0.8720477866334416, 0.8672985808298408, 0.8624642116672567, 0.8575860431595332, 0.8526266968873981, 0.8476227315834547, 0.842556201722465, 0.8374217181313861, 0.8322359512410157, 0.8270173023379388, 0.8217140935354412, 0.8163576927797371, 0.8109181957524085, 0.8054638097522804, 0.7999801125261814, 0.794423838118419, 0.7888217840734258, 0.7831755172214037, 0.7774866124276382, 0.7717229229012276, 0.7659577620991019, 0.7601528400167554, 0.7543327791408122, 0.7484510552405141, 0.7425434514515138, 0.7365965741572447, 0.7306203932243602, 0.7245819624573318, 0.7185562505792702, 0.7124969692428723, 0.70642100126249, 0.700321841342114, 0.6942327402435318, 0.6880888229248753, 0.6819195977081324, 0.6757466201310592, 0.6695603068962581, 0.6633403253223713, 0.6571350061337516, 0.6509082335372899, 0.6446868228879608, 0.6384586292010109, 0.6322498080279217, 0.6260104560059107, 0.6197310962177542, 0.6134983424635381, 0.6072664294562705, 0.6010591801698983, 0.5948317056989548, 0.5886133209445921, 0.5824022479585808, 0.5762018859535394, 0.5700004176506346, 0.5638277043444916, 0.5576529975483002, 0.5515129130715937, 0.5453895333724785, 0.5393104135471721, 0.5332221394917416, 0.5271176935052749, 0.5210818226468337, 0.515106353298368, 0.5091145360443949, 0.5031515656025815, 0.49720850002022743, 0.49130827226019486, 0.4854008449495265, 0.47957093253650473, 0.47377344993999904, 0.4680539142974205, 0.4623204497656113, 0.4565833360533714, 0.4509353834372982, 0.4453266393346737, 0.4397608625505116, 0.4342344033828123, 0.4287842954521784, 0.4233417243661634, 0.4179468495077478, 0.4125558557008988, 0.4072647092484446, 0.4020269118833759, 0.3968320231319123, 0.39168771723449847, 0.3866123364689297, 0.3815702271418496, 0.37656004935328097, 0.3716309967101992, 0.36675696947961145, 0.36191931963890994, 0.35716066435068894, 0.35247280750636834, 0.34782671663697945, 0.34324002089237005, 0.3387205429765245, 0.33425399546059975, 0.3298290194663727, 0.32548957706282544, 0.32121211697733715, 0.3169855758322371, 0.31283562833222095, 0.30874661644965573, 0.30472420431602937, 0.3007662156997754, 0.2968975418992996, 0.29306699958528604, 0.2892724446709302, 0.28558083192217937, 0.28195527311684704, 0.2784244552924172, 0.2749287280533801, 0.2714673198398309, 0.2681136973070022, 0.26482710509443913, 0.26162041366017097, 0.25846720345226376, 0.255355865591303, 0.2523431833830462, 0.2493976581700182, 0.24652029765018685, 0.24370960035815778, 0.24099641441506667, 0.2383174128863766, 0.23570785475184555, 0.2331502094550679, 0.23068088700264044, 0.22829879167372302, 0.22596205046067538, 0.22369364883686435, 0.22145083636962196, 0.21932328193196765, 0.21726910995416743, 0.2152698878159377, 0.21333567949027984, 0.21145602710799877, 0.20965231400865922, 0.20795371650206532, 0.20627153915102972, 0.2046546087859962, 0.20306534649847613, 0.20158143811447174, 0.20017112759215594, 0.19880731321869471, 0.1975043833762683, 0.19626331557523244, 0.1950801600197364, 0.193931035300256, 0.19286864751252358, 0.19186262475073343, 0.19090932397814028, 0.19001486851720775, 0.18920319761650403, 0.18841366252674788, 0.1876790177243951, 0.1869842422095079, 0.1863584531841286, 0.1857981611732496, 0.18527253834195487, 0.18479745744871756, 0.18437196192237632, 0.18399509135500855, 0.1836509773961214, 0.18337034252709988, 0.18313458806047275, 0.1829546205318533, 0.18280454046284444, 0.18267069365919733, 0.18260878098002803, 0.18258624839526455, 0.1826313130390909, 0.18268142230260287, 0.18275905027102315, 0.18288642380610076, 0.1830494366770983, 0.1832266673678155, 0.18346044949322424, 0.18374601931648765, 0.18403912667599195, 0.1843629811848372, 0.18471491893204023, 0.1850971804378357, 0.18547543866916394, 0.18591533008303338, 0.1863786660703332, 0.1868583381544045, 0.18736682508145236, 0.18789032154433855, 0.1884396349655451, 0.1890073750487087, 0.1896256087399657, 0.190223375153355, 0.19081909427543117, 0.19145325101339866, 0.1921014555937471, 0.1927830752097015, 0.19345370966750025, 0.1941097707608444, 0.19480676772704855, 0.19551197907747225, 0.19625426234797322, 0.19696927572238782, 0.19764816115180114, 0.19838144890556042, 0.19911693838499406, 0.19985695700742653, 0.2005940037907102, 0.20136153626192854, 0.20209362035111414, 0.2028255432892197, 0.2035389083232517, 0.204269299216099, 0.2050124804066646, 0.20573083554270108, 0.20644385903262696, 0.2071316821230208, 0.20783331999052593, 0.20850512458300216, 0.20918964844672158, 0.2098619637057054, 0.21055123763941191, 0.2111934335309008, 0.21183411877035976, 0.21244903143860483, 0.21305027294383913, 0.2136149310891733, 0.21418879551744394, 0.2147395217439177, 0.21527811334189548, 0.21579741337942493, 0.21629367425114215, 0.21677296289785808, 0.21723567665643323, 0.21767124174902713, 0.21808466359092094, 0.21845181897243676, 0.21882216932305554, 0.2191610465963753, 0.21948143329928874, 0.2197755384352384, 0.220090100715157, 0.2203247059366047, 0.22050093966126327, 0.2206898021054011, 0.22085072880677536, 0.22099904503701379, 0.22110103605856904, 0.2211741237663212, 0.2212195146840523, 0.22123584692873785, 0.22121644394612666, 0.22117427368617681, 0.22108744500915783, 0.22098570561740188, 0.22085210040634973, 0.22068807154250442, 0.2204901606317779, 0.2202914824975146, 0.2200251958056203, 0.21972829317273126, 0.21935022015078437, 0.21899741869306114, 0.2186298639995669, 0.21820603062013202, 0.21772809089756043, 0.21724107396796047, 0.21671994024580973, 0.216162525378606, 0.2155740145193201, 0.21497768633454237, 0.21431868960931494, 0.2136278248221707, 0.2129309581843757, 0.21217305420779006, 0.21137769884115323, 0.21055975638493313, 0.20971078176671484, 0.20880646626921096, 0.20789856297080167, 0.20697094760303258, 0.20599724240646972, 0.20499260662374538, 0.20392588888281818, 0.20286405463254598, 0.20181419274940263, 0.2006834343733598, 0.19952425177267608, 0.19833210227927556, 0.19711719401722286, 0.19583732863214043, 0.19457120553499518, 0.19327555643445024, 0.191945539623631, 0.19059346569126429, 0.18923385851243646, 0.18782400720849232, 0.1863886728586267, 0.18493067697751192, 0.18344549519306946, 0.1819599332896688, 0.18042443473208716, 0.1788673241615832, 0.17727558706145732, 0.17567793562270528, 0.17405585266607085, 0.1724165378138858, 0.1707568234247118, 0.1690561127127081, 0.16736003356540446, 0.16564414239508388, 0.16390922013660783, 0.16215603504868434, 0.1604284866162128, 0.1586355832443731, 0.15679221564772358, 0.15497716480223078, 0.15314725569276624, 0.15133304800660435, 0.149471904344067, 0.1475613784900581, 0.1456836979652124, 0.14379393157399714, 0.1419070518406814, 0.13999387053216478, 0.1380742572360171, 0.13614389942417898, 0.13420627218603107, 0.13225969632237297, 0.13030985260336875, 0.12834444008089996, 0.12638584247696208, 0.12442269984820951, 0.12249579660824127, 0.1205208337754521, 0.11851685397108778, 0.11654599895836756, 0.11457440405234959, 0.1126192588129463, 0.11064624761329989, 0.10868418571139707, 0.10671529487904996, 0.10475035965451644, 0.10278990110111276, 0.10083445680145948, 0.09886653716222046, 0.09692506950825236, 0.09498929237624662, 0.09307875789452492, 0.09115414903643332, 0.08922901852538391, 0.08732392245797369, 0.08542827717011708, 0.08352310132895444, 0.0816507178631885, 0.07978070964882877, 0.07793052440530197, 0.07609162699878062, 0.07430558497855519, 0.0724864096126138, 0.07064304836271484, 0.0688609291550129, 0.06709311871598488, 0.06537170089030364, 0.06363063325921023, 0.06190217748195211, 0.06019837843935928, 0.05851311749131916, 0.05684917050686684, 0.0552019530614046, 0.053542502803574, 0.05193959866941473, 0.05035559672819905, 0.04879584516294196, 0.04725094020702588, 0.04576309901762195, 0.044256092200355104, 0.04277306123207444, 0.04129219936183781, 0.039860378903207656, 0.038467493360392395, 0.037080545333775576, 0.03571843280622666, 0.03437665292705443, 0.033065416840773965, 0.03176053469893507, 0.030502274519105293, 0.029268601247706288, 0.028047333694809586, 0.02686550010544854, 0.025747792040739178, 0.024611197890452883, 0.023502448239731712, 0.022388598060033706, 0.021339708812554266, 0.020318400008230583, 0.01932161294251072, 0.018351448027350534, 0.017438699388737156, 0.016518490879354763, 0.01559577262390069, 0.014737143534497532, 0.013905386029509623, 0.0131139790759689, 0.012334683251682297, 0.011562178973485365, 0.010841459779597329, 0.010147427716387557, 0.009521763249841391, 0.008876138332171091, 0.008232307375939196, 0.007648333339408321, 0.007091448578462714, 0.0065388371046672025, 0.006038785123517668, 0.0055839001656966415, 0.005132547266482151, 0.004707943037827197, 0.004345219114969801, 0.00396913618067055, 0.003589867476548104, 0.003273643444605913, 0.0029828938031504675, 0.0027213465298152805, 0.0024804533767976886, 0.002244235684121851, 0.002055793970158465, 0.0018907341734805973, 0.0017591319698348738, 0.0016391524768221836, 0.0015450293125667137, 0.0014714725871891733, 0.0014209656130943376, 0.0013947458617548302, 0.0013891360616753686, 0.0014064249271717455, 0.001444571701242987, 0.0015041238541554554, 0.001600375877685064, 0.0016995682550337533, 0.0018567143799659807, 0.001992881308594111, 0.0021511390697532703, 0.002289883628288342, 0.0024950794971393083, 0.002764824158606294, 0.0029986701114588427, 0.003251896094277838, 0.003508833685365918, 0.0038004483047008675, 0.004116267368786369, 0.004439069042311286, 0.004777599471307755, 0.005136766907021031, 0.005504329532120871, 0.005930940402265832, 0.00632094173836594, 0.006726641265725656, 0.007140853383263855, 0.0075760691486280425, 0.008062502346386972, 0.008517717119648468, 0.008986496796812503, 0.009505545986498446, 0.009993920846161887, 0.010467871305952335, 0.010984706591753062, 0.011510975252204632, 0.01207579631189105, 0.012615138809136275, 0.013195016857956236, 0.013747892643041246, 0.014353252746748316, 0.014918398165661607, 0.015493465567392162, 0.016082787458969978, 0.016673635299878257, 0.017277819773491517, 0.017881080010971634, 0.018490001306486436, 0.019118674115832113, 0.019734664588833502, 0.02039727648432445, 0.021015696727765754, 0.021639339473785935, 0.022284502879817095, 0.022913626569128074, 0.023591833003697747, 0.02422153540999023, 0.024855776072385087, 0.02551154764394914, 0.026149550874131323, 0.026807543470030643, 0.02744794142419992, 0.028090362949021508, 0.02877946453160974, 0.0294177605571267, 0.030078006381956617, 0.030717558138350417, 0.03135877613998858, 0.03199371574574533, 0.03263661496303937, 0.03333100607459646, 0.033964605267946604, 0.03459910584383462, 0.035269776372175946, 0.03589918532944007, 0.03652233726658477, 0.03715343649013791, 0.03778344158723777, 0.03845025482802796, 0.0390716961020693, 0.03972108368476027, 0.04033775583071085, 0.04095459075084627, 0.041585837922969215, 0.04219925851784316, 0.042832420485435875, 0.043441471227069046, 0.04405013520262555, 0.044676762945524334, 0.04528094120542173, 0.04588385031241043, 0.04648678401581522, 0.04708852604441357, 0.04774534778103206, 0.048337016149473666, 0.04889415859233181, 0.04949302500963382, 0.05009057235099425, 0.050715833935817085, 0.0513071524576336, 0.0519177758765417, 0.05250757805807409, 0.05309878980505476, 0.05369755952004956, 0.0542904855410313, 0.05492421320504663, 0.05551535265875613, 0.056110349878829395, 0.05673332240431449, 0.05733244806097735, 0.05794821010753157, 0.058555423070450204, 0.05916792099002678, 0.05976128962396857, 0.06038721957100176, 0.0610672124130222, 0.061694832833125005, 0.06232979741827778, 0.06295717906476657, 0.06360872295593421, 0.06428889029840879, 0.06495128139068752, 0.06562221354718899, 0.06631208788759246, 0.0669994783592192, 0.06767792405463616, 0.06838772356865633, 0.06910692962077633, 0.06985723079179805, 0.07059412069451323, 0.0713753517694383, 0.07213292797336515, 0.07290530692685229, 0.07366680118780025, 0.07447271142717933, 0.07528881464696509, 0.07612401600021487, 0.07697425884356668, 0.07787782153720439, 0.07875527585714773, 0.07961884385643929, 0.08053892597587366, 0.08147694976458313, 0.08247204019927051, 0.08344315544792365, 0.08443329988585371, 0.08544952516486919, 0.08648853768558194, 0.08753904634686238, 0.08862657188743396, 0.08972987984651572, 0.09086628810231608, 0.09202716395897031, 0.09324302529007304, 0.09445119423281073, 0.09567899186518625, 0.0969452216464806, 0.09824015963109894, 0.09956045383882836, 0.10091502375609258, 0.10232491961575599, 0.1037373908203861, 0.10518274651434478, 0.10663709395272547, 0.10815258835519019, 0.10970957052263582, 0.11129037357853533, 0.1129058725549025, 0.11454960000003149, 0.11623715853437783, 0.11795137506835236, 0.11971290688705262, 0.121511252700526, 0.12337063869916903, 0.12524169826686382, 0.12713173336050954, 0.1290862236529566, 0.1310805723170336, 0.13312324489999391, 0.135198163097707, 0.13731047874543728, 0.1394707000905767, 0.14167375125378096, 0.1439248553127401, 0.146214505031886, 0.14855502614439167, 0.15093350607913245, 0.15335778606394682, 0.15581567420178838, 0.15833421131940564, 0.16088713609666683, 0.16349990805351114, 0.16615903179578823, 0.1688971605610186, 0.17164636758098903, 0.1744255047694411, 0.1772764143613483, 0.18017605282312402, 0.18310982259766803, 0.18610970198720822, 0.18916617760166285, 0.1922629370130736, 0.19540958952799412, 0.19861892317015908, 0.20186446424257043, 0.20513614457128507, 0.2084874073447128, 0.21188862700786149, 0.21532514866570526, 0.21882887618722943, 0.2223862841389767, 0.22598929581296381, 0.22964276536051476, 0.2333185943351037, 0.2370769322100685, 0.24088837277321518, 0.24474483386264367, 0.24865114990861573, 0.2526325295580438, 0.25663565548485634, 0.26068159455016165, 0.2647884613402723, 0.26894580304256055, 0.27313852014267337, 0.277398083799529, 0.28168309262857844, 0.28604343767962104, 0.2904511042581832, 0.2949052744630444, 0.29940752496624, 0.30395521408454534, 0.30855148841486124, 0.3131942554147198, 0.31787618578808524, 0.32261197803166136, 0.32737410349515644, 0.33220225740847553, 0.3370737972194857, 0.34197825603604637, 0.34693699081430773, 0.351926580924317, 0.3569700305089866, 0.36202884808268204, 0.3671560410638923, 0.3723214982766568, 0.3775390577636675, 0.3827783384264333, 0.3880454126608433, 0.39336135933350147, 0.39871346960300424, 0.4040862300749957, 0.40951067396774404, 0.41494729418053045, 0.42044050070004924, 0.42596456895784796, 0.4315079589446812, 0.4370933975592403, 0.4427142720809483, 0.44835491716658005, 0.4540229657315739, 0.45971445117443344, 0.46543517168268067, 0.471146772605046, 0.4769200500774421, 0.4827141519994923, 0.488544037844395, 0.49437555386956156, 0.5001840407634186, 0.5060585359242117, 0.5119478809834522, 0.5178638683153726, 0.5237789816439868, 0.5296930510566029, 0.5356350493050156, 0.5415871886346093, 0.547505313260529, 0.5534801020928893, 0.5594806130154536, 0.5654610161002241, 0.5714454849314825, 0.5773834901085183, 0.5833789609899226, 0.5894020743755085, 0.5953886188154734, 0.6013729360838639, 0.6073020374157391, 0.6132847576728034, 0.6192860464010668, 0.625246630611146, 0.6311980078331415, 0.6370918571662221, 0.6430269684810719, 0.6489416608493239, 0.6548449770097415, 0.6607303172500056, 0.6666138809343657, 0.6724578558185164, 0.6782391226175419, 0.6840463991518174, 0.6898282180484444, 0.6955686195996494, 0.701298180703236, 0.7069957569344287, 0.7126652598714208, 0.7183027598671448, 0.7239251227166228, 0.7294927655429603, 0.7349888993080064, 0.7404904850726052, 0.7459524815310989, 0.7513768719338877, 0.7567557888780122, 0.7620901432697522, 0.76738198524556, 0.7726281518439925, 0.7777975227120889, 0.7829521526997671, 0.7880523143637904, 0.7931035694405362, 0.7981010615725406, 0.8030357958358455, 0.8079232730331006, 0.8127498771903185, 0.8175211222957885, 0.8222321175943593, 0.8268785525210163, 0.8314659092743597, 0.8359884905717779, 0.8404467781947539, 0.8448386496537752, 0.8491346724803398, 0.8533936972624893, 0.8575772110361697, 0.8616925859340193, 0.8657341927485168, 0.8696916404841608, 0.8735839489429196, 0.8774295692484373, 0.8811625069837107, 0.884817981106111, 0.8883932089694293, 0.8918903368987091, 0.8952741842422763, 0.8986120115554587, 0.9018646843168711, 0.905043149154894, 0.9081215600796996, 0.9111161394805556, 0.9140192917221129, 0.916833818479417, 0.9195493894729061, 0.9221851242408858, 0.9247211732736207, 0.9271734408963836, 0.9295318899414275, 0.9317762282603194, 0.933947483187612, 0.9360210196285963, 0.9379980163262485, 0.939877052356282, 0.9416388144019124, 0.9433228483674364, 0.9449228832862541, 0.9464035694236076, 0.947784055904628, 0.9490576000889285, 0.950237094255883, 0.9513303717188992, 0.9523037086359621, 0.9531753077292519, 0.953904705546211, 0.9545765446465923, 0.9551360667852046, 0.9555982486740172, 0.9559547008461825, 0.9562030838211634, 0.9563484098046071, 0.9564020219652694, 0.9563339242118389, 0.9561608441264059, 0.9558528977093812, 0.9554734149450828, 0.9550247691132359, 0.9544271327928423, 0.9537252638764762, 0.9529143868638793, 0.9520044822823288, 0.950964897235366, 0.9498490992984964, 0.948627532273319, 0.9473091885853819, 0.9458760942622684, 0.9443145224479403, 0.9426765115782776, 0.9409336612735342, 0.9391053734251654, 0.9371521943679569, 0.9350789281506301, 0.9329243774767578, 0.9306676750606665, 0.9283306414689054, 0.9258688940171615, 0.9232799057079344, 0.9206242350668964, 0.9178690368936097, 0.9150049263262335, 0.9120544075736796, 0.9090195870589016, 0.90587303325376, 0.9026314430783785, 0.8993207438361364, 0.895888407745832, 0.8923343963170739, 0.8887244518872389, 0.8850231367812333, 0.881235403799414, 0.8773539572804833, 0.8733993978424308, 0.86934107673041, 0.8651976818309376, 0.8609576269798747, 0.8566486000698627, 0.8522481655271938, 0.8477758398269233, 0.8432226073760588, 0.8386007267663915, 0.8338881340330825, 0.8290551884802898, 0.8241965208396222, 0.8192614323050761, 0.8142648808647263, 0.8091801124043189, 0.804021342463025, 0.7987967051830254, 0.7935039540981933, 0.7881594852367877, 0.7827331004596495, 0.7772415673236546, 0.7716912701332498, 0.76608082615506, 0.760399907453957, 0.7546749881425848, 0.7488936242046096, 0.7430573955785976, 0.7371467063434242, 0.731208178823958, 0.7252183585029403, 0.7191946990874996, 0.7131055902478924, 0.7069564158956304, 0.7007804653071638, 0.694561717045073, 0.6882940554843707, 0.6819958796077952, 0.6756627621440553, 0.6692897985889628, 0.6628824532561504, 0.6564228327515234, 0.6499543460453522, 0.6434782535557746, 0.636948038416199, 0.6303924314240649, 0.623796585426376, 0.6171971562569208, 0.6105676662896984, 0.6039282283658868, 0.5972703890350629, 0.5905794817005596, 0.58389231870133, 0.5772358964626747, 0.5705170191987848, 0.563790406873659, 0.5570230025097637, 0.5502896710515598, 0.5435730492125139, 0.5368282111925219, 0.5300828838584635, 0.523306461526713, 0.5165688872103394, 0.509833684187246, 0.5031026645276617, 0.49637760572914863, 0.4896461335456996, 0.4829399862081733, 0.4762323862865399, 0.4695501251291552, 0.4628810199404237, 0.4562315652536936, 0.44959349404451954, 0.44297406880894336, 0.43637490741132945, 0.42979759380095844, 0.42326485882577325, 0.4167331884076311, 0.4102048040036032, 0.4037327079874558, 0.39728943387532706, 0.39090234515362055, 0.38451784451747045, 0.3781538393929098, 0.37184153186663144, 0.36556540078406197, 0.35932908434232275, 0.3531288436838197, 0.3469569406351693, 0.34083960096578125, 0.33476409848341465, 0.32871914659246104, 0.3227326661700689, 0.316818472694133, 0.3109194610280473, 0.3050693303605435, 0.29924787436290584, 0.2935010903627373, 0.28777742818272983, 0.2821363732210198, 0.2765465290688032, 0.27104366483939457, 0.2655555828025459, 0.26007403115298616, 0.2547065639510853, 0.24939459931883412, 0.2441463663795068, 0.23894795307473912, 0.23383148998343076, 0.22874952158215947, 0.22372981355597688, 0.21873534828171454, 0.21384679933025197, 0.20902571885941434, 0.20426129593108847, 0.1995608270200166, 0.1949257973821149, 0.19035519027767056, 0.18586073460930386, 0.18142129925027034, 0.17704945352117107, 0.17271499354796263, 0.16848332981092484, 0.16432646018237757, 0.1602282528712233, 0.1561984736034742, 0.15223200300760206, 0.1483408440664319, 0.1445462423980109, 0.1407901067352642, 0.1371051472227121, 0.13348036323222917, 0.12993907457235465, 0.12645491381805418, 0.1230562639326303, 0.11972735598052162, 0.11645807364093441, 0.11327014203138004, 0.11014052373031513, 0.10709261881947334, 0.10411344338073285, 0.10121951722352922, 0.09837580752186377, 0.09561899638456921, 0.09291215456166851, 0.09027542816763157, 0.08768328937596737, 0.08518867773899434, 0.08275832595660487, 0.08039865010603411, 0.0781056466631073, 0.07586253959716094, 0.07370401580408707, 0.07163924215147426, 0.06960622518249691, 0.06763895954506448, 0.06572742657655947, 0.06389102222151442, 0.06208895792464167, 0.0603823758352687, 0.05873635684752973, 0.05720306811870536, 0.05567031494295395, 0.05415975458929566, 0.05275549954955846, 0.05140929766327387, 0.050123671997769896, 0.048891302286713866, 0.04774424188937898, 0.046620040238258824, 0.04555225882509978, 0.04452105525422179, 0.04356545118166686, 0.04264570649458078, 0.041795998544003184, 0.040995980501866626, 0.04025980522781523, 0.03955499825232602, 0.03890464696206878, 0.038294447798911876, 0.03773085124327559, 0.037198706880091484, 0.0367270036317003, 0.03629408376745312, 0.03590735772787293, 0.03556123962376048, 0.03523989231929092, 0.034974054307331595, 0.03472944140625636, 0.03453854463556253, 0.034381912734730964, 0.0342846303427732, 0.03419081250430921, 0.034137251788202407, 0.03410781726761687, 0.034109734633897534, 0.03413319287499637, 0.034195361875451254, 0.034301337026984555, 0.034414991000870136, 0.03455469982359445, 0.03469176999234611, 0.03488335564004046, 0.03508714974202187, 0.03532052065308375, 0.03557226939335931, 0.03585635997187451, 0.03614014063587737, 0.03641045083521042, 0.03672956140248981, 0.03706111256403197, 0.03743561193973098, 0.03778544513821552, 0.03812640416947802, 0.038500667371320595, 0.038882942516170124, 0.039273018025813726, 0.03966822400222044, 0.04006142238282473, 0.040466610292373445, 0.04087442444414609, 0.04128547685449869, 0.04169547032361248, 0.042103727488815045, 0.0425126071707652, 0.04291927941728513, 0.04333219874267371, 0.043730394471184916, 0.04409816248311649, 0.04448952666172301, 0.04487287280369736, 0.04528115175698444, 0.04564185254333246, 0.04596347654307009, 0.04631000640243423, 0.046639522163963595, 0.04696127137166553, 0.04726892706399086, 0.0475931429858838, 0.04786647545218976, 0.048118245249214854, 0.048362490722304564, 0.04858992539902674, 0.04879891771639073, 0.048990314318595456, 0.04914121261332828, 0.049295883281236255, 0.049428539550845974, 0.049525298500695675, 0.04961396959648645, 0.04968765359610265, 0.049725904172320076, 0.049739415494024414, 0.04973316175093278, 0.04969495837060993, 0.049644134190775756, 0.049551800693329276, 0.04943321175225984, 0.04926815247527469, 0.04909774929899062, 0.04891395758971839, 0.04868306244157788, 0.0484232703189, 0.04811137243683564, 0.04779530672703408, 0.04747443552328135, 0.047091849548497516, 0.04667889287816929, 0.04621476709940723, 0.04574246910610394, 0.04524852403140897, 0.04470943608607038, 0.04413805737876183, 0.04354437324323501, 0.04290651055601803, 0.042196356633015346, 0.04149875205433116, 0.04076619418172895, 0.04001923506409991, 0.03921465435444856, 0.03836651248490645, 0.037496464568610596, 0.03659244094467539, 0.03565217764823865, 0.034680775936310845, 0.033708504488373085, 0.03266544351054472, 0.031590696944304185, 0.030451993789354665, 0.02931765466170332, 0.028149621982780138, 0.02694816726902829, 0.02571356665885942, 0.024465712227872877, 0.0231631931606689, 0.021802042117478413, 0.02044078637378192, 0.019047136363660896, 0.017624654582056934, 0.01616709299772616, 0.01471153160267737, 0.013188316421035294, 0.011636814935965948, 0.010033645690821765, 0.008429039924412516, 0.006818147220036043, 0.005153051083183487, 0.0034611175264827394, 0.001744992955250308, 0.0