0.03471990327468782, 0.03407797875645036, 0.0335677878052152, 0.033090779196482734, 0.03266880947798271, 0.03224089084225443, 0.0318123644340678, 0.03142792994386455, 0.031058016731828134, 0.03075789873527377, 0.030403423433731935, 0.029974799505186753, 0.029653752531120188, 0.029336882756821815, 0.02911619816874051, 0.028794911095798285, 0.028385672809452298, 0.02809301589830444, 0.027781707153281134, 0.027495827076097504, 0.027211546116315294, 0.026958283596963235, 0.026675572683684305, 0.026439176547398736, 0.026162198637975996, 0.0258936914553531, 0.02556809521270275, 0.025325383820867072, 0.02513944244667252, 0.024901910776577968, 0.024674297825563143, 0.024424081650662302, 0.024221496356050972, 0.02395616243111632, 0.023781577600407965, 0.023613343072735295, 0.023561473286260612, 0.023395556567274167, 0.023159028429853103, 0.023035332688015185, 0.022922503969270574, 0.022856224572616886, 0.02276295412870407, 0.022694901875714348, 0.022630549721662105, 0.022582349852098324, 0.022470417231158762, 0.02246529776058036, 0.022493024258301623, 0.02251078556242699, 0.02254365423158835, 0.022561370989745103, 0.02262995280218294, 0.022812020739583, 0.022898621195002196, 0.023006959720402488, 0.023101897772846307, 0.02325751007210662, 0.02338514418013015, 0.023585451298643173, 0.023802774948218346, 0.024058245494817023, 0.024308739460572482, 0.02456673611469149, 0.024858757129300423, 0.02517053919989099, 0.02555999322260104, 0.025905217728465536, 0.026186275193440644, 0.026590861673551125, 0.027014482394734047, 0.027433188023604355, 0.027900035663321412, 0.028402914877674247, 0.028907649878760606, 0.029434375375956636, 0.030032903278509736, 0.03059890415365445, 0.031205508052964463, 0.031822184682729744, 0.03246600579222453, 0.03312257510071869, 0.03382248376413099, 0.03454673058046428, 0.03529988476772958, 0.0360797338515005, 0.03683106934229853, 0.03767206659710872, 0.0385641112900683, 0.03945114334534385, 0.04036540441664215, 0.041294978916829476, 0.04226646462443953, 0.043241022249172194, 0.04427152721139847, 0.04532927609887526, 0.04639845614074368, 0.04751457947169968, 0.04870598590972352, 0.0498728507731307, 0.0510716117577681, 0.05222026312987287, 0.053493654730005266, 0.054790683103149856, 0.05612090278856457, 0.057480195570598115, 0.0588836377698462, 0.06030128607741397, 0.061775352870092656, 0.06325381957652329, 0.06476618365508315, 0.06631050958870065, 0.06789127558273086, 0.0694691868408244, 0.07112296983183712, 0.0728090100193556, 0.0745893160925662, 0.07633321351641023, 0.07803171879032321, 0.07985930182315658, 0.08171860993624791, 0.08361834205589613, 0.08554145032228498, 0.08749185368376614, 0.08948290183397384, 0.09150751648850283, 0.09362958906253831, 0.09571391224443887, 0.09782154880119588, 0.09998267244041167, 0.10217991641379649, 0.10431242101086384, 0.10659397995461074, 0.10895261959846418, 0.11128850482449591, 0.11365801874412503, 0.11610640034842025, 0.11853758860118133, 0.12091258581831793, 0.12342752673158262, 0.12597273474349308, 0.12857323526445122, 0.13117691983559787, 0.1338234321430024, 0.1364908998355557, 0.13919139607254308, 0.1418692800448129, 0.14464226489018522, 0.14748151584714803, 0.15030862069044518, 0.15316742675767733, 0.15610699215077684, 0.1590222409222907, 0.16189724563002847, 0.16488853650038446, 0.1679080094330292, 0.17102750347031287, 0.1740940623580349, 0.17714736622733246, 0.18028273409811546, 0.18344600014496348, 0.1866060158433474, 0.1898279311924093, 0.19306466380740211, 0.19633789872498056, 0.1996352911239976, 0.2029628394005069, 0.20630722633151227, 0.2096569909170455, 0.21305108373322748, 0.21646725495738953, 0.21987853058268286, 0.22334136515460226, 0.22681149489883343, 0.23031493222222973, 0.2338368481089414, 0.23746739716847678, 0.2410141326260041, 0.24451580485713412, 0.2481154181289802, 0.251731742187545, 0.25542178736981525, 0.25906273362588533, 0.262670676905534, 0.2663537468367228, 0.2700501978936149, 0.2738190068753477, 0.27753290659380864, 0.28125758791252276, 0.2850006470618741, 0.288756126173691, 0.292483968725363, 0.29626614849690247, 0.3000226719062284, 0.3038227666398591, 0.3076268987986822, 0.31146544699074435, 0.3152724185996106, 0.3190713935102798, 0.3228877557164771, 0.326706102570484, 0.3305154251682443, 0.3343368002005847, 0.33812033437859024, 0.34194392604329843, 0.345763114538761, 0.34954662228638156, 0.3533594311691478, 0.3572466801472818, 0.36103328818402247, 0.3648159486191583, 0.3685503433704864, 0.372327022370259, 0.3760794570950015, 0.3798374373610147, 0.3835831524509501, 0.3872912383063121, 0.39101335008761257, 0.39476884867320644, 0.39845229946459526, 0.4021233811339348, 0.40577661868378445, 0.4094133427906917, 0.4130016399806013, 0.4166059267623538, 0.42015787857224063, 0.4237221795788371, 0.42726154911692554, 0.43074250563207866, 0.43423426065871534, 0.43774653675407943, 0.4411740338394002, 0.4445744958318368, 0.44792843596301035, 0.4512741566008754, 0.4546278165579176, 0.4579055787272435, 0.4611527175094651, 0.46435365518446753, 0.46753779053088607, 0.47066027461323645, 0.4737768770662858, 0.4768550257093981, 0.4799165394938883, 0.4829125864584251, 0.4859204258385781, 0.48882987532644356, 0.4917006722617686, 0.49443695708826246, 0.4972383138720446, 0.49998559846566953, 0.5026914705341532, 0.5053481577375265, 0.5080188555930003, 0.5105676611296429, 0.5130919133002885, 0.5155424833243423, 0.5179450402159937, 0.5202840146092831, 0.5225888438790003, 0.5247736680111533, 0.526981696227686, 0.529131894331025, 0.53121779249055, 0.5332521458497677, 0.535227287196837, 0.5371428564132671, 0.5389984628074044, 0.5408101207717022, 0.5425424530684738, 0.5442637277412474, 0.5458685262461723, 0.5474145460286836, 0.5488638353539905, 0.55029408410773, 0.5516422204306392, 0.5529470316006719, 0.5541861508506732, 0.5553510167082005, 0.5564587480058631, 0.5574807915969714, 0.5584561671058645, 0.559362722051709, 0.560268086213475, 0.561027968444079, 0.5617038537527677, 0.5623343123042212, 0.5628968086797107, 0.5634031956984046, 0.5638268342028641, 0.564165466116744, 0.5644535652718506, 0.5646712806968892, 0.5648163131082011, 0.5648928092044019, 0.5648262586534601, 0.5647693652041699, 0.5646369864595691, 0.5645076350890043, 0.5642157657902901, 0.5638027008785705, 0.5633773363280816, 0.5628787102101653, 0.5623604398575007, 0.561709182143385, 0.5610211537190772, 0.560226251566203, 0.5593631674578015, 0.5583945508624268, 0.5573987167806533, 0.5563276173549402, 0.5551901348648371, 0.5539815892825448, 0.5527165976531502, 0.5513648526816506, 0.5498984599038574, 0.548413699537178, 0.5468573726838744, 0.5453040529774607, 0.5435971380629261, 0.541787713195327, 0.5399544107010895, 0.538053602775694, 0.5360118052297522, 0.5339867251133669, 0.5319509920612578, 0.5297790745503705, 0.5275424816757481, 0.5252335494846414, 0.5228703214403223, 0.5204416243931128, 0.5179525097506712, 0.5154012463141309, 0.5128070472486231, 0.5101313470418641, 0.5073084434033911, 0.5045267546714813, 0.5016824938603064, 0.4988407237054165, 0.4958673891958348, 0.4928370137218111, 0.4897546929536605, 0.4866187520093724, 0.48343409417975997, 0.48019280272005066, 0.4768964677487222, 0.47355465301906424, 0.47016335522646696, 0.46675429428203685, 0.46326289073600907, 0.45968955834469616, 0.4561136328472542, 0.45249216698188116, 0.4488160055464563, 0.44510810514098265, 0.44134512398241266, 0.43755448090926546, 0.43372281386244094, 0.4298658075418212, 0.42595418438544097, 0.4220473066816814, 0.4180589850493885, 0.41403896196211165, 0.40989360308233486, 0.4058247009910199, 0.4017255736912768, 0.397589221824374, 0.39342218111392474, 0.38921782971680785, 0.38499518890655504, 0.38074400370495276, 0.37647018831477963, 0.3721728228481452, 0.36783696808871963, 0.36349902295161707, 0.35916563443536187, 0.3547859316237114, 0.3503905596903381, 0.34596230070868433, 0.34154172209906153, 0.3371718899850536, 0.33271881481418625, 0.3282591684189047, 0.32372191303759745, 0.3192608016281859, 0.31487596939562584, 0.3103899033812272, 0.3059036983918124, 0.30137297185110984, 0.29689466205124204, 0.2924080221177272, 0.28793182951682067, 0.283457669109871, 0.2790546769436209, 0.27458007125882805, 0.27002906842941843, 0.2655858681050712, 0.2611492816847192, 0.2567701639436049, 0.2523452144445921, 0.24795268553225874, 0.24355431175344697, 0.23917300685560447, 0.2347234249069104, 0.2303899399186633, 0.22614749967873618, 0.22183618704976132, 0.21754747462645266, 0.2132740771656437, 0.20903440961116532, 0.20477658280214275, 0.20059334463879563, 0.196434720308164, 0.19232878338459367, 0.18822008270976961, 0.18413736495912403, 0.18009038728217946, 0.17607530039541344, 0.17206643087295076, 0.1681215626360894, 0.16422654021347075, 0.16034760766720282, 0.1565053326794659, 0.1526780840723946, 0.1489148394869964, 0.14522060126634143, 0.1415309268422146, 0.1378134390534366, 0.13421735994962924, 0.13066082837947546, 0.12720467380517803, 0.12372342585672555, 0.1203420284971019, 0.1169474871024953, 0.1136035024110957, 0.11019722635848325, 0.10696902497198554, 0.10384712527545593, 0.10070164055206796, 0.09760648470273432, 0.0945087312408277, 0.09152239343277914, 0.08855190631378158, 0.08566800817709973, 0.08283262795918893, 0.08011453202143927, 0.07737049080711958, 0.07464038608681944, 0.07201174891128997, 0.06943617856574733, 0.06689363358874581, 0.0644282344882324, 0.06209003078300606, 0.05972231426856133, 0.057412977928496846, 0.05517825536015796, 0.05298302893139542, 0.05076851919828602, 0.04870040422161983, 0.04668613013457376, 0.044728139278495706, 0.042822390746892876, 0.04101265895191164, 0.03921179281298705, 0.03746851641215644, 0.03578670849451124, 0.034157402137365594, 0.0325585177988248, 0.031046555411289818, 0.02958966010625966, 0.02822883797068036, 0.026876635959917565, 0.025618462817423967, 0.024375206821577795, 0.023190099383917303, 0.021984317215857578, 0.020923087363316037, 0.019954493213131325, 0.018991145004771306, 0.01808152469563923, 0.017196403742494103, 0.016396445111699434, 0.015634833520794093, 0.014937506593939954, 0.014289585445896535, 0.013750387888103384, 0.013192966975815646, 0.012732606573742028, 0.012272366157307922, 0.011864842209681082, 0.011480096579228065, 0.011178147399152212, 0.011004017619797149, 0.01078657984079968, 0.010619769839477298, 0.010545294771583816, 0.010470100472644217, 0.010367936093162387, 0.010398852526689128, 0.010471541229765157, 0.010620175527925432, 0.010769769893489071, 0.01104508377805845, 0.011266032766132387, 0.011531209907616658, 0.01183281580080836, 0.012182421874362874, 0.01255898259221986, 0.012987399899275396, 0.01345186605845998, 0.014002651145597596, 0.014529532794895376, 0.015123036160477924, 0.015716263114648726, 0.016344334596023063, 0.01701397386380587, 0.01770630839736367, 0.01847696855699307, 0.019224183964163467, 0.02000256719843032, 0.020861896513878368, 0.021691519491056504, 0.022563102554499365, 0.023448731212590817, 0.024361390116819544, 0.02530771591398665, 0.02626876884513728, 0.027259052231669436, 0.02826410989587415, 0.02928995824797786, 0.03032713644191098, 0.03139194026939162, 0.03249408236257691, 0.03358889946624826, 0.034699731243983074, 0.03592203136870619, 0.0370495053423623, 0.0382076504963276, 0.0393685471372266, 0.04054518536352101, 0.04170930200540926, 0.042916229354575154, 0.04411457048242352, 0.04534260443229831, 0.046577502766323574, 0.04791297493620545, 0.04914738001046102, 0.050369136119731615, 0.051624832912257106, 0.05288641566277219, 0.05417542362739664, 0.05544283232412231, 0.05679453997177424, 0.058059174001033165, 0.05933048933815616, 0.06058024064804298, 0.061863800186797505, 0.0631380473884383, 0.06442387238330455, 0.06570826149501763, 0.06700898228718834, 0.06828606376040704, 0.06956691047547556, 0.07083769875316563, 0.07210505158506189, 0.07341349381059045, 0.07466633658208696, 0.07597601990667802, 0.07721501548163658, 0.0784529728149095, 0.07959012100013418, 0.08083504197355922, 0.08215853445817575, 0.08337276648223231, 0.08458214432006182, 0.08574279522809782, 0.08694578284524418, 0.08816623194836952, 0.08934721704726153, 0.09052018868235633, 0.0916601852241192, 0.09281934888819121, 0.0940176046887689, 0.09515015239129222, 0.09627531517499209, 0.09745025049662373, 0.09855238308248057, 0.099626897707861, 0.10072119795377685, 0.10180803607596925, 0.1028604605753184, 0.10393506346667764, 0.1049816624145236, 0.10603971208061233, 0.10708752621233587, 0.10814804260525215, 0.10917356895514968, 0.11027743851811779, 0.11127639811469, 0.11227266515908624, 0.11322881152658364, 0.1142231042230042, 0.11525676577778711, 0.11623386034801919, 0.11720801809925734, 0.11813393226241747, 0.11910765079457834, 0.12007372982446322, 0.12103701590713563, 0.1219955799940133, 0.12297665783929018, 0.12392402461601254, 0.12488214477721495, 0.12582518031586734, 0.12676811091396054, 0.1277194969011933, 0.12866225999734912, 0.12962092651965448, 0.13056533168784823, 0.13151292839000095, 0.13245382322276703, 0.13341028028869578, 0.1343788445525, 0.13534264483185868, 0.1363120230991056, 0.13720130328342292, 0.13819453403510498, 0.13922937397841473, 0.1402242064202167, 0.14122647984081144, 0.1422371245489637, 0.1432570583306505, 0.14428308006725848, 0.14532482123498475, 0.14641938936629958, 0.14748034947283986, 0.14855718033966714, 0.149634013845303, 0.1507463845549011, 0.1518939714591063, 0.1530382513249116, 0.15420187464360685, 0.15543067593228369, 0.15662924630528322, 0.1577675074457387, 0.15902487563683793, 0.16030218390052883, 0.16160057891363966, 0.16292117270781323, 0.16435130768058542, 0.16570860330661674, 0.16709609354916247, 0.1684257674969893, 0.1698857914991339, 0.17139474213565098, 0.17290575996386204, 0.1744466992403685, 0.17609857488660885, 0.1776919562263668, 0.17926083413695826, 0.180936455095664, 0.18264624379256553, 0.18446087353492968, 0.18623268356768075, 0.18803480448827328, 0.18988932086315932, 0.19178439391013768, 0.1936896540258281, 0.19567108428373536, 0.19767837560381493, 0.1997428711294278, 0.20184832869350147, 0.20400793377186902, 0.2061963160719843, 0.20838572380911555, 0.21066855265567971, 0.2129944627095762, 0.21535623465050355, 0.21777227465379909, 0.22023169391573158, 0.2227397531140974, 0.22529485828809523, 0.22799433760761054, 0.23063366585154166, 0.2332537510548867, 0.23601168943222606, 0.23881996419108373, 0.241672972600291, 0.2445843394861331, 0.24756575065886416, 0.250578402375118, 0.2536446177081913, 0.25673591990306593, 0.2599137118956246, 0.26314833833368984, 0.26643151637022866, 0.26976850689264825, 0.2731349872469983, 0.2765836496263765, 0.28014515461954026, 0.2836932522164012, 0.2872987222395252, 0.29093056493872993, 0.29465410497847044, 0.29841013343384226, 0.3022467548095644, 0.3061372814092778, 0.3100839449049916, 0.31408250072556676, 0.3181313405702245, 0.3222392036449983, 0.32640119132677636, 0.3306049289609629, 0.33487652366684406, 0.33923206930950145, 0.3436059705973624, 0.34803452311947214, 0.3525111312577184, 0.35704844666875624, 0.3615770990298199, 0.3662276740390002, 0.3709268454750784, 0.37567667548602124, 0.38047271828928436, 0.38533983618695244, 0.39022973703812663, 0.39516881926286956, 0.4001216035246272, 0.4051617351946684, 0.41030274274569695, 0.4154263168739836, 0.4205975791712845, 0.42574573343282895, 0.43101830347827197, 0.43633995190076946, 0.4416927907378752, 0.4470860395520619, 0.45256219603902764, 0.4580288528421777, 0.4634376834716088, 0.4689971798696244, 0.47458961023603946, 0.48028649754885816, 0.48593451498096524, 0.4915872992138392, 0.497309131231754, 0.5030623390576314, 0.5088007356329827, 0.5146193609565333, 0.5205088848003038, 0.5263724703481832, 0.5322627195070035, 0.5381044261691493, 0.5440535292505916, 0.5499802062633156, 0.5559710727542868, 0.5619767277462642, 0.5680623165051442, 0.5740873862348564, 0.5800734026758705, 0.5861368591810759, 0.5922107291143577, 0.5983001512905642, 0.6043909274052481, 0.61047275069312, 0.616579288866986, 0.6226897921584629, 0.6288461618130724, 0.6349553977897097, 0.6409439400304068, 0.6470721092396541, 0.6531924560885546, 0.6593268467904029, 0.6654263944577977, 0.6715127559997345, 0.6775934364698712, 0.6836622853516974, 0.6897159329725003, 0.6957573774836295, 0.7017601812422664, 0.7077709447253072, 0.7137614719764582, 0.7197037324694088, 0.7256531214416007, 0.7316629012315184, 0.7375483916973693, 0.7434102950977755, 0.749166457831989, 0.7549851972311189, 0.7608478637812476, 0.7665872044911998, 0.7722941788760377, 0.7778661467574796, 0.7835151555869833, 0.7891469804977925, 0.7947037811296926, 0.8002160059009117, 0.8056452900950312, 0.8110688313146246, 0.8164969328435221, 0.8218105266013395, 0.8270739965521199, 0.8322856636692062, 0.837443871187484, 0.8425428772078244, 0.8475898052688745, 0.8525782096073958, 0.8575435281259869, 0.8624056354722884, 0.8671430888713594, 0.8718895100051652, 0.8765678955383651, 0.8811113782175728, 0.8856585597793284, 0.890155200707172, 0.8945482514208039, 0.8988661494939023, 0.9030997148039933, 0.9072654270124806, 0.9113525609696231, 0.9153601579070623, 0.9192872405567094, 0.9231574646020582, 0.9269174217053069, 0.9305356916768579, 0.9341377267043011, 0.9376519157076727, 0.9411494754781154, 0.9444768480071749, 0.9476690268899188, 0.9508295123685363, 0.953925454968519, 0.9568992739590793, 0.9597817462056233, 0.9625040915043267, 0.9652094706626215, 0.9678085922951991, 0.9703185843720953, 0.9727293608464759, 0.9750097863023939, 0.9772250194208791, 0.9793464720964948, 0.9813565378286717, 0.9832647564010117, 0.9850975557445316, 0.9867978718027044, 0.988392874099594, 0.9898907811133991, 0.9912862458540453, 0.9925583020129064, 0.9937502220938795, 0.9949092294781928, 0.9958822857675906, 0.9967542311813764, 0.9974688791861875, 0.9981435060399272, 0.9987776975405206, 0.9992316624490267, 0.999583109863485, 0.9997226665416156, 0.9998813765467938, 1.0, 0.9999306559524199, 0.9997565026399521, 0.9994508311938488, 0.9990704590821157, 0.9985736319549644, 0.9979825382495541, 0.9972854046909821, 0.9964518975122503, 0.9955480139458925, 0.9945049599234198, 0.9933933773906265, 0.9921751553796817, 0.9909088076210589, 0.9894730149902602, 0.9879367226530783, 0.9863003831077706, 0.9845644884064501, 0.9826926002410746, 0.9807639020110206, 0.9787722529362134, 0.9766399830635596, 0.9744117552242983, 0.9720553583850109, 0.9696413652642996, 0.9671234356588091, 0.9645200806469051, 0.9618226335340873, 0.9590671339194654, 0.956180462820625, 0.9531023493565289, 0.9500520233402158, 0.9469089472129737, 0.9437570464410703, 0.9404233339304604, 0.9369367871613721, 0.9334468485063002, 0.9298719318513203, 0.9262362261114692, 0.9224932565040612, 0.918704144206942, 0.9148003519028282, 0.9108220892272471, 0.906698564269052, 0.9025837726141916, 0.8983774516725416, 0.8941163339503336, 0.8897827470753472, 0.8853888206295573, 0.8809145361242529, 0.8763799818920365, 0.8717737251547816, 0.8671047060989583, 0.8624628327858899, 0.8576618953851074, 0.8527586280832264, 0.8478587274702142, 0.8429048708375699, 0.8378533208919858, 0.8328016349119584, 0.8276732315349613, 0.8225224047821426, 0.8173218702064288, 0.8120613430748336, 0.806769023222615, 0.801463102650931, 0.796080091969894, 0.7906584025200085, 0.7851709735766619, 0.7796806389161036, 0.7741653517659597, 0.7686051913429102, 0.7630141875831034, 0.7574208167549027, 0.7517700643109115, 0.7460377456012316, 0.7403476707307757, 0.7346333712345584, 0.7289112387308517, 0.7231526708641016, 0.7174361599373832, 0.7116368267265819, 0.7058268629491979, 0.7000260126591172, 0.6941962710858179, 0.688272521173109, 0.6824437859942892, 0.6766068981553105, 0.6708275505241305, 0.6649723247556216, 0.6591307607993511, 0.6532780214005219, 0.6474300686333367, 0.6415697263114617, 0.6357376371472712, 0.6298455232779946, 0.6240390356170463, 0.6182395460536908, 0.6124614400192379, 0.6066805008007843, 0.6008783038763933, 0.5951308495274625, 0.5893985536724013, 0.5837018416239509, 0.5780032689495118, 0.5723100536269592, 0.5666587082494807, 0.5610313309293941, 0.5553802472423185, 0.5498118366118441, 0.5443453087725971, 0.5388209241210052, 0.5333303074029551, 0.5279032719909258, 0.5224797275146001, 0.517026946099426, 0.5116898589412865, 0.5063891406360559, 0.5011836846194713, 0.4959525324734051, 0.49076907499231737, 0.48562534145716735, 0.48052696366504466, 0.47542950452109217, 0.4704298027174265, 0.4654690227676653, 0.4605613914446887, 0.4557007002782783, 0.4508223081942164, 0.4460670052908561, 0.44138270109212185, 0.43671845431136674, 0.4321047687180453, 0.4276351265397792, 0.423113983177341, 0.4185858355307687, 0.414190560604055, 0.4098505906350594, 0.40554199051490375, 0.401317838223061, 0.39721123227434996, 0.39309193762310246, 0.3890335436371243, 0.38495406648428937, 0.38102837887823354, 0.3772149612310881, 0.3733967321237536, 0.3696400235141092, 0.3659060410442683, 0.3622779757639692, 0.35871192472283486, 0.3552040046226836, 0.35175706868688045, 0.3483920070480803, 0.34506544578346304, 0.3417526317188528, 0.33855842253624646, 0.3354245425087344, 0.33235959511091806, 0.32934642555648536, 0.32642785749160197, 0.32353412907434004, 0.3207041666392598, 0.31790896874925906, 0.3152094187475157, 0.3125240000225275, 0.30995310511386676, 0.30744076925913577, 0.30506527520084037, 0.3026608106132728, 0.300262231551613, 0.29799119341073227, 0.29577906640874485, 0.2937016895558658, 0.29159726201089703, 0.28949377827693346, 0.28752134820216474, 0.2855836349787335, 0.2837283234142316, 0.2819283019438084, 0.28019564491622007, 0.2785038426138759, 0.2768404099825415, 0.27526161776882524, 0.2737353525713206, 0.2722427740978463, 0.270822777347246, 0.2694407161102625, 0.26812243164148447, 0.2668529249145749, 0.26566056521410947, 0.2644837587914499, 0.2633354608703573, 0.26225855048588814, 0.2612279233832756, 0.2603168483344384, 0.2593673900733399, 0.2584559735555736, 0.25760306703844665, 0.2567952028132296, 0.256033234296736, 0.25531161988398066, 0.25464806857900146, 0.2540064947983385, 0.2534052034463015, 0.2528224165232686, 0.25230060132135784, 0.2518368843948015, 0.25138223736197485, 0.25096239285770494, 0.250477601216582, 0.2501363574516786, 0.24985587404352544, 0.2495615955292207, 0.24929442009819736, 0.24902073902085203, 0.24880965119135126, 0.24863175554426817, 0.24846464311192254, 0.24831982938240185, 0.24817190592804997, 0.24807248423171943, 0.248032666937459, 0.24796444742275575, 0.2479156948877736, 0.24792024473326904, 0.2479027738774698, 0.2478418831164234, 0.24786724557514134, 0.2479046875172955, 0.2480088864494636, 0.24806111882677698, 0.2481548905558738, 0.2482277667592444, 0.248312499082965, 0.24831727141237772, 0.2484328667393045, 0.24860038486475428, 0.24871446281542722, 0.2488328065610524, 0.24891332155663345, 0.2490423570187312, 0.24913543958486364, 0.24926618112973223, 0.24939263335339049, 0.2495554751084274, 0.24966690779633896, 0.24973598854397164, 0.249844832841726, 0.24994643492655427, 0.250128574652596, 0.25020288772801863, 0.250267061665544, 0.2503328790592671, 0.2503918061203332, 0.25031742654526784, 0.2503750780991522, 0.2504525507911837, 0.2504712655606545, 0.250474896674338, 0.2504835719095785, 0.25045318253783627, 0.25037470086832975, 0.25031737092883394, 0.25024170575632537, 0.2502295082478404, 0.2501057091037182, 0.24992599405852353, 0.24977664864322663, 0.2496081065688973, 0.24942388376584826, 0.24921467636788625, 0.2489416644833952, 0.24869600687644094, 0.24842616801255968, 0.24815458262007592, 0.24783303394403694, 0.24749831939676836, 0.24712822129883036, 0.24673451864611137, 0.24624489467677418, 0.24581180401461838, 0.2454155832317957, 0.2449167002406331, 0.24439305602429615, 0.24377853787124198, 0.24321254554552518, 0.24267453848312065, 0.24204246068727722, 0.2413845141799325, 0.2406962935202619, 0.2399862675977184, 0.2392062124892211, 0.23844767148920187, 0.23765949187280883, 0.23683778921737306, 0.23599150241671257, 0.23514677042151363, 0.23423829173055766, 0.23330269534782166, 0.23238921362502254, 0.231392992556468, 0.23028810302399372, 0.22925322380550703, 0.22818846035570609, 0.22705932730581138, 0.22594047866031353, 0.22479717545187858, 0.22361696997596714, 0.2224077560158858, 0.22117621193569573, 0.21990972299763917, 0.218681762173961, 0.21735296533279028, 0.21600143730668578, 0.21460648650060526, 0.2132116946546017, 0.2117598757781664, 0.2103210899068045, 0.20885668565626958, 0.2074061870653819, 0.2058871067563765, 0.2042783028184063, 0.20272407053413669, 0.20114446624523757, 0.19956492238406395, 0.19793378028767017, 0.19630349722521362, 0.1946265253733027, 0.1929300765089992, 0.1912124120563186, 0.18947824012125003, 0.18773987356547445, 0.18596714418721141, 0.18417747653121838, 0.18232806472648377, 0.18051098083690248, 0.1786406890415842, 0.1767921931163919, 0.17492494185415766, 0.17307279940432607, 0.1711668397502176, 0.16930228639102207, 0.16736182367727293, 0.16541163174493678, 0.16345186548431587, 0.16148273422487308, 0.15948190435777396, 0.15749772131005133, 0.1555038127819124, 0.1534904725253473, 0.15148011129235822, 0.14945089877603335, 0.14742534589550352, 0.14539197934357523, 0.14341111148934696, 0.1413568246124426, 0.13921607096636443, 0.13716814926220383, 0.1351137614496931, 0.13308882680763526, 0.1310200576877292, 0.12890858355256304, 0.12684235082363776, 0.1247733812489701, 0.12279708029098936, 0.1207134330605478, 0.11853231975807907, 0.11647216443555136, 0.11441164172654762, 0.11235790933098427, 0.11029880800357106, 0.10834931959619555, 0.10628313948516127, 0.10422733273835354, 0.10214275297603315, 0.10011233582250019, 0.09806531184534854, 0.09605449013263467, 0.09404292580174943, 0.09204871653056478, 0.09006276168569315, 0.0881329676610733, 0.08615953048016156, 0.08414348496569873, 0.08220297864442501, 0.08027268942038683, 0.0784313904771955, 0.0765138125885466, 0.07462934241642867, 0.07274304459671668, 0.07087440373326633, 0.06904392480424536, 0.06720795536792787, 0.06533950733943311, 0.06354771380229705, 0.061771859485092125, 0.060055543553876795, 0.058307510968595835, 0.05656073430217536, 0.05485461656528014, 0.053167427675432054, 0.051505635118391534, 0.049856447747554246, 0.04832399782970764, 0.046703283069580576, 0.04510872971416395, 0.04356859176825573, 0.04202132361636897, 0.04050061398476775, 0.03900599407828788, 0.03753709144866968, 0.0361162112182669, 0.0346950992483899, 0.033347564217101396, 0.031972883901235656, 0.030626721082871834, 0.029292127716339947, 0.02800362709029706, 0.026811293019411833, 0.025566516495706484, 0.02435181177482248, 0.023164542270471385, 0.0220085994429695, 0.020850364292316938, 0.019755064088939706, 0.01868605164714625, 0.017754327840565125, 0.016724165140266416, 0.015753548441608554, 0.014784950517188403, 0.013849313939028765, 0.012896604092720016, 0.012031015443248652, 0.011206060373920353, 0.010395502582786244, 0.009613913447924819, 0.0088653246105063, 0.008140956711175632, 0.007496995270691389, 0.006824224053396543, 0.006183352869754148, 0.005571920562904592, 0.004993950498589801, 0.0044816403701786415, 0.003960518852023489, 0.003471688986451743, 0.0030701703680177323, 0.002637670538235897, 0.002227126343504747, 0.0018640256528818177, 0.00153317478566381, 0.0012526213299479904, 0.0009826834717128101, 0.0008208925969377172, 0.0006052321443378782, 0.0004252051744555032, 0.0002470276056564016, 0.0001397762536155863, 5.773358777082267e-05, 1.3665571331047236e-05, 0.0, 5.556767436848948e-05, 9.722649646109075e-05, 0.0001381272223841439, 0.0002477217807481134, 0.0003867793138053308, 0.0006230213350293942, 0.0008122778409952511, 0.0010757397280806945, 0.001325482767285459, 0.0016095790583847962, 0.0019477965459255057, 0.0022957876868605906, 0.002605368446409541, 0.0030287227948955025, 0.0034802548722311613, 0.004007272112880846, 0.004509390078434006, 0.005017887449171464, 0.005584851044076304, 0.006180854509676068, 0.0068366597290599514, 0.007486716701420351, 0.00821260946633843, 0.008917978443877468, 0.009656014893280452, 0.010473381801931322, 0.011269124381625069, 0.012018564274108474, 0.012891267288783778, 0.013791843936945406, 0.014769652345687072, 0.01571993818147078, 0.01672980821054063, 0.017737780714871237, 0.018777567089024068, 0.019863062189098588, 0.020963277029102317, 0.022061992529955964, 0.023228664552582535, 0.02442406969614502, 0.025623517076113718, 0.026879386016710863, 0.028135813461229814, 0.029449767308456137, 0.030789848623824376, 0.03214410940788802, 0.03353908843926614, 0.03497488677099433, 0.03642129432630463, 0.03789563126258522, 0.039393953457193986, 0.040925138153249406, 0.04251320521478665, 0.04409715032387321, 0.04571109717521175, 0.04743912652296961, 0.049102060873950436, 0.05073160366909894, 0.05247111440615524, 0.05423977238119376, 0.05609299328954376, 0.05791282914314286, 0.05973197809599754, 0.061619863941728414, 0.06353723426244275, 0.06549428843235419, 0.06746913839284295, 0.06944719393749506, 0.07148512992322799, 0.07355129390518868, 0.07572389074256342, 0.07783710939907962, 0.07993409587933284, 0.08211917814770009, 0.08433364657839379, 0.08662889066922447, 0.08889577721770484, 0.09120535609058618, 0.09353544476300493, 0.0958978991521078, 0.09824926877745647, 0.10068100603380456, 0.10317680835382109, 0.10566260795773223, 0.10817986964675959, 0.11073259183594346, 0.11331196127591461, 0.11590224572577373, 0.11854705885160485, 0.12122207684726485, 0.12394798939829194, 0.12668127171508325, 0.12945046667827262, 0.13224681852693984, 0.13507518109524314, 0.13792937069375974, 0.14082248404958853, 0.14370000441530348, 0.146662452090927, 0.14965403764517068, 0.15273272456601375, 0.15577663483711404, 0.15881717307310633, 0.16193281892500505, 0.16507974144619256, 0.16821706684211474, 0.17143232592518948, 0.1747305058025067, 0.17799852849595738, 0.18129995974725252, 0.18466759565397167, 0.18803149678808004, 0.1914037670698158, 0.19484086486969923, 0.19831093254734464, 0.2018077710000712, 0.20534444556475806, 0.2089403329833594, 0.21253866856332523, 0.21617103096263512, 0.21986184845603252, 0.22355851312962277, 0.22725301871511144, 0.23102361201234325, 0.2348159746553497, 0.23865194217206886, 0.24251935964029603, 0.2464429356297369, 0.2503703035472664, 0.25422793914356173, 0.25823401940012713, 0.2622669163483038, 0.26637656548991984, 0.27045869234401043, 0.2745453407622996, 0.2786932603155179, 0.28287082279108067, 0.28706789476243116, 0.29130639904917477, 0.2956563859625264, 0.29994323940380796, 0.30426414367685617, 0.3085260016533586, 0.31292471443297054, 0.3173873586216207, 0.3218354993074557, 0.3263129695004238, 0.3307969350348949, 0.3353351785991777, 0.3399458931257814, 0.34453288663439596, 0.34914944696984346, 0.35379708442870283, 0.3584709013630902, 0.3631707537675074, 0.36790048294710115, 0.37265714359092056, 0.3773663041986984, 0.38218470277894573, 0.3870367383788909, 0.3918963146313151, 0.39677803814410717, 0.4016756136088354, 0.4066019589518127, 0.41150437159469644, 0.4164787095926757, 0.42147126761905135, 0.42653960286944376, 0.4315613923901472, 0.4365162143055234, 0.4415912220162362, 0.44668132402326977, 0.4518235401705868, 0.4569392122800401, 0.4620411198134681, 0.4671942668905592, 0.4723616795868232, 0.4775697324327881, 0.4827612638180774, 0.48790784685798677, 0.4931354331401358, 0.49837286540107273, 0.5036075607200914, 0.5088653888920867, 0.5141416436993389, 0.5194141229022685, 0.5246945373683344, 0.5300192794749303, 0.5353091135144998, 0.5404982402527047, 0.545817135209816, 0.5511360771553764, 0.5565104042577163, 0.5618219744294606, 0.5671298866073508, 0.5724463937437727, 0.5777633379119246, 0.5830531771423505, 0.5883718222714754, 0.5936642193943417, 0.5989777187761243, 0.6042848685295128, 0.6095789144868007, 0.6148723085674256, 0.6201611698745733, 0.6254360644411728, 0.6307011030307453, 0.635932870563597, 0.6411785519554725, 0.6464639439240202, 0.651674761993989, 0.6568733777335635, 0.6619373653750448, 0.6671231710009589, 0.672308871220924, 0.6774461970233256, 0.6825615304717968, 0.6876747972201012, 0.6927416462412853, 0.6977137464851704, 0.7027430074734086, 0.7077434461167138, 0.712733129007001, 0.7176722412105152, 0.7226025922118474, 0.7274796995545678, 0.732326998418661, 0.7371146776811471, 0.7419028106962976, 0.7466563129358155, 0.7513743261125098, 0.75605595719045, 0.7607475221325379, 0.7653476221892516, 0.769868019311496, 0.7743990620129003, 0.7788884105939954, 0.7833433235314435, 0.7877453606400601, 0.7920621785131322, 0.7963800695381669, 0.8006494035497734, 0.8048817832728398, 0.8090502472440838, 0.8131706337538993, 0.8172376610515925, 0.8212528333252487, 0.8251659090165641, 0.8290807538640776, 0.8329586614633102, 0.8367554009154147, 0.8404946566557192, 0.8442310737374438, 0.8478459087512427, 0.8513997981270106, 0.8549001897111554, 0.8583409896246771, 0.8616512110599327, 0.8649782314991472, 0.868322604068215, 0.8715047877916542, 0.8746238530065288, 0.8776642060542553, 0.8806552622748139, 0.8834844418019654, 0.8863517131057882, 0.8891444528981904, 0.8918543402847425, 0.8944986767662013, 0.8971435171833182, 0.8996270632101282, 0.9020389283185, 0.9042898911973053, 0.906566885711101, 0.9088077778944007, 0.910920773314983, 0.9129567464597133, 0.9149028524319336, 0.9167847793798957, 0.9185751223364056, 0.9202996852109535, 0.9219434932552849, 0.9235082989910262, 0.9249894253842496, 0.9263746097923772, 0.9276940915734874, 0.928930539854464, 0.930040615619413, 0.9311158201776223, 0.9320967154944199, 0.9330009003541303, 0.9338187483758326, 0.9345462732401429, 0.9351922956747524, 0.9358567621840553, 0.9363170022461511, 0.9366969318395337, 0.9369587702803968, 0.9371804135043929, 0.9372517894785269, 0.9373124050226729, 0.9372843279444901, 0.937215154475276, 0.9370047642902307, 0.9367031669762574, 0.9363233768133198, 0.9358580543504974, 0.9352949074045036, 0.9346601993009845, 0.9339435517129296, 0.9331364437651906, 0.9322439628578758, 0.9312848075787286, 0.9302199073072334, 0.9290282490941049, 0.9278016820139826, 0.9264893762609239, 0.9251411869940839, 0.9236528549146247, 0.9220031284339488, 0.9203624993651781, 0.918636459446741, 0.916811540950854, 0.9149191926169407, 0.9129617473367028, 0.9109008417357721, 0.9088105933566863, 0.9065825539126915, 0.9042781783531303, 0.9018669809818292, 0.8994148493077867, 0.8968159472394062, 0.8942194902926817, 0.8915436373654346, 0.8888636432811987, 0.886023543907053, 0.8830380544064559, 0.8800649850032384, 0.877017522192561, 0.8739112998603978, 0.8707169663554101, 0.8674198507717299, 0.8640908793773119, 0.8606922317531303, 0.8572375315621258, 0.8537018403009047, 0.8501482067211904, 0.8464772943859022, 0.8427460730114726, 0.838889541941371, 0.835048226510194, 0.8311719157679757, 0.8272052129917654, 0.8231810452012913, 0.8191374969633959, 0.8149970777024566, 0.8107861529260226, 0.8065448733492269, 0.8022522706601544, 0.7978765664731159, 0.793488745199758, 0.789065450038128, 0.7845775208134766, 0.7800433576038042, 0.7753902928871268, 0.7707768299461794, 0.7661394055333413, 0.7614318593483606, 0.7566827213807789, 0.7519017776104171, 0.7470730971775829, 0.7421853136955526, 0.7372878889893962, 0.73235551311251, 0.7274185174957586, 0.7224173037219765, 0.7173915000693738, 0.7123336329280145, 0.7072498280226772, 0.7021413272149474, 0.6970093830673981, 0.6918983894260051, 0.6867179029372923, 0.6815202099981923, 0.6762076678962964, 0.670990905322265, 0.6657892928764734, 0.660530455435722, 0.6552574915851677, 0.6499841960369567, 0.644685819181482, 0.6394009658733838, 0.634082920723722, 0.6287597258157935, 0.6233277760068234, 0.6180109714039509, 0.6127133221401376, 0.6073800880116625, 0.6020447877041566, 0.5967029049747574, 0.5913691371218989, 0.5860829315837557, 0.5807497612838538, 0.575424570968043, 0.570055066184897, 0.5647559121902787, 0.5594774005171594, 0.5541948769751883, 0.5489244136395339, 0.543642716994286, 0.5384035172517501, 0.5331994989021777, 0.5279884496734661, 0.5227960686684769, 0.5176790090730394, 0.5125205266563972, 0.5073298452309107, 0.5022299395670277, 0.4971535250536867, 0.492085385375147, 0.4870616427710025, 0.4820804503944406, 0.4771081249233771, 0.4721653087947503, 0.4672140169494889, 0.46233824571469945, 0.4575811570368491, 0.45275623757118527, 0.44796915177960134, 0.4431340970465189, 0.4384350000372538, 0.43383404616449356, 0.42919709061373235, 0.4246006069630177, 0.4199979644803958, 0.41549022860505525, 0.41104269434002255, 0.40661268803850137, 0.4022254506227605, 0.397887886164099, 0.39358761244243085, 0.38928742842883984, 0.38508404262291024, 0.3809246300311208, 0.37685327682267034, 0.37277915975739917, 0.3687561715333339, 0.3647803766964488, 0.36085462720827244, 0.3569053804522689, 0.35309025030088015, 0.34940227647155775, 0.34567208883229894, 0.34199528368691834, 0.3382528852620633, 0.3346983566607834, 0.331273136648643, 0.3278036416657274, 0.32438801632713327, 0.3209771882334278, 0.3176761748465484, 0.31446588694172933, 0.3112638982883315, 0.3081168414219565, 0.30497142251749987, 0.3019412793853156, 0.2990002962212056, 0.29607033168035507, 0.29319550255034343, 0.2903614642014316, 0.2875987941662454, 0.28484528545974297, 0.28219709122221465, 0.27960080874790016, 0.2771368964681866, 0.27463530346729115, 0.27215193489761924, 0.26976926484747826, 0.2674406564312544, 0.2651351401850662, 0.2629180382382294, 0.2607157333025508, 0.25860684539297035, 0.25654760712995267, 0.2545731312418741, 0.25260928417866974, 0.25073025249708575, 0.24886584076044505, 0.24705456281174643, 0.2452547016512869, 0.24355297188676603, 0.2419699995878066, 0.24035699726069412, 0.23879621032739515, 0.23727438409511054, 0.23581682777674737, 0.23436291995674288, 0.23300800676342698, 0.23169792875423362, 0.23042822497567292, 0.22920723899548542, 0.22808514083427187, 0.22694358378608226, 0.22584768454313411, 0.22474515716893934, 0.22374427276901188, 0.22281011885415905, 0.2218854582990701, 0.22100136990938699, 0.22011397958356788, 0.219314256300323, 0.2185216899233307, 0.2177970152175337, 0.21710577164722705, 0.2165401130313663, 0.21590316697543013, 0.21530588274490656, 0.2147426922698354, 0.21421486473435275, 0.21364116016880466, 0.21319080336229213, 0.21279469780993043, 0.21239566603463456, 0.21202482667347522, 0.21168762100961186, 0.21137020809211401, 0.21103598779239466, 0.21077585562705992, 0.21061602576539779, 0.21039004928930458, 0.21018968545747835, 0.21001783562432608, 0.2098645977278402, 0.20965154330281657, 0.20955223673455903, 0.2094684269796533, 0.20942846068254162, 0.20937073275306534, 0.20937597596041221, 0.2093429563375536, 0.20932674382120078, 0.20930356576926537, 0.20932032453544547, 0.20926499317395378, 0.20931575007027398, 0.20937213743479036, 0.20949558054537704, 0.20955479128988405, 0.20964078619632892, 0.2097133712380497, 0.20979352742323937, 0.20980835186670274, 0.20990971417438145, 0.21002601931738044, 0.21012633449101117, 0.21022725239746548, 0.21033642171747452, 0.21043578356349402, 0.21055498376251103, 0.21064965862829454, 0.21074340255913115, 0.2107799001374936, 0.21087623030664335, 0.2110440403694939, 0.2111170123846789, 0.2111870491075959, 0.2112017536286657, 0.21126931258283696, 0.21137734809555953, 0.21142055026828957, 0.21145671028673982, 0.21146233318270666, 0.21148460348676387, 0.21149598994959937, 0.21149590006117433, 0.21148375665241306, 0.21143640541184044, 0.21140134141926042, 0.21130818540011131, 0.21124831860267465, 0.2111703941031849, 0.21109905793000694, 0.21098185468647515, 0.21081498180236624, 0.21066799868913694, 0.21050172022523134, 0.210369484396198, 0.21015764297825296, 0.20992922183031493, 0.20968364536875478, 0.20942037254929335, 0.20914916497538638, 0.2088477100624138, 0.20852359973130052, 0.20818507189638474, 0.2078268113241247, 0.20736832994387783, 0.2069796005148146, 0.20656557256313998, 0.20612659148861634, 0.20566294989256345, 0.20522007934162315, 0.20470210355050242, 0.204123605663267, 0.20356734691665926, 0.20298698091336717, 0.2024339896420511, 0.201799304950207, 0.20113142664481876, 0.2004562379381392, 0.19975888772887443, 0.1990946920854173, 0.1983456192969968, 0.19746214516625213, 0.19668833797406918, 0.1958877564029618, 0.1951554479931213, 0.19429103448003168, 0.1933841304508351, 0.1924824640684568, 0.19155906858174612, 0.19056669577124707, 0.1896058186463182, 0.18858160349572842, 0.1875774913142665, 0.18654777401378975, 0.18551372556235848, 0.18443235337062686, 0.18331420260872297, 0.18219027246943828, 0.18104397264485347, 0.17986760153536158, 0.17867911775777223, 0.1775432130831206, 0.17630317718328506, 0.17504694145036587, 0.17370455536346008, 0.17242444967284945, 0.171202083913687, 0.16987209994871327, 0.1685273728615843, 0.16709595008992567, 0.16573068424886234, 0.16438974677476625, 0.16298209973922062, 0.16155940125446006, 0.16006237385770603, 0.1586179809770789, 0.15723621842134544, 0.15574758744730963, 0.15424760224452896, 0.15263162670258773, 0.1511225577432959, 0.14969736788579135, 0.1481431387423813, 0.1465798992936664, 0.1449605579444349, 0.14338575810221466, 0.1418224640613173, 0.14022328637591275, 0.13861558139609004, 0.13693612568106986, 0.13532076744519525, 0.13370495207435762, 0.13206783335077366, 0.13042249143587797, 0.1287799996765462, 0.1271192905623281, 0.12552513200545398, 0.12384529299243732, 0.12216539598136864, 0.12046081789453805, 0.11878405114616365, 0.11709581850590912, 0.11541834202232576, 0.11373988209305619, 0.11210818197765512, 0.1104233008223121, 0.10867178390404345, 0.10700226075324337, 0.10533233868214795, 0.10367102551910161, 0.10200161348094115, 0.10038795196658075, 0.09871712991125159, 0.09705292231065636, 0.09541399572416988, 0.09376126458186575, 0.09207371310709363, 0.09044319512740448, 0.08881888901473979, 0.08725681933942586, 0.08563962858458252, 0.08390200198421935, 0.0823235540549134, 0.08074898696460844, 0.07924937544888963, 0.07767737527526439, 0.07613716513172096, 0.07458549006202357, 0.07304705399147964, 0.07154469631503162, 0.07003063869044392, 0.06851749812317585, 0.0670359536576641, 0.06556914286706114, 0.06412967180519251, 0.06269162883424435, 0.06128221080218904, 0.05987542105881979, 0.05848605699114471, 0.05715944305570264, 0.055799659520474144, 0.05439460031717246, 0.053083860064183204, 0.05178961308245708, 0.0505595747820736, 0.049293751170787554, 0.048044334176924317, 0.04682009674657727, 0.0456162478047527, 0.044515065911384336, 0.04334199536814414, 0.04219023569648001, 0.04106802725529033, 0.03997010860868437, 0.03898450572610316, 0.03792319711777197, 0.03685554269990159, 0.0358549670896782, 0.03487949219181062, 0.033945259694509185, 0.033017111158782676, 0.032089672674240864, 0.03121511590979974, 0.030485297787467263, 0.029642617820153754, 0.028830474989640028, 0.028017204004893156, 0.027267593297613957, 0.026556930362101695, 0.02585876020632078, 0.025187467082120878, 0.02465167160071857, 0.024019725092776317, 0.02343049860214823, 0.02286119782788931, 0.02232315472840658, 0.021848465160989015, 0.02136660854316496, 0.020831704670109263, 0.020422116072468726, 0.020037676039846276, 0.01977305576909209, 0.01942755304224654, 0.019133632675635844, 0.01884706096209972, 0.01859165724097666, 0.018381244134921718, 0.018184785042132626, 0.01803327247252549, 0.017895701069037078, 0.017788712539428146, 0.017750918621788004, 0.017698996403362987, 0.01767059622146987, 0.017682644470230355, 0.017724966155207182, 0.017830102477969623, 0.01792790972613165, 0.018061139367578926, 0.018220616080407783, 0.018410824504924515, 0.01871151827690665, 0.018952076698254876, 0.019198225900821844, 0.019510263710437757