0.023518447789497316, 0.023284547518870918, 0.023078164574712214, 0.02292713743407186, 0.022760482400291788, 0.022569665679467468, 0.022443521105715365, 0.022328620775516075, 0.022223219939155128, 0.02212584888056794, 0.022008055136017744, 0.0219267328750464, 0.02184887181867937, 0.02181716329398091, 0.02173963739724608, 0.02161717044575846, 0.021555472328911144, 0.02149519642271608, 0.021438806714246954, 0.021381717635301847, 0.021301928815348516, 0.021252801406081205, 0.02120513116672266, 0.021211637510464686, 0.02116186763500243, 0.021086278978604676, 0.021052496275197084, 0.0210230659498944, 0.021025614724445727, 0.021002635407460515, 0.020979904798134226, 0.020972054827251133, 0.020971210154251723, 0.02095492361529658, 0.02097169218281763, 0.020960897378772138, 0.02099534618120317, 0.021035198819549537, 0.021103806118083403, 0.021153524003753005, 0.02121400920604624, 0.021280763283638, 0.021356776535131735, 0.021480893522592526, 0.02157134710921319, 0.021651307035718877, 0.021768946062911333, 0.02189738305098762, 0.02204358470933638, 0.02219323653851583, 0.022300092646598935, 0.022480059087273536, 0.02266885209667278, 0.022871568962722858, 0.02307907111636674, 0.023292655342212542, 0.023522364853523485, 0.023763196530616388, 0.023981488163407536, 0.02424995925771481, 0.024558178555950307, 0.024843993635667663, 0.02514280594274642, 0.025454850189889536, 0.02578034862136934, 0.026155817604263793, 0.02650426114826264, 0.026868807964792536, 0.027215321782071172, 0.0276161081355977, 0.028024071616817407, 0.02845394848556228, 0.028897941381006945, 0.029324583233365436, 0.029801709326155862, 0.030316987341010643, 0.030817861753714246, 0.03133432678596327, 0.03187569985695308, 0.03242291481344116, 0.03298693188591612, 0.033567899756553284, 0.03416597145565065, 0.03472457824654691, 0.035364504833304534, 0.036039255054703845, 0.03670602749834162, 0.037389540965805095, 0.038112842521831954, 0.03882801594916126, 0.03958035854000079, 0.04033138184532269, 0.04110266896196454, 0.04187831299175423, 0.04269208778388109, 0.04355018956745756, 0.04439970968460836, 0.04527033059338917, 0.04610529263751414, 0.04702521054910484, 0.047947132009347054, 0.04890531921825561, 0.049881436792546884, 0.05087829209557019, 0.05189154881729785, 0.052903912096800405, 0.05395918983969817, 0.05503358009639724, 0.056123023507457424, 0.05723759818974522, 0.0583518984448121, 0.059509725445894154, 0.060714491948414336, 0.06190875742622812, 0.0631251242610353, 0.06437053335697857, 0.06563062500897587, 0.0668522831901228, 0.06816580931704182, 0.06949877502958951, 0.07087437555403521, 0.07224479823878517, 0.07365313424412917, 0.07506574594013661, 0.07650152532591191, 0.07800127124341533, 0.0794780837797533, 0.08095070722885783, 0.08248147479111886, 0.08403514795980936, 0.08559348695891683, 0.0871950025054104, 0.08885217333301935, 0.09049267839323502, 0.0921567996352838, 0.0937920897405761, 0.09550927930314954, 0.09729634256446726, 0.09904733265808723, 0.1008214418713882, 0.102561665151108, 0.10438836144702884, 0.10622965819758283, 0.10809541850537649, 0.10998044076123709, 0.11186219155376659, 0.11378903183286872, 0.11578184822414837, 0.11773953027187029, 0.11971858240223673, 0.12169830345996899, 0.12372183758395021, 0.125812403680928, 0.12786855919921195, 0.12994651240050872, 0.1320026081089927, 0.13412800561303395, 0.1362712332901449, 0.13843217028413007, 0.14061067211950995, 0.14276346054968528, 0.1449820223085831, 0.14723332062040217, 0.14947887697589826, 0.1517402183815822, 0.15399451437810116, 0.15628984209740485, 0.15862412612951957, 0.16094424494494972, 0.16327961978598304, 0.1655913382753876, 0.16796107097888807, 0.17032468252967833, 0.17272070201662437, 0.17512754209897446, 0.17757694783200023, 0.18000128844295965, 0.18242891775777442, 0.18487869525691789, 0.1873394346134415, 0.1897948605055841, 0.19227833572774156, 0.19476157134936609, 0.1972635484795427, 0.19977318451790668, 0.20230152010425506, 0.2048240915854683, 0.20739478804087075, 0.20992627135456432, 0.21246633766007816, 0.21494834163232582, 0.21751139301809108, 0.2200950418328461, 0.2226604535073628, 0.22522881490806904, 0.22777923930085858, 0.23035466738056154, 0.2329440632298986, 0.23551812524107463, 0.23809256689900563, 0.24065097842729902, 0.24322659347805936, 0.24577965368093527, 0.2483531451176182, 0.2509224531623869, 0.2535507856231971, 0.2561026767426574, 0.2586120107150834, 0.26116468759161415, 0.26371149236478736, 0.2662972477738647, 0.26882488343797223, 0.2713179841140422, 0.27383831579192064, 0.2763500734287675, 0.27886168019292273, 0.2813531833901219, 0.2838255872337929, 0.28629746608337736, 0.28875737070830204, 0.2911683617517535, 0.2936070021830282, 0.29604787434287094, 0.29845203155096983, 0.30084055575364366, 0.3032015382648436, 0.30555852841308206, 0.3079020619502605, 0.31022198493841446, 0.3125231405649849, 0.31480041385372803, 0.31706286729639027, 0.31937714710693277, 0.32158828750239443, 0.32378157535997126, 0.325912729033501, 0.328072317727185, 0.33017654723428846, 0.33229232170242984, 0.33438143627318473, 0.3364593962516138, 0.33849202309175236, 0.340454561139877, 0.34243810964160387, 0.34439110955210006, 0.3464063596299319, 0.3482857619656914, 0.3500709466208933, 0.3519055680911783, 0.35370809747980514, 0.3554599567252336, 0.35719930500931574, 0.3589132994328198, 0.36058232281272296, 0.36221676435052874, 0.3638116462268116, 0.36537616799121536, 0.36688862102436953, 0.3683823510915146, 0.3698381371354123, 0.3712579305009592, 0.3726365675171343, 0.3739831821766175, 0.37528291044991774, 0.3765434035407399, 0.37776193207530345, 0.37894286261710447, 0.3800580973902223, 0.381160278422251, 0.3822194605289452, 0.3832649169925513, 0.38423368004710956, 0.38517398737067465, 0.386056380780563, 0.3868964714181015, 0.38769821931563325, 0.38845142978630065, 0.38911103752535553, 0.38978267213830464, 0.3904068156218699, 0.3910401405402054, 0.3915619502097116, 0.39204831367709697, 0.39247937376956016, 0.39286535304388115, 0.39315579325154476, 0.39345635416907265, 0.39372798289961136, 0.39392725756644875, 0.39407832158777323, 0.3941719222884939, 0.39422719895698943, 0.3942332739308108, 0.39419009143796824, 0.39409760248795894, 0.3939557657134403, 0.39376454814686285, 0.39348762132872367, 0.39320217022918774, 0.3928652583897141, 0.39245222459731716, 0.392016416289004, 0.3915512595139758, 0.39100893934649456, 0.3904166839537477, 0.3897928251667121, 0.38909893705542115, 0.38839976780550683, 0.3876036668442611, 0.38676165910127663, 0.38579631308617884, 0.38487145506851134, 0.3839887201198355, 0.3829507951011692, 0.38186817786043453, 0.38068158780835176, 0.37951626260810906, 0.37832044734675796, 0.37705593805854337, 0.37568106372335947, 0.3743311742963561, 0.372931410011628, 0.3715778725314159, 0.37006867216096234, 0.36850815035095563, 0.3669155285896682, 0.36528006247231454, 0.36362229703517024, 0.36189898000431614, 0.36008455958727315, 0.35828528026818185, 0.35644226510641797, 0.3545288965389717, 0.35260368543485865, 0.3506690809565357, 0.34865354278139016, 0.3465981298807096, 0.3444874747416802, 0.3423558840321259, 0.3402168891155975, 0.3380036313901594, 0.3357543664868149, 0.33343095562156966, 0.33111589061189595, 0.32876859210098, 0.3263802467617861, 0.3239570457971236, 0.32147707708604495, 0.31898936467892064, 0.31649507628397094, 0.31393726535914585, 0.3113490610010305, 0.30874703761180133, 0.30609812178247336, 0.3033696198441522, 0.30067309908121403, 0.2979474629846605, 0.29520058025395834, 0.2924190074925247, 0.28966625629631354, 0.28682745491371064, 0.2839679156721512, 0.2811266773202454, 0.2782222259776361, 0.27520996766404854, 0.27228318030939075, 0.2693348859849847, 0.2663866544196029, 0.2633961789658732, 0.26042500419115916, 0.25739683289801507, 0.25435549802564994, 0.2513084145576657, 0.24824175103027524, 0.2451460805978813, 0.24206065294843285, 0.23896468503421783, 0.23586357361741622, 0.2327485360330362, 0.22964850391028915, 0.22651607254239298, 0.22337892962575637, 0.22015607134208956, 0.21702190737545687, 0.21386696353348386, 0.2107216066945658, 0.20757109299131823, 0.20442590750069622, 0.20126809436089027, 0.19815051402711323, 0.19498747532500882, 0.19182839521012818, 0.18864679883837351, 0.18550134677334862, 0.18238329772822934, 0.17924539405271445, 0.17611543772040544, 0.17298284962501603, 0.1698725238636421, 0.16682854177892256, 0.16373114435299244, 0.160648268003811, 0.15753719017787945, 0.1544900211336022, 0.15140406870494405, 0.14839116750816714, 0.14539045185844826, 0.1424803266157068, 0.1394979379190856, 0.13649707986757026, 0.13356023983620002, 0.1306422930676016, 0.12773498814929543, 0.1248584316526509, 0.12199360369720234, 0.11916064941175433, 0.11634965544311435, 0.11360006374617414, 0.11083068636934446, 0.10804937138472956, 0.10533861062934688, 0.10265326763384405, 0.09997825730154404, 0.09734812081241191, 0.09480834487554868, 0.092224666863665, 0.08967301190138385, 0.08713547116977975, 0.08465091408753674, 0.08220043581648115, 0.07977966848588604, 0.0773917499952949, 0.0750144226325999, 0.07269636581193983, 0.07039755835024392, 0.06814755254009335, 0.06593082202593334, 0.06380247816559295, 0.06164733605916662, 0.05946229886058703, 0.05739221703613064, 0.05535671419598183, 0.05339731789943349, 0.05142780908351644, 0.04949706552987978, 0.0476052901719337, 0.04575268193626612, 0.043998429568003615, 0.04221727212462921, 0.0404042773510076, 0.03871836754828827, 0.03707074353656781, 0.03550037261848595, 0.033925586999326865, 0.03234240436522511, 0.030856950596885716, 0.029410176554321443, 0.02802289095100339, 0.026652008178577644, 0.025287935543186712, 0.024003133669280318, 0.022757419612621354, 0.0215738033540335, 0.020404301401867653, 0.019278231553904585, 0.018190755961758776, 0.017144524063361963, 0.016137194439418606, 0.015173502167199308, 0.01430057574841228, 0.013412160757089179, 0.012567165103932566, 0.011735548152646179, 0.010979523266436144, 0.01027053170948096, 0.009593875927910469, 0.008957373507116027, 0.008378879755835102, 0.007819494387224055, 0.007293571051194428, 0.006815127639572515, 0.0063756689056754055, 0.005943046568450129, 0.0055844279394257545, 0.0052664015371067475, 0.004979185863637829, 0.004727979939673196, 0.004521622053788691, 0.0043405471473844034, 0.004186120889508877, 0.004077254144552032, 0.004002810393637407, 0.003976059122154531, 0.003967682933368081, 0.003979777784720226, 0.004040773862874452, 0.004134045935782763, 0.004297745001377919, 0.00444940413120598, 0.00463871531738297, 0.004855239215473156, 0.00510357460925985, 0.0053012508126487, 0.005621201254673987, 0.006065918608663413, 0.006423029527372594, 0.006810454260164872, 0.007154575536498974, 0.0076088262776323416, 0.008070530790163268, 0.008573152733784119, 0.009097555183315006, 0.00971154330261059, 0.010270050729708229, 0.010844134482318976, 0.01145213962905829, 0.01208240738847592, 0.012720496869727864, 0.013394545437113749, 0.01406269444167294, 0.014777339327115363, 0.015537778875249765, 0.016280803106696114, 0.01704078085007492, 0.01779424561203513, 0.018588677170566233, 0.019419169230284743, 0.020236895980031998, 0.021068096157417112, 0.021921053816995627, 0.02277568565335606, 0.023632873130422557, 0.024511075153807585, 0.02539873383816554, 0.026290574064639197, 0.027195513318495335, 0.028077959631233503, 0.028999950145212717, 0.02992591470979513, 0.030880362089908547, 0.03180973821794349, 0.032727170562647685, 0.033665705336981704, 0.03460583623836825, 0.035512937130010816, 0.036458781119292405, 0.03744788980991637, 0.03838342040991166, 0.039318655054201894, 0.040234658766700036, 0.041169263277643905, 0.042091172762871915, 0.043019093336555826, 0.043941693735279265, 0.04486071471388984, 0.0457707923229914, 0.046646833808547346, 0.047546166063297264, 0.048436014619759056, 0.04938409290423062, 0.05024526787826, 0.05107013290551073, 0.05192043889373006, 0.052760381788352746, 0.05355982789939852, 0.0543808808526489, 0.055213012009781424, 0.056002793491156874, 0.05677937341865483, 0.057576207252255276, 0.058320356474761886, 0.05910824766943601, 0.059818451180515646, 0.06051729293487003, 0.061169572464500215, 0.061846599231355576, 0.06251849623381872, 0.06316052306827935, 0.06378552344258995, 0.06440875664312107, 0.06499587234392479, 0.06552654872710265, 0.0660821922918514, 0.06661662342889285, 0.0671409824980429, 0.06763094670499904, 0.06814058395047604, 0.06858277004625656, 0.06900554759684864, 0.06947188316111275, 0.0698461697970388, 0.07019173927908254, 0.07053180073756514, 0.07085213119241503, 0.0711702668004466, 0.07144707102650565, 0.07167177882563562, 0.07191139469377067, 0.07212788593123955, 0.07236422338236068, 0.07252862491877456, 0.07270376126596055, 0.07282168654534427, 0.07291963863100101, 0.07302205629870548, 0.07307543317165388, 0.07310893392706025, 0.07312207990328412, 0.0731144837447116, 0.07310626214800471, 0.073053760874008, 0.07303769350423518, 0.07293717204629319, 0.07281909035893201, 0.0727101022673709, 0.07255185291041734, 0.0724102294024436, 0.0722123884272177, 0.07199822511608929, 0.07178083010896551, 0.07153085762032657, 0.07130496871319238, 0.0710160270833011, 0.07071215100059394, 0.07040654163855015, 0.07006996286178609, 0.069763722324202, 0.06939114100619316, 0.06900580940883692, 0.06859149879762216, 0.06818176761634895, 0.06781672746257175, 0.06737106041938484, 0.06691473913791121, 0.066477062974748, 0.06599522896213078, 0.06554725964184, 0.06504136782906246, 0.0645285372195777, 0.06401533245411907, 0.06348717043590851, 0.06292942226510363, 0.06239040119341048, 0.06184343990665319, 0.061336626119106785, 0.060769131201910034, 0.06020465666265046, 0.05962893450363993, 0.059050307212767626, 0.058503124405888784, 0.05791540004109326, 0.05738683200198796, 0.05679221003463867, 0.056201622835982935, 0.055521965112677936, 0.05495111048096242, 0.05440416641459703, 0.053829067244367666, 0.05325633279636534, 0.05275936941138142, 0.05218459384239507, 0.05163004615708263, 0.05107186074575118, 0.05052379547815969, 0.04996802160892308, 0.04944353839304892, 0.048983803582061565, 0.048473690905217054, 0.047978305957638065, 0.0475070243009791, 0.047040925554554684, 0.04658211702463908, 0.046150338612512165, 0.04573536149389039, 0.04538773812616863, 0.04500199380598433, 0.04459022014584907, 0.044254079592489316, 0.043937637289002476, 0.04368940615885929, 0.04340893636441314, 0.04316026620871924, 0.04292942648782896, 0.042725024080338944, 0.042533992026644166, 0.042385872986822705, 0.04226746891854399, 0.04217473087315179, 0.04211113359515009, 0.042095614869494695, 0.04209037224317886, 0.04212902310566151, 0.04218810928033234, 0.042281735948898544, 0.04237421462275836, 0.042543386779673655, 0.04277421261833902, 0.043009766541169815, 0.04328319996037286, 0.043556651313180386, 0.043912862884960185, 0.04435685968081955, 0.04478352625110511, 0.04525288952489397, 0.04573827850973105, 0.04629816526500606, 0.04693497081826981, 0.04757713377293918, 0.048265695780373374, 0.0490034250428518, 0.04978601008703709, 0.05058943050708756, 0.05147210067044129, 0.05240234434581397, 0.053439903792720976, 0.054460053782116255, 0.055503762212260964, 0.05663395702836643, 0.05781599579581697, 0.05903677255592761, 0.06032574207498874, 0.061667304912299804, 0.0630620642523471, 0.06451740904581553, 0.06601942502407424, 0.06757670141670091, 0.06917608763107246, 0.07084698272568139, 0.0725850667157872, 0.07436674328246254, 0.07620592775908351, 0.07811661361892908, 0.08007021401495155, 0.08207182953267925, 0.08414580461805574, 0.08627893879940463, 0.08846472658761029, 0.09071792622077056, 0.09304890506314095, 0.09541936440359261, 0.09785104567125374, 0.1003848958127479, 0.10293416356642464, 0.10556539030847897, 0.1082397296968919, 0.11097843207888139, 0.11373351193829198, 0.11660599679570605, 0.11955061988815305, 0.12254340375097858, 0.12559788715211548, 0.12871407647770533, 0.13189196459173191, 0.1350793419166184, 0.13838714487542786, 0.14175360407911503, 0.14524033119611798, 0.1487173301970325, 0.15227541396154798, 0.1558756418131907, 0.15953914281269252, 0.1632087096828905, 0.16700450220656748, 0.17085898809806485, 0.1747721826270755, 0.1787440513144599, 0.18276543641155918, 0.18685551141837659, 0.19100337450258123, 0.1952088895116845, 0.19947187288304905, 0.20382840097013633, 0.20820100430095545, 0.2125846555815622, 0.21708003966985495, 0.22163016931952198, 0.2262484019067369, 0.2309054807034159, 0.23560807524246788, 0.24037497803377758, 0.24519492105640914, 0.2500651468344355, 0.2549899575209665, 0.2600319167124827, 0.2650505334766285, 0.2701230245099759, 0.2752618481965663, 0.2804369373830262, 0.28559977475636206, 0.2908842945080486, 0.2962142387731187, 0.3015912937789816, 0.30701001667456906, 0.3124520182670978, 0.3179600221945101, 0.32350915038187206, 0.3290783905058537, 0.3347105304721016, 0.3403807416030494, 0.34608846904079144, 0.3518331005429866, 0.3576298542298768, 0.3634442416150267, 0.369316977333741, 0.3751988844742203, 0.3811158463895172, 0.3870145231045789, 0.3930047397510685, 0.3990622083227715, 0.4051041791477016, 0.4111754911513002, 0.41728635613234033, 0.42341151174660896, 0.4295246589319878, 0.4357065845796109, 0.4419104426994177, 0.4481670851330635, 0.45440801429274275, 0.4605949387707754, 0.46688581941219137, 0.47319085135278666, 0.4795298053478286, 0.48585853555686376, 0.49218452278681646, 0.4985405341765698, 0.504906747183563, 0.5112663375541163, 0.5176520970044152, 0.5239852269594335, 0.5303902489348031, 0.5367964241311919, 0.5432735511994712, 0.5496714192227633, 0.5560361816013414, 0.5624436719621458, 0.568849593767621, 0.5752483385908981, 0.5816484525868688, 0.5880479742754143, 0.5944361317408123, 0.6008171429959015, 0.6071376122724575, 0.6135072902306062, 0.6198428042107811, 0.6261867513095677, 0.6325140939062068, 0.6388444754655325, 0.6451336258775088, 0.651379829821266, 0.6576350396406302, 0.6638685914549818, 0.6700681709564911, 0.6762568907413722, 0.6824044017298935, 0.6885434881584711, 0.6946543380383514, 0.7007632451412797, 0.7068113314330512, 0.7127707847792918, 0.7187657862872165, 0.7247253029694196, 0.7306281211525196, 0.7365168174574221, 0.742361808066952, 0.7481719689178226, 0.7539411034513285, 0.7596275269014553, 0.765317199936479, 0.770956357405429, 0.7765540154794809, 0.7821041049839027, 0.7875968237073204, 0.7930506891755077, 0.7984927113938725, 0.8038400677161976, 0.8091375320711116, 0.8143339977641778, 0.81953443416644, 0.8246967922392092, 0.8297817160149471, 0.8348098789749, 0.8397485459061649, 0.8446642908770661, 0.8494822649410203, 0.8542789435031759, 0.859010640811888, 0.863651911565014, 0.8682552887962421, 0.8728088198287736, 0.8772734764072896, 0.881670237668974, 0.8859779995259286, 0.890239479704852, 0.8944615696424454, 0.8985761445596392, 0.9026201649391002, 0.9065564417271217, 0.9104613027065547, 0.9142932278692366, 0.9180468435151865, 0.9217242655647847, 0.9252613614747491, 0.928792622727063, 0.9322854181268346, 0.9356479719623321, 0.9389311035771938, 0.9421342514529769, 0.9452568528211476, 0.9482779254870569, 0.9512403378216978, 0.9541193913622346, 0.9568874821244671, 0.9596021249215635, 0.9622352686167215, 0.964777090155801, 0.9672327568671281, 0.9695974743425447, 0.9718806249164139, 0.9740470697607824, 0.9761592911806031, 0.978182159551279, 0.9801065869409371, 0.981951833262758, 0.9837229862798532, 0.9853862644730964, 0.9869604221157611, 0.9884657076406136, 0.9898585274706687, 0.9911333711141521, 0.9923526452505365, 0.9935401759199907, 0.9945704963737158, 0.9955133555668749, 0.996309273063118, 0.9970832777951489, 0.9978174347473766, 0.9984009449866006, 0.9988956955523614, 0.9992719411411928, 0.9995922124820092, 0.9997851801471644, 0.9999281865987439, 0.9999784593211021, 1.0, 0.9998581602822125, 0.9995717818231644, 0.9992614031048163, 0.9988599128029831, 0.9983950181336608, 0.9978092915389257, 0.9971104406133027, 0.9963517871341594, 0.9955040901693579, 0.9946041570566828, 0.9935752931482751, 0.9924200964627045, 0.9912256381386881, 0.9899438843533036, 0.9886140428245364, 0.9871547217257239, 0.9855440983051249, 0.9839272460079722, 0.982224033743084, 0.9805012174399508, 0.9786197975036597, 0.9765858785361649, 0.9745542082146045, 0.9724393195237779, 0.9702671984547598, 0.9679857676445387, 0.9656050939749253, 0.963169352954702, 0.9606551540159642, 0.9580634290551177, 0.9553950994470004, 0.952673769199455, 0.949852097299374, 0.9469578221421353, 0.9439598998261789, 0.9409266258859056, 0.9378348179304724, 0.9346565730729309, 0.9314090279066732, 0.9280885645871759, 0.9247057617101923, 0.9213061094127192, 0.9177844430449723, 0.9142007848901431, 0.9104717767362713, 0.9067765950973765, 0.9030325482709081, 0.899207290983341, 0.8953209968426299, 0.891390778241243, 0.8873840758911334, 0.8832845720950026, 0.8791705330917207, 0.875000101880074, 0.8707769229740272, 0.8664975192168544, 0.8621908569701877, 0.8578051464358842, 0.853371172720939, 0.8488400724820648, 0.8443190638963513, 0.8397570045405787, 0.8351409157105815, 0.8304803056661365, 0.8258378087756806, 0.8210844992650083, 0.8162714635496845, 0.8114477705109048, 0.8065874533744479, 0.8016416842475295, 0.7967177192035678, 0.7918143742828072, 0.7868125627979609, 0.7817808667470486, 0.7766703786938164, 0.7715882857218588, 0.7664925015484051, 0.7613507370189178, 0.7561832306065819, 0.7509436333766969, 0.745734561249622, 0.7405372538279159, 0.7352761709334369, 0.7299958495066974, 0.7247247815873947, 0.7194063230169929, 0.7140398851675679, 0.7086988641276851, 0.70334405316107, 0.697983593413007, 0.692604326245783, 0.687249636758266, 0.6818483805295592, 0.67644202918695, 0.6709702608012494, 0.6655643180201523, 0.6601187094884847, 0.6547073146050681, 0.6492913457826776, 0.6438929189316892, 0.6384702328269176, 0.6330898377776848, 0.6276662193670426, 0.6222489773046576, 0.6168004794356905, 0.6114037032161216, 0.6059822297018604, 0.6006048893287249, 0.5952353652090032, 0.5898955527492987, 0.5845434417209974, 0.5791818506603161, 0.5738601739494935, 0.5685526975735262, 0.5632992716527516, 0.5580191029786061, 0.552756727167026, 0.5475178096002297, 0.5423005101420398, 0.5371193059672162, 0.5319461086105234, 0.5267774550935055, 0.5216575159341847, 0.5165628970133167, 0.5114468751828394, 0.5064116857428027, 0.5013973379491221, 0.49641474527571666, 0.49145974190769803, 0.4866106540838449, 0.4817045542192542, 0.4768405476694062, 0.4720045570825984, 0.4672050607257588, 0.4623766570352032, 0.45765969950334073, 0.4530199398476745, 0.4483667086449426, 0.4437519445063016, 0.4391149482971299, 0.434586558868677, 0.4300835463404311, 0.4256310880855266, 0.4212167544645693, 0.4168551762157213, 0.4125183517063147, 0.40824595555185467, 0.4039904546612163, 0.3997793571677313, 0.39562446290644054, 0.3915020882872237, 0.3873511990107084, 0.3833313408765875, 0.3793542853378484, 0.3754345632790581, 0.37154406141642293, 0.3676814894223481, 0.3638860313617437, 0.3601367557346011, 0.35646152512473084, 0.3528030129891706, 0.3491803206329528, 0.34562264286847033, 0.3421141037804512, 0.33862324941041255, 0.33521790816651925, 0.33189933544372185, 0.32858598025620245, 0.3253238718128513, 0.3221266730353111, 0.3189654706724653, 0.31579058658209747, 0.3127418469273908, 0.30974134051984403, 0.306862108619174, 0.30395011789774545, 0.30106657712791957, 0.29826422404138925, 0.2955132258742448, 0.2928157523287127, 0.2901668683183988, 0.28756005984964567, 0.28501447618511533, 0.2825192245688969, 0.2800696706455378, 0.2776753490578341, 0.2753443737782545, 0.2730476799456354, 0.2707467731717669, 0.2685571844670568, 0.2664142404442428, 0.26435666968991606, 0.2623025405295428, 0.26030884866639403, 0.2583511412419988, 0.2564424960286723, 0.25457112765581, 0.2527607215512215, 0.2510269192797056, 0.24930664695095628, 0.24763442429576193, 0.24597333395988344, 0.24439997901296726, 0.2428572306701867, 0.24137375955891568, 0.2399331599713793, 0.238530671642483, 0.23717568460632463, 0.2358443851120151, 0.23457508166228153, 0.23334598203669707, 0.23211829998043915, 0.23097379872184207, 0.2299437045411719, 0.22886393312935094, 0.2278256042780615, 0.22680976590309082, 0.22585423258946685, 0.22494357334926912, 0.22406269884270047, 0.2232190365068368, 0.22238921149734173, 0.2216207886092368, 0.2208567523873526, 0.22015932334602847, 0.21949309129880776, 0.2188985864498444, 0.2182885980030261, 0.21770194249875394, 0.21715714514069112, 0.2166427026621101, 0.21611027208319847, 0.21566047868379049, 0.21524761524862857, 0.21484723168656011, 0.21447236751080154, 0.21414746773151586, 0.213818913199845, 0.213481612645028, 0.21320714396015725, 0.21295446513517863, 0.2127162530682573, 0.21250643619538043, 0.21233454351247183, 0.21216143270742635, 0.2120079994408094, 0.21188030996979446, 0.21176314525460532, 0.21162977305653213, 0.21155176495031863, 0.21148807522801297, 0.2114404558698703, 0.2114035371127022, 0.21142254475711625, 0.21140519623354523, 0.21140184933188452, 0.2114092508615503, 0.2114312734559952, 0.21145523506600394, 0.2114995587679633, 0.21155265830253406, 0.21157973992266352, 0.211652431218996, 0.21175697596327991, 0.21183502339621824, 0.21191829801072995, 0.2120197001418304, 0.21210957586657198, 0.21220786832572872, 0.21230413332054585, 0.21240296631742114, 0.2124468557184422, 0.2125556645824366, 0.21267064980785905, 0.21277225166972707, 0.2128709071923114, 0.21301613438632477, 0.2131013649209253, 0.21311485549453066, 0.21320533005376913, 0.21328879634805056, 0.21340815638067334, 0.21347148988108397, 0.21347958214381, 0.2135379298970256, 0.21358686800431945, 0.2136897158032425, 0.2137111292080246, 0.21366243401326449, 0.2136779221268058, 0.21368169864829387, 0.21372120107539888, 0.21369486788744982, 0.2136429055706958, 0.21359842903373408, 0.21354202837605965, 0.21344600678454023, 0.21336780878002518, 0.2132884079143885, 0.21317864537554246, 0.21305439810969937, 0.2129130541058488, 0.21275910044857135, 0.21264851700216233, 0.21245554853204193, 0.21224965931362164, 0.2120051218610633, 0.21177430887889775, 0.21149075931614983, 0.21123128898051358, 0.21095260940111024, 0.210643336682349, 0.21032754492521144, 0.21006436659179356, 0.2096994266410644, 0.20931859650947154, 0.20890313356625334, 0.20849110841674753, 0.20802427795221368, 0.2075795671237468, 0.20711379940896157, 0.20661570528900408, 0.20610947532465815, 0.20561805559738097, 0.20506438981874694, 0.2044915375827485, 0.20387209296380254, 0.2032638033796668, 0.20264341783153678, 0.20199175027074037, 0.20131964211855408, 0.2006384701451799, 0.19992414789998783, 0.19915610166714656, 0.19840666750316874, 0.1976355771813207, 0.19687260071898907, 0.19605526991355163, 0.19518467417894328, 0.1943331817924678, 0.19346055779909516, 0.1925875303055863, 0.19167096600011732, 0.19079655663540507, 0.18983413238758798, 0.18885625770014414, 0.18778542145603297, 0.1867853811773086, 0.1857601435753588, 0.1847198155356784, 0.18365946643684536, 0.18255912893625034, 0.18146266104521805, 0.18039851674609297, 0.1792562865667612, 0.17809821689879324, 0.1769221213936583, 0.1757329343147124, 0.17449860915443374, 0.1732820459974833, 0.17204855746206912, 0.17081901524649304, 0.16955043289770755, 0.16821973776568086, 0.16692850849601928, 0.165620663875867, 0.16433317095236166, 0.1629894570367712, 0.1616421253243609, 0.1602721509527736, 0.15889055349329095, 0.1574567149265193, 0.15605772855224068, 0.1547000146727705, 0.15326838191699985, 0.1518278114225008, 0.15031262423669617, 0.1488629017761719, 0.1474872420643698, 0.14600304428820915, 0.14451298121505102, 0.1430124956908732, 0.14151127348440895, 0.13995865310366873, 0.13845130093961627, 0.13693575511463232, 0.13540807829700788, 0.13387850511063304, 0.13233543194068165, 0.13079392666066003, 0.12924651557384612, 0.12769381403832586, 0.1261364164957803, 0.12462935525005757, 0.12305738977559688, 0.12140150705761521, 0.11984032130184162, 0.11827468362568812, 0.11679619915690302, 0.11521266317028157, 0.11359131163950342, 0.11201897089014527, 0.1104473722618662, 0.10890641935170675, 0.1073337961384002, 0.10576933332980192, 0.10420355544097633, 0.10264203371875792, 0.10102596840401061, 0.09948103163403725, 0.09798989442136588, 0.0964423270079969, 0.0949007491013513, 0.09337221652885812, 0.09184252172629746, 0.09030184570142917, 0.08878903080333421, 0.08728287226575267, 0.08571345327324136, 0.08423076600318573, 0.08279515424734327, 0.08131591709794478, 0.07984493393745265, 0.07839630045434122, 0.07694152811084586, 0.07551531109248372, 0.07407936508189282, 0.07265546872152509, 0.0712551307470435, 0.06985440477032501, 0.06841697951031853, 0.06704911468182709, 0.06569190934355494, 0.0643754105628225, 0.06303740882698305, 0.06169057900053544, 0.06038338643919733, 0.05908921594363041, 0.057794853862426075, 0.056529627696312056, 0.05527552519116665, 0.05403781699299465, 0.05281423302751026, 0.05161651982424162, 0.05042092388130713, 0.049257088262264756, 0.04809146493544072, 0.04694305101202979, 0.04584141881943009, 0.044723923624402355, 0.04355972931799161, 0.04248860855686093, 0.04143262656812228, 0.04043760013690218, 0.03940742461148269, 0.03836662394541575, 0.03737787844126482, 0.03640627400546989, 0.03546790990548219, 0.034529206931722296, 0.033654504905783554, 0.03274733543696998, 0.03186139366531944, 0.030939617312877327, 0.030102336912634527, 0.029320789169100383, 0.02851318421537884, 0.027725344967295822, 0.02687318913225093, 0.02613512642087773, 0.02545034790366271, 0.02473741232052882, 0.02404244244004499, 0.02339733267808627, 0.02273463677872293, 0.02204661977190464, 0.02142958376442427, 0.020829677799268462, 0.020321968798117256, 0.019747385070301333, 0.019097023734179343, 0.018577842315622085, 0.018073990254281014, 0.017617588504082647, 0.017141380742118184, 0.016730819419453934, 0.01628451114109761, 0.015858720403971946, 0.01541893091622225, 0.015037070913664914, 0.014686090416301206, 0.01433692551255459, 0.014005551981492568, 0.01368945830524377, 0.013393231648204608, 0.013070842943992514, 0.012813753039891643, 0.012570766008453927, 0.01236924178930588, 0.01215136794384154, 0.011942582884276848, 0.011757151733888645, 0.011586808091355144, 0.011426845448156881, 0.011286732227250917, 0.011240324625264688, 0.011118581356521667, 0.011015234506528325, 0.010838688968208183, 0.010781176073811112, 0.010798191363768982, 0.010754712861026857, 0.010725906807146674, 0.010656802158821577, 0.010662711815392906, 0.010692390617885223, 0.01071688777733698, 0.010752267207125184, 0.010793814052889662, 0.010850986056032812, 0.010877367654105071, 0.010959624856880153, 0.01104925887918535, 0.011162265818507646, 0.011264929053716066, 0.011394192242202127, 0.011511291921361114, 0.011637506023595897, 0.01177247863947292, 0.011915852489908287, 0.012083152584604441, 0.012240245463934353, 0.012405555038531281, 0.012501447545934722, 0.012691500751769736, 0.012992941125314336, 0.013174348377976035, 0.013364632653605053, 0.013492634171021341, 0.01370716351092565, 0.013908444593538394, 0.01413015249051786, 0.014353376818830005, 0.01463935664605712, 0.014857755288435193, 0.01508319313843772, 0.015310225816328573, 0.015540951464883122, 0.01576799108875952, 0.0160052787634675, 0.016217023907412764, 0.01646069422740248, 0.016703675597720156, 0.016941249254736845, 0.017182871352431652, 0.017477426911661823, 0.017708938234029043, 0.017941611829522107, 0.01815892346009102, 0.018394051176020852, 0.018670767655461835, 0.01889700738384522, 0.01912337912677071, 0.019290184779747886, 0.019522228051450003, 0.019780918001867376, 0.01999863463587292, 0.020212857459584302, 0.020373312109124686, 0.020585810926557563, 0.020831845196197653, 0.021024663185103383, 0.021212625767999323, 0.0214067802059012, 0.021582716196307042, 0.021755845129038213, 0.0219209876868856, 0.022080494203226313, 0.022238571299150776, 0.022385258054809523, 0.022507476499130607, 0.02264351480922351, 0.022771615763829932, 0.022853079206237678, 0.022969801673806026, 0.023110074670479347, 0.02320170505284419, 0.023285084590536236, 0.023382738604177725, 0.023446256087081018, 0.023518195338705288, 0.023564445834219853, 0.023603481604645267, 0.023702962320075023, 0.02371776732743985, 0.0236985614295871, 0.023707219509202498, 0.023760295908013363, 0.023746392375089347, 0.023726851747867785, 0.023673701119751055, 0.023644190312206322, 0.023641860849132983, 0.02358924606094778, 0.023529053746736382, 0.023440384980578245, 0.023366257622920876, 0.02335025045521409, 0.02324749373385965, 0.023138395901131974, 0.023033693766190817, 0.022908747411441617, 0.02278561812622218, 0.022644559235819674, 0.02249593604909702, 0.022375683419613778, 0.022206305115973927, 0.02205092298540395, 0.02186564731887742, 0.021674250771905906, 0.021478540691730053, 0.021273321611095325, 0.02114267322382838, 0.02091266332382371, 0.02067972341228538, 0.020463512645884117, 0.020219979589977042, 0.019954615892937788, 0.019705460173948204, 0.019450602574222712, 0.019262459188545574, 0.01898651396709884, 0.018704042924123216, 0.018424121277141197, 0.018140932520562234, 0.017870057769566888, 0.01757751494098316, 0.0172978469093608, 0.01699710270771746, 0.01669397069224185, 0.01642687472525602, 0.016113720750668047, 0.015895424842981454, 0.015569092915036642, 0.01524727032886157, 0.014876935234709029, 0.01456839667265152, 0.014318420776007946, 0.014001599682727931, 0.013687807703682647, 0.013381278218677425, 0.013072168011258937, 0.012761211114189288, 0.012458014045131312, 0.012157248621380496, 0.011884021077945763, 0.011585462549932203, 0.01132084344854981, 0.011027540578022868, 0.010740601354666347, 0.010534887878657095, 0.010251239339886569, 0.00995564561582506, 0.009695948352671733, 0.00944503565545816, 0.009191580149490813, 0.008959803676324214, 0.008788644719397373, 0.008567449159806702, 0.008358294766675212, 0.008170237965080275, 0.007984043236296676, 0.007796968086770033, 0.007638093497581679, 0.007491517764313482, 0.007368951971240428, 0.00724667503293509, 0.007195265478248266, 0.007094472734295554, 0.007011787176854428, 0.006885928241639445, 0.006847235726621921, 0.0068574361709785895, 0.006844851580191779, 0.006850423229292726, 0.006933559747661239, 0.006969254317997775, 0.007002778888557169, 0.007087221021003592, 0.007193154261788668, 0.007357241126299215, 0.007502675596136652, 0.007675082933868782, 0.00786979689980013, 0.00808971844064354, 0.00831694673469173, 0.008590380786384367, 0.00885486017767772, 0.009183282682510466, 0.009535935980309855, 0.009961290583269203, 0.010358817574133525, 0.01078790532932824, 0.011244093475595844, 0.01173045531522981, 0.012249653601121863, 0.01279727807195557, 0.013401403949873587, 0.014009386192698415, 0.014651185062588837, 0.015324787600764795, 0.01603530977290631, 0.01679627301427847, 0.017574268721106883, 0.018388466242426838, 0.019239141626655954, 0.02012660107692064, 0.02104663868839346, 0.022009258657246105, 0.023009467358306886, 0.024070379985480044, 0.02514417996019016, 0.02626948409658615, 0.027422428324730644, 0.02861671465442428, 0.029879787213613455, 0.031153991407894818, 0.03245591298099903, 0.033819398572994736, 0.03522578185339787, 0.036652655312454874, 0.03814856867120881, 0.03972330793555212, 0.04130018125987518, 0.04292261392990114, 0.04458852343094457, 0.04630294245678657, 0.04802483931326285, 0.049836495511104334, 0.05169256121242705, 0.05363672960167277, 0.05557787315251886, 0.05755387308350945, 0.059593814235878236, 0.06168174475352781, 0.06384289097719223, 0.06602443905420848, 0.06827204152336376, 0.070551968313144, 0.07288306284506775, 0.07527434696359017, 0.07770649234148394, 0.08013123017528186, 0.08267394689841884, 0.08526483812167543, 0.08789074307891645, 0.09058102103984994, 0.0933743972102418, 0.09615551080231327, 0.09898914762029416, 0.10186386474028691, 0.1048036989629665, 0.10782918877778215, 0.1108679754098729, 0.11396031511235086, 0.1170537446365887, 0.12025898636781426, 0.1235662812543647, 0.12686485937704506, 0.13021660093757242, 0.133562219670063, 0.13702688977526564, 0.1405678134378716, 0.14412731434458517, 0.14773776354585494, 0.15135141615903774, 0.15506948285258224, 0.15886951895704887, 0.16267938345544353, 0.16653949320779443, 0.17041791530281752, 0.17438201014406357, 0.17845526516669405, 0.18250743015633364, 0.18661092496208778, 0.19076744969819892, 0.19497162680347102, 0.199148453140068, 0.20346143022277546, 0.2078187902224189, 0.21229777134049765, 0.21673434490996915, 0.2211924676837652, 0.2257293124831673, 0.23031197428226569, 0.23491956229691183, 0.23959501894762433, 0.2443318521025578, 0.24909111833481448, 0.25385306397174445, 0.2587039835131723, 0.26359501162325305, 0.2685712787306312, 0.27353598275533836, 0.27853336111269433, 0.28358195188631596, 0.2886702635687067, 0.29379307448795533, 0.29895934249437406, 0.3041153504305487, 0.30936174864450927, 0.31464150065905006, 0.3199883230957845, 0.32532946150673986, 0.33074330205238084, 0.3361470588209366, 0.341585572094376, 0.34698286530490585, 0.35249708905799343, 0.35802729947410783, 0.36359719100376625, 0.3691928581934908, 0.3748433464192244, 0.3804854181145081, 0.3860830464526103, 0.3917849471343404, 0.39750706294490357, 0.4033330206144983, 0.4090838834220037, 0.41482667438400156, 0.4206277059055035, 0.42644819468773754, 0.43227131246593514, 0.43812987243340934, 0.44393831288698166, 0.44983569390498435, 0.4557433077506946, 0.46170387500123894, 0.46762524026424607, 0.4735487465897496, 0.47949271061281, 0.48544539242558865, 0.4914171820635114, 0.4973829715524315, 0.5033551688719642, 0.5093326519837172, 0.515314290075842, 0.5212603710201149, 0.5272517736479624, 0.5331963502119222, 0.539189752786633, 0.5451774256238036, 0.5511542658826278, 0.557129278335975, 0.5631054551628517, 0.5690627507471838, 0.5750110898258688, 0.58098583990613, 0.586908824213035, 0.5927924644099332, 0.5986981486190703, 0.6045896668601066, 0.6104704756218291, 0.6163298229279276, 0.6220925393288309, 0.6279263266683106, 0.6337360904423377, 0.6395076675561091, 0.6452693741366684, 0.6510248226701543, 0.6567299215350206, 0.6624080800118092, 0.6680288316436573, 0.6736538950091897, 0.6792405428313997, 0.6848024219969563, 0.6903306021154674, 0.6958060590374436, 0.701266473771041, 0.7067053042336612, 0.7120879275839349, 0.7174322307753971, 0.7227598393595402, 0.7280214196044086, 0.7332018618337904, 0.7383867210119087, 0.7435264176947743, 0.7486268208037725, 0.7536724913334996, 0.7586364578543411, 0.7635900366264478, 0.7684919133253834, 0.7733117940451361, 0.7781115704222511, 0.7828600343735665, 0.787546883441307, 0.7921767808135088, 0.7967307905881184, 0.8012466958542389, 0.8056726888920654, 0.8100707731047926, 0.8144053085730815, 0.8186734752464813, 0.8228794923229211, 0.8269996024055297, 0.8310765554253776, 0.8350854913669934, 0.83895549367472, 0.8428355144051808, 0.846716590791467, 0.8504393734586622, 0.8540921886015425, 0.857626479481767, 0.8611426651764426, 0.8646016492359712, 0.8679643222862493, 0.8712516029470326, 0.8744196549884721, 0.8775594208345996, 0.8806305283875873, 0.8836084640222351, 0.8865062151170919, 0.8893504567855144, 0.892082720784102, 0.8946756317289236, 0.89725383303842, 0.8997467782839488, 0.9021042658723035, 0.9044321280830252, 0.906695947930283, 0.9088426854968308, 0.9109018245627586, 0.9129093797585262, 0.9147878384072243, 0.916520806496913, 0.9182330965554967, 0.9198543348193268, 0.9213617241786973, 0.9228033768341808, 0.9241681814288814, 0.9254223646278519, 0.9265846739338638, 0.9276344949969795, 0.9286150512318455, 0.9295587138241714, 0.9303448174202628, 0.9310403848768467, 0.9316267368141142, 0.9321419943628604, 0.9325597218837685, 0.9328893293357476, 0.933125236310184, 0.9332423324588268, 0.9332935634495562, 0.9332084645670625, 0.9330740024975085, 0.9328419944464986, 0.9325673428080266, 0.9321346574604739, 0.9316291365040197, 0.9310072714688741, 0.9302931628517179, 0.9294140228599803, 0.9285241252825065, 0.9275783747022959, 0.926490480880571, 0.9253092758334074, 0.9240440198888751, 0.9226756219009551, 0.9211968959401436, 0.9196466266150414, 0.9180035664377225, 0.9162476913586132, 0.9144228369114382, 0.9124939339950242, 0.910485712256807, 0.9083853558130186, 0.9062275900133494, 0.9039407197060234, 0.901547513403226, 0.8990869645264895, 0.89653803284975, 0.893924011772761, 0.8911972671658518, 0.8883920675755593, 0.8854943987789236, 0.8825128088207458, 0.8794205488217214, 0.876276038990594, 0.8730272186203287, 0.8697183279518238, 0.8663260411954069, 0.8628377407128592, 0.859283362024248, 0.8556432451249645, 0.8519281212927121, 0.8481336882683714, 0.8442474187914543, 0.8402993341834788, 0.8363106988342892, 0.8322054731479234, 0.8280277290075181, 0.8237488004101305, 0.8194322662891882, 0.8150441212081035, 0.8105855012241214, 0.8060643414963449, 0.8014672895425876, 0.7968035139596286, 0.7920286963531646, 0.7872404046197499, 0.7824427753726043, 0.7775166336361843, 0.7725304734748881, 0.7674579913551993, 0.7623580409406825, 0.7572152882853994, 0.7519971859486845, 0.7467237419246242, 0.7413779005918989, 0.7359993743600507, 0.7305224446391951, 0.7250448993820572, 0.7195143580438625, 0.7139687717812702, 0.7083325408571135, 0.7026796528594885, 0.696948612741854, 0.6911755362738271, 0.685322850467218, 0.6794736141801883, 0.6736014301484535, 0.6676691036597011, 0.6616994939143315, 0.6556575331752375, 0.6496216665237721, 0.6435910585188743, 0.6374804138665198, 0.6313395564518064, 0.6251356217038794, 0.618942172294505, 0.6127065490969714, 0.6064591936035391, 0.6001854766792732, 0.5939187253335572, 0.5875929195980899, 0.5812108217929034, 0.5748508512630767, 0.5684713039779072, 0.5620805141972361, 0.5556655041769772, 0.5492289862674423, 0.542786825109412, 0.5363323443635892, 0.5298442666964068, 0.5233722336945139, 0.5168794400827825, 0.5103915474115909, 0.5038966365270773, 0.49738945232888504, 0.49088597693472036, 0.484386433903241, 0.4778778317518945, 0.4713696623785125, 0.4648405849460236, 0.4583401704444075, 0.4518383435796983, 0.44534620791384144, 0.43885980543564623, 0.4323737325603709, 0.425903824960335, 0.41948192798738704, 0.41302735764564735, 0.4065870297454982, 0.40015055260174764, 0.3937430089969443, 0.3873337916133945, 0.38096255461273987, 0.3746088759346911, 0.36831250870212334, 0.3619925797337911, 0.3556413719473114, 0.34937547294774085, 0.34313128716933916, 0.336962254467537, 0.3307586078821211, 0.32456507527673834, 0.3184209625751846, 0.3123055251230166, 0.3061878760932278, 0.300136435924236, 0.2941099624851034, 0.28811921249923295, 0.2821598836835752, 0.27622849852343073, 0.2703357249618668, 0.2645044028518255, 0.2586776094111502, 0.2528884802922871, 0.24710819769420705, 0.2414001568405753, 0.2357346744770195, 0.23010298847906888, 0.2245113126029373, 0.21896041921767706, 0.21345104882180338, 0.20801567794014578, 0.20258743812934543, 0.19720454812509056, 0.1918219979956699, 0.18653666312742434, 0.18130887187763642, 0.17611041981069953, 0.17095810570570683, 0.16587743522898718, 0.16081585272962085, 0.1557557166846266, 0.15079861689626609, 0.14588847010456987, 0.141046343713484, 0.13622940789370724, 0.13147370381268178, 0.1267554439091188, 0.12208835950350949, 0.11740685052995682, 0.11285103224957642, 0.10834780831686207, 0.10388822597972369, 0.0994782706213794, 0.09512525919975655, 0.09081516404745688, 0.0865904595446145, 0.08237905180515438, 0.07822142699079433, 0.07407439657294168, 0.07002955372673651, 0.06609028719723188, 0.0621410527328748, 0.05824645387928128, 0.054351755161282794, 0.050572488028312546, 0.04684399527972557, 0.04316646217073818, 0.03954002395647434, 0.035957962158718965, 0.0324347967319437, 0.028964751323723285, 0.025543022066393296, 0.02217227092500993, 0.01884788079701368, 0.01557938798015679, 0.012352203852813628, 0.00918548846566623, 0.006068336056975698, 0.003021037478484225, 0.0