0.04948310122909254, 0.04873850094197405, 0.048120515583935757, 0.04763766710807438, 0.04704040066813205, 0.046463520018300425, 0.04577573734076424, 0.04524717521672648, 0.04471984433313212, 0.044201524870156404, 0.043686694192458006, 0.043239976546160304, 0.04272244462591112, 0.04218032101807935, 0.041677838220281205, 0.04117832964546036, 0.040740661051769, 0.040239199142121686, 0.039792611007120886, 0.03929657459444687, 0.03880856284881811, 0.03827707818482413, 0.03780988452262636, 0.037393272866717495, 0.03692784081650316, 0.03646917065089117, 0.03591126281577853, 0.03547917282838545, 0.035006993596115955, 0.03458221540591919, 0.03415753454602915, 0.033817539241294735, 0.033385757118170024, 0.03289464914378005, 0.03248726131883949, 0.03208433711943354, 0.031713081470410256, 0.031317891358271885, 0.030953077930329004, 0.030571373527144268, 0.03019959232451035, 0.029807327229149378, 0.02945965024027916, 0.0292244156351169, 0.028881222662934365, 0.028553214463556926, 0.028072948302897326, 0.027794994451926302, 0.027623380433378013, 0.02734270812662803, 0.02707430722616611, 0.026785641581861426, 0.02654602984816754, 0.026361806045490835, 0.0261380684259688, 0.02592810174975906, 0.02573795414642144, 0.025554607204017754, 0.025316059030866197, 0.02516947088117853, 0.02503298413809419, 0.024917357632753316, 0.024801479140649715, 0.024740632120026473, 0.02464427814646737, 0.024563326888849376, 0.024389864668228747, 0.02435334909371216, 0.024389327547019994, 0.02436451919448002, 0.024354392372256367, 0.024369374264785252, 0.02438805851405545, 0.02434535185582304, 0.024405906435077198, 0.024478384723459375, 0.024665356041962083, 0.02475106599953282, 0.02477713116734488, 0.024912150920578274, 0.02506204280647206, 0.025221193972787898, 0.02540304840060945, 0.025661881988906083, 0.02586826099642854, 0.02609481943763181, 0.0262620454584, 0.026538697623079942, 0.02686748017063613, 0.02717108732625034, 0.027493420319307016, 0.02783266591084254, 0.02819336884214882, 0.028489859869968867, 0.02889985381972159, 0.029324853188534353, 0.029902137090060444, 0.03034243827192227, 0.030824054670948547, 0.03131188999391579, 0.031824812397606525, 0.03237050657749018, 0.032931271485918207, 0.033398339044149926, 0.03402247705854344, 0.03466378625109106, 0.035325044203280344, 0.03600259409868295, 0.03664651940702096, 0.03736991194456124, 0.038110657667246646, 0.038910334045093066, 0.039683121703635645, 0.0404452737188944, 0.04126632602696532, 0.042107995761748174, 0.042989076501221635, 0.04387101773908151, 0.04484506573653583, 0.045764192569439754, 0.046710392946593376, 0.047636401054795594, 0.04864139513826948, 0.049602468924158295, 0.05066255054309523, 0.05174224471535689, 0.05286656366240903, 0.05398406103138656, 0.05524214056626099, 0.05638988326408941, 0.05756706491291478, 0.05878302383992331, 0.0600153634327057, 0.06123269845986946, 0.06252526269730271, 0.06384189461988782, 0.06522108360503973, 0.06658040082492254, 0.06782698977619232, 0.06925477351499859, 0.07069962741028415, 0.07218672449549186, 0.07366475572453585, 0.07525070194796643, 0.07675867594376372, 0.07829241532162352, 0.0798798834131532, 0.0814599758960688, 0.08302318680798779, 0.0846597746138658, 0.08631858486617354, 0.08789965824910868, 0.0896149239518461, 0.09138489512545833, 0.09312791986242502, 0.09489024212987374, 0.0966678872758262, 0.09846956456042068, 0.10024771387153586, 0.10209324910706719, 0.1039942546829372, 0.10586874423865839, 0.10776265185078987, 0.10976333026675125, 0.11168441137064282, 0.11360678804955027, 0.1155771202553688, 0.11756803290283799, 0.11943839999316382, 0.12148631491287591, 0.12364889699124577, 0.12570592350444704, 0.12778062526852854, 0.1297869999471208, 0.13190638229553964, 0.1340188475436996, 0.1361635636507748, 0.13831898555811642, 0.1404995591554796, 0.1426750884229219, 0.14499275178685495, 0.14717532787722998, 0.14937669470663706, 0.15144286546223984, 0.15369732017799043, 0.15610291465606857, 0.1583524536442, 0.16061696132093664, 0.1627894212327756, 0.1650938717822169, 0.16751404639279557, 0.1698160694562603, 0.17212979506558712, 0.17434623780264852, 0.17669382507096373, 0.1791417207194254, 0.18148208741305627, 0.18383038946068395, 0.18605335725488076, 0.18843149533221995, 0.19086039762049561, 0.19322775832354117, 0.1955963268954759, 0.19804310474876274, 0.20040319367625234, 0.20265772673866436, 0.2050394163391849, 0.20741724838613718, 0.20990515820276576, 0.21226057464825604, 0.21446950397400458, 0.21684680741145657, 0.21921563223356455, 0.2215944519558236, 0.22394435913187605, 0.22626866702944004, 0.22860608063010449, 0.23093462211417973, 0.23323372273933257, 0.23554640325387194, 0.23801724065845098, 0.2402867053806861, 0.24255435091225927, 0.24476352231186377, 0.247029539351466, 0.24933887199976681, 0.2515780434356577, 0.25380876579198647, 0.2560155104713723, 0.2582273859997326, 0.2602777991947152, 0.2624818378752787, 0.26466285644912396, 0.2669637064329536, 0.26908157614677425, 0.27121362478304506, 0.27329813778321527, 0.2753677756189085, 0.27725641393520456, 0.2793135744261743, 0.2814103612348232, 0.28340423302569073, 0.285374853205665, 0.28741341500145434, 0.2893246664637114, 0.29107397929057355, 0.29296318697089563, 0.29482263269788506, 0.2967155164515171, 0.2985076452778712, 0.30027970249820096, 0.30201807379442014, 0.3037293631615243, 0.30534369141961487, 0.3070076046953433, 0.30864675860823604, 0.3102437745931861, 0.31180816465411687, 0.31344556097249887, 0.31493057882773573, 0.3162639227360346, 0.3177084944191993, 0.31911633975330483, 0.32052408441208896, 0.3218537295342153, 0.32309962819745597, 0.3243652220836599, 0.32559227216539516, 0.32694765645360463, 0.32807627522406313, 0.32901049283997524, 0.33009944692690923, 0.33114673982594356, 0.33214022019976636, 0.3331058769865154, 0.3340231274717049, 0.3349049891803695, 0.3357442242315021, 0.3365530423203148, 0.3373054229644145, 0.3381562070360765, 0.3388064763385874, 0.33942213339848076, 0.33986949130036564, 0.340428724451918, 0.3409788908462974, 0.34144214459340766, 0.34186187190257855, 0.34229073727404724, 0.34261593079520053, 0.3427959833626048, 0.3430510368954764, 0.3432577302958949, 0.34354260917704765, 0.3436375427090272, 0.34362078089656745, 0.34364303415153025, 0.3436193254764793, 0.34363103870391526, 0.343504967651644, 0.3431806230701706, 0.34299067812738765, 0.3427491727225359, 0.3424548359712932, 0.3421126830119192, 0.3418512180903008, 0.3413939456672473, 0.3408954626672423, 0.3402330345459804, 0.3396659154622171, 0.33909606287955146, 0.3384245465866036, 0.3377073266770759, 0.33704025257685644, 0.33622002336336604, 0.33530907321450215, 0.3344150466804144, 0.33347727518773695, 0.3324774605837041, 0.33145462698214245, 0.3303525929332058, 0.3292452299214921, 0.32809189752807166, 0.32688299414480154, 0.3256407205060625, 0.3243983636304305, 0.3230612830835663, 0.32168302218288436, 0.32029838831221, 0.3188340114909693, 0.3171987404190035, 0.31567396942600195, 0.31410326563793095, 0.3125855254996833, 0.31091404174079307, 0.30910156569997743, 0.307369052685132, 0.30559392614422776, 0.3038118755782276, 0.3019503162325866, 0.30007555691188875, 0.29813626623965805, 0.29616194093221515, 0.29423034466319, 0.29217738759113293, 0.2901072072520445, 0.2879936602493954, 0.28585111795065254, 0.2836143470717586, 0.2814218868425763, 0.27913163766981786, 0.2768828217381304, 0.27459909094351237, 0.2724017828815056, 0.2700366379896065, 0.2675287271410765, 0.2651292342856821, 0.2626986915494286, 0.26029529175977206, 0.2577989528213531, 0.2553840374876057, 0.2528260151164038, 0.2500939200814336, 0.24752086868185166, 0.24492137335146155, 0.2424208859385498, 0.23975653546971645, 0.23705394463999027, 0.23436084830526335, 0.23165096115771958, 0.22884533734346243, 0.22611331304442334, 0.22337374976489316, 0.2206018881384791, 0.21781334302882496, 0.21504986165166579, 0.2122258650498764, 0.20948006367515443, 0.20662260805992816, 0.20376008567377463, 0.20077640745093472, 0.19791839813820514, 0.19505916646557428, 0.19217824501391037, 0.18928881159215127, 0.18653643651940233, 0.18361475127805707, 0.1806162737698006, 0.1777096423247258, 0.1748008908984501, 0.1719863858720997, 0.1690633606016156, 0.16606222265996934, 0.16316043967038316, 0.16025938462959033, 0.1575024201839981, 0.15458736168835158, 0.1516510225878968, 0.14876238534337013, 0.14588278777092334, 0.14306744624889017, 0.14019980267323978, 0.13732083113298416, 0.13448250381449303, 0.13165606249926304, 0.12880732322179433, 0.1260103687784765, 0.12333882025673973, 0.12055110945782034, 0.11778292819275599, 0.11495686866241989, 0.11223750748661518, 0.10954981371664028, 0.1068600322826858, 0.10418830126368364, 0.10157404619136091, 0.09893576819439127, 0.0964930229365686, 0.09387828975541804, 0.09129670880446832, 0.08873928051337365, 0.0862226680637855, 0.08373473278230052, 0.08127955744346617, 0.07885462249971492, 0.07645180722733809, 0.07408855283576722, 0.07181651881333827, 0.06950618650290528, 0.06723019652742249, 0.06496001959023706, 0.06275633900157407, 0.06068333535792309, 0.058533679804574794, 0.05642344316976609, 0.054297411476909155, 0.052272348725265545, 0.0502425174461535, 0.048295019019429265, 0.04638224625669159, 0.04460484730454805, 0.04275155753276871, 0.04099411633772351, 0.039219973887288595, 0.03749180657732346, 0.03568310722527872, 0.034062106138947695, 0.0326321413893687, 0.031069536511066614, 0.02955581146449528, 0.028033635537822926, 0.02662399993425344, 0.025220675124974005, 0.023906313275962352, 0.022635578816262773, 0.021529312699955557, 0.02033278322426153, 0.019241621735876985, 0.01814292482769321, 0.017099030431097322, 0.016011609476623355, 0.015087973601345768, 0.014191819302673592, 0.0133669328655851, 0.012589716524526142, 0.01185875742283221, 0.011178968234666986, 0.010585132472327417, 0.00999985018039757, 0.009466944439344467, 0.008972320932643918, 0.008546442518948046, 0.008162435602198021, 0.007842216930109804, 0.007574001735018409, 0.007388644813050822, 0.007221497377441162, 0.007192405066649794, 0.00712386319224793, 0.007114577775284245, 0.007151663810307558, 0.007260512248050968, 0.007385452414791173, 0.007612724723173019, 0.007893882337289064, 0.008328754913805466, 0.008705280223059688, 0.009055980910582878, 0.009561931864677598, 0.01012135741271393, 0.010834124008061115, 0.011488197394496245, 0.012270846829457015, 0.013034144913479649, 0.013859297052050664, 0.014663736229777008, 0.015619631774442675, 0.016595195298321257, 0.017663906238437735, 0.01878473252161763, 0.020077973969678888, 0.02128836525728772, 0.022535683958023803, 0.023866685756110093, 0.02525411623961208, 0.02660178030671042, 0.0281126891046932, 0.029766922079055524, 0.03136572745807851, 0.03302017723405434, 0.03478271659406713, 0.03654033749221591, 0.03826156792990303, 0.040144732864353154, 0.042078344487004544, 0.04412152109733697, 0.04614875975777144, 0.048199349864390464, 0.050337730780654226, 0.05252731946195268, 0.05482084797576399, 0.05710554727288019, 0.059358284831463715, 0.061760226437408326, 0.06420963749002541, 0.06671680218317376, 0.0692601248996427, 0.07201247709078774, 0.0746317270025969, 0.07730790958911339, 0.07993978354007937, 0.0827381263163192, 0.08553691058989682, 0.08843538176537417, 0.09137783592360209, 0.09436838452659599, 0.09739835543951539, 0.10051525380165371, 0.10362802570227901, 0.10678704990980185, 0.11004673689741637, 0.11328965194455089, 0.11661079845917202, 0.11994426694084287, 0.12332525993658786, 0.1266488468674508, 0.13013479295454133, 0.1336939724771459, 0.1372527363367521, 0.14085191178229556, 0.14450532702566513, 0.14818224926406595, 0.1518563432155789, 0.1556179656958175, 0.15941601075512843, 0.16327063962585517, 0.16713832586291585, 0.17113652606434457, 0.17506563542017023, 0.17903592936818036, 0.18295456210962902, 0.18701520054202406, 0.19115322707410073, 0.19527313888889183, 0.19954365674153457, 0.20371734285411938, 0.20793077229751367, 0.2121477666532449, 0.21644048547491185, 0.22078297073975411, 0.22513965776300257, 0.22952893708201977, 0.23391728883769886, 0.23837309843086898, 0.24282444755964586, 0.2473400915722128, 0.251881010804637, 0.2564245831925478, 0.2610181771409051, 0.2656289261842497, 0.2702696995626555, 0.27493311300822343, 0.27962104981317953, 0.28432898531356887, 0.28906927158842716, 0.2938199757159856, 0.29859281748826283, 0.3034728759996171, 0.3082778841421616, 0.3130901798138796, 0.31794757019440667, 0.3228273066676892, 0.3276328368289783, 0.33256680672241845, 0.3376394637485857, 0.3425867460914846, 0.34755546582626257, 0.35253433907526055, 0.35754397812769473, 0.3625021560963505, 0.36755523414790114, 0.3726205671763172, 0.3777814307966511, 0.3828600987786283, 0.38795705300910743, 0.393067000972718, 0.3981914435279756, 0.4033050782197179, 0.4084590308925321, 0.4136236300440384, 0.41879832954157287, 0.4239825933232858, 0.4290679925220548, 0.43428345183948475, 0.43964743987218635, 0.44484861516167323, 0.45006057542814154, 0.4552639813042257, 0.46049684071234803, 0.46564090112838896, 0.47089893173850983, 0.47615710364585423, 0.48136667408610895, 0.48663158643834986, 0.4919775065430664, 0.49722724660039014, 0.5024797195993658, 0.5077099344319356, 0.5129692793784252, 0.5181529744001178, 0.5234208320191278, 0.5286833824452355, 0.5339448901713988, 0.5391967950534663, 0.5445782932465727, 0.5498035655166963, 0.5550313514537739, 0.5600913791716488, 0.5653417579820884, 0.5706772137855906, 0.575894569841682, 0.5811071693525804, 0.5862858356997622, 0.591490513734958, 0.5965993024991907, 0.6017979418795585, 0.6069824747064277, 0.6121511189630386, 0.6173083556124306, 0.622478303673854, 0.627604678683958, 0.6327186980090664, 0.6378566470637457, 0.6429402077937217, 0.6479023567241633, 0.6529761265586065, 0.6580307829987931, 0.6632130798115432, 0.6682113932177512, 0.673188877331032, 0.6781659149098022, 0.6831292845545655, 0.6879395176148237, 0.6928900236000594, 0.6979118540905512, 0.7028017768853954, 0.7076730897733932, 0.7123642477500105, 0.7172165617734653, 0.7221613134896876, 0.7269393874693372, 0.7316957251414614, 0.7364174881886065, 0.741130033409262, 0.7457144730150496, 0.7503910843678993, 0.7550365663235292, 0.7596349440633491, 0.7642210547794397, 0.7688917899458416, 0.7734005390943066, 0.7778845903612404, 0.7822167621173935, 0.7866645462207853, 0.7911083360684694, 0.7954833675695103, 0.7998258346422814, 0.8041924946755045, 0.8084618414411655, 0.8126276672898802, 0.8168450035695193, 0.821026388862607, 0.8251899718659693, 0.8292965681504113, 0.833247464617438, 0.8372976322545798, 0.8413045620775473, 0.8452931734118928, 0.8492118751518306, 0.8531956657767116, 0.8570193719584676, 0.8608080612640218, 0.8645484839165078, 0.8682656342241637, 0.8718810244924359, 0.8755280731506626, 0.8791313923479556, 0.8827151952605929, 0.8862272796429937, 0.8895578134273858, 0.8930006727131644, 0.8963916389671787, 0.899739464193406, 0.9030273046108017, 0.9062997516374486, 0.9094833872138086, 0.912619228886105, 0.91562557465642, 0.918675289055243, 0.9217328153085098, 0.9246685769235293, 0.9275549963923356, 0.93041611942808, 0.9331995928969957, 0.9358524543134995, 0.9385472440200613, 0.9411870502223696, 0.9437658256473617, 0.9462965530855275, 0.94892056730091, 0.9513217786029007, 0.9536758281310992, 0.9558510747292048, 0.958123351781118, 0.9603293040367956, 0.962486261227365, 0.9645845636165237, 0.9667117526130622, 0.9686816334239569, 0.9704795739661108, 0.9723558561399303, 0.9741700950791391, 0.9759469799467738, 0.9776347547941188, 0.9792420881432556, 0.9808121617433315, 0.9823207708428088, 0.9838290099559761, 0.9852069897118295, 0.9865024630900201, 0.9877668226648023, 0.9889706618992219, 0.990054659612487, 0.9911440926731314, 0.9921851731655356, 0.9931434988342442, 0.9940385150449238, 0.9948885587921503, 0.9956546634995145, 0.9964704512459366, 0.9970976410715735, 0.9976684804389939, 0.998145267347036, 0.998604993639905, 0.9988854227255164, 0.9992372229810091, 0.9995203917657891, 0.9997722113843615, 0.9999153245165737, 0.999985429466451, 1.0, 0.9999047624050932, 0.9997951600423781, 0.9996184137131313, 0.9994340980677907, 0.9991171475585326, 0.9988192484510268, 0.9983671517245241, 0.9978571001198794, 0.9972497220448315, 0.9966266855607195, 0.995974331180507, 0.9952233011488671, 0.9944120672612977, 0.9934629951306683, 0.9925403906842891, 0.9914854448662936, 0.9904415608885015, 0.9893298068523808, 0.9882713354234037, 0.9870116779166074, 0.9856306434669881, 0.9842622801061693, 0.9828318591129023, 0.9813398491511406, 0.979786708210493, 0.9781280966433853, 0.976459699074715, 0.9747289882803184, 0.9729632265510982, 0.9711068850872038, 0.9692550845475105, 0.967274084799361, 0.9652389806762002, 0.9631741559313859, 0.9610276782318582, 0.9587654032340441, 0.9565214710761363, 0.9542212600517938, 0.951836856898725, 0.9494294598653235, 0.9470311035634784, 0.9445040795220683, 0.9419262293414954, 0.9392428403878588, 0.936571103202468, 0.9337649263043846, 0.930998305148741, 0.9281757497272304, 0.9254412225530431, 0.9224930408017122, 0.9193849625770673, 0.916363805528832, 0.9132924721463962, 0.9102453894582557, 0.907067792839919, 0.9037313493890831, 0.9004832331472791, 0.89718666514981, 0.8939428230467888, 0.8905409164691019, 0.8870798221374108, 0.8836032318410797, 0.880087513545752, 0.8764539154348135, 0.8728719390174472, 0.869370523804642, 0.8656912562674853, 0.861979861762434, 0.8581958582890867, 0.8544261371390802, 0.8505964560426746, 0.846763857380122, 0.8428978219158234, 0.8390583962574997, 0.8351210289088876, 0.8311646658294728, 0.8271724911620519, 0.8231546877736508, 0.8189876019524374, 0.8149358978539506, 0.8108268808838702, 0.8067185015732329, 0.8025810470468442, 0.7984325241375125, 0.7942399226846713, 0.7900464336091492, 0.7858057630307343, 0.7815456668400005, 0.7772570105163095, 0.7729624641739491, 0.7686733911824488, 0.7643432436272047, 0.7599995537771587, 0.755573950516581, 0.7512144777201761, 0.7468503148838885, 0.742461232990895, 0.7380606213240845, 0.7336191528944367, 0.7292029335851381, 0.7248360211003685, 0.7203942119333575, 0.7159486062017806, 0.7114714542654593, 0.7070241270971008, 0.7026245884211534, 0.6981656200322076, 0.6937084013572528, 0.6893064294310458, 0.6848477457989736, 0.6802530668318434, 0.6758256679612674, 0.6713973338804596, 0.6669512696240325, 0.6625278858646058, 0.6582514376341392, 0.6538160123498419, 0.649393925198953, 0.6448814940674019, 0.6404997332721807, 0.6360834038005865, 0.6317246151988972, 0.6273739595794614, 0.6230837847238678, 0.618747230278632, 0.6143545224512844, 0.6100579970223646, 0.6057741930916553, 0.6015085462802214, 0.5972536796233983, 0.5930257936497204, 0.5888043473035012, 0.5846024245063627, 0.5804250080294506, 0.5762643120160389, 0.5721748497374652, 0.5680534937558828, 0.563958771970539, 0.5598136518751193, 0.5557829988672511, 0.5517838507703553, 0.5477999139512718, 0.5438417818728294, 0.539944907441164, 0.5360364958740358, 0.5322213495586193, 0.5283657129658538, 0.5245446698702326, 0.5206706211204536, 0.5169297263184732, 0.5132918139528236, 0.5096018482759345, 0.5059472703992843, 0.5022325334158059, 0.4986612809273748, 0.49509409458483483, 0.4915882495310092, 0.48811336892154644, 0.4848333874553984, 0.48140294748251794, 0.47796668372672446, 0.4746280037035516, 0.47132872714267193, 0.468054679094449, 0.464836264439663, 0.4615631015103064, 0.4584345839958236, 0.45534021643551204, 0.4523603992742792, 0.44932719928021286, 0.446211136187346, 0.44327638122041224, 0.4403761694545432, 0.4376439266399511, 0.4347992272101347, 0.43199534564027425, 0.4292406291250927, 0.42652998888146987, 0.4238998625982324, 0.42127214219391573, 0.41852305951704916, 0.41600716598537607, 0.41352665443887304, 0.4110641989427792, 0.4086596303421697, 0.4063510718995564, 0.4040137685651178, 0.4017182129270116, 0.3994543186873725, 0.3972437866629423, 0.3950807066784414, 0.39295216052091525, 0.3908653998785069, 0.3888000089554075, 0.3867991941626221, 0.384822481835581, 0.3829045332565284, 0.38102607313063847, 0.37915053205630894, 0.37735585838694113, 0.3756841983982344, 0.3739539534229033, 0.37222770780296366, 0.37058710780289367, 0.3689858243742068, 0.3675192883393725, 0.3659837531429238, 0.36447375495387174, 0.36302717412163715, 0.36162133988665457, 0.360131279177485, 0.35882033053294254, 0.35766308603904184, 0.35640012920938346, 0.3551761524920325, 0.3538233874625433, 0.352696041993907, 0.3516875677883664, 0.3506037843961432, 0.3495535262133059, 0.34860971944166824, 0.3476161281759449, 0.3466610542096905, 0.34573915609047556, 0.34485188588783316, 0.34384563194493645, 0.3430442067964004, 0.3424066877225286, 0.34163479489735493, 0.34089496138422304, 0.3400498588866316, 0.339388657438958, 0.3388652500580139, 0.33823315759828804, 0.3376297861050736, 0.33701152913491456, 0.3364684740116891, 0.33595129851067684, 0.3354552399145024, 0.33498224972016766, 0.33451961973041605, 0.3340928151986521, 0.33369908120585684, 0.33331200225924784, 0.33294555837683004, 0.3324892265077617, 0.3321761868617674, 0.33198983943333255, 0.33168802681173803, 0.33140573140497237, 0.3311868826230777, 0.33093539997831845, 0.3305466672360845, 0.33035286714758727, 0.3301675175261025, 0.3300132265112778, 0.32984248066926863, 0.32969195397915974, 0.32953974649958856, 0.32939758728417606, 0.32928132450628944, 0.32915585355172994, 0.32897885869867644, 0.328879559083493, 0.3287850677189109, 0.3288458659811464, 0.3287413605518564, 0.3285842706924767, 0.3285115793839166, 0.32844480322576725, 0.3283424050288593, 0.32829017352903944, 0.3281882904230745, 0.3281445634730332, 0.3280983632936641, 0.3280577846076793, 0.3280053968381394, 0.3279506583093157, 0.3278932805459137, 0.32783293816099185, 0.32792807216967035, 0.32784062439782596, 0.3275584606130387, 0.3275041356370435, 0.3274401500188134, 0.3273748198752195, 0.3272909203025359, 0.32733857668491706, 0.3272189684646838, 0.3270980598370644, 0.3269297352825571, 0.3268080144515213, 0.3267215590437549, 0.32657877927780454, 0.3264295924472121, 0.32625472512806686, 0.32609226374574, 0.3257711137981856, 0.3256067051455113, 0.3254227269863723, 0.3253705034258557, 0.3251302309753973, 0.3247929757872879, 0.3245440389674863, 0.32427911142090665, 0.32394116970616077, 0.32365138108342073, 0.3234257299763484, 0.32308708153887483, 0.32273442981586337, 0.32241211114290524, 0.32202445565856513, 0.3216362398789128, 0.32122074741538037, 0.32079174924015214, 0.32027117175451375, 0.3198228819061414, 0.31934260067212517, 0.31885640612707017, 0.31834993286365676, 0.3179149532718733, 0.31735678446983234, 0.3166271075492546, 0.31605861341987745, 0.31546533987653463, 0.3148378524116779, 0.31419844629187016, 0.31366390836843866, 0.31296207286490624, 0.3122451094152273, 0.31144930211290894, 0.31070831946682254, 0.30989819476849995, 0.3091229216212375, 0.30832480414715613, 0.3075124570012933, 0.3066689812858431, 0.30590617185291047, 0.305007835966173, 0.30409458907275816, 0.3030212817994731, 0.30209476430329335, 0.30128616839958183, 0.30029324122249623, 0.2992852195254371, 0.29825345320298263, 0.2972148325132599, 0.29617159012159144, 0.2950975322607459, 0.2940069399611845, 0.29287924245553604, 0.2917575778489723, 0.290605555724419, 0.28944926405777394, 0.2882743953628551, 0.2870404908960007, 0.28583440131396276, 0.2846347180716695, 0.2833857733493058, 0.282119443525883, 0.2807301993983006, 0.27944349337464164, 0.27813039818078317, 0.27680076018436756, 0.27545084768137945, 0.2742058712033323, 0.2728026865961391, 0.27141140463485497, 0.26998419325547773, 0.2685473865236037, 0.26703963692493005, 0.265590623114101, 0.2640323053732838, 0.26256857985641885, 0.2610867136683751, 0.25969375941867934, 0.2581656902891268, 0.25666330988858, 0.2551130949965337, 0.2535560819871586, 0.2519453088997386, 0.25038027456713924, 0.24870176339909073, 0.24713097969365055, 0.24554555794587446, 0.24406890599656575, 0.2424424284208911, 0.24082385567505, 0.23918721202360177, 0.2375469904811374, 0.23591540041263917, 0.23426651395299347, 0.23258636938130986, 0.23093561571327292, 0.22928063999142326, 0.22753019618933304, 0.22587947792072285, 0.22420425198514854, 0.2225402910363942, 0.22086939131439148, 0.21920488031179788, 0.21752181090735442, 0.21588036907079036, 0.21418609787135087, 0.21249269792558717, 0.21070888474312516, 0.20902980426790763, 0.20737595705849282, 0.205687812386816, 0.20412018190797424, 0.20241832687721403, 0.20072493126154506, 0.19902334388695594, 0.19734791984593092, 0.19554890252516968, 0.1939033584725334, 0.19225725223070342, 0.19062393506077213, 0.18897847522721303, 0.18735867149129923, 0.1857176874063285, 0.1840827330948251, 0.18249705744439682, 0.18087021941760678, 0.17931023127679896, 0.17769596295043152, 0.17609493701818624, 0.17442743028107516, 0.17286203265914188, 0.17122323686611934, 0.16968473051479913, 0.1681507087706719, 0.1666222998230293, 0.1651005288868803, 0.16362908079134234, 0.16211788954052353, 0.16061828240839174, 0.15923648011932728, 0.1577477012992007, 0.15627949021933074, 0.15482696645857194, 0.1533920767515645, 0.15189909800609286, 0.15050788821316782, 0.14912707866991573, 0.14776140975495763, 0.14640886290231495, 0.14499856659499122, 0.1436824028854906, 0.1423621967860783, 0.14106914452031774, 0.13978719461973482, 0.13857825620166167, 0.13731319763158945, 0.13605269116140473, 0.1348228077033456, 0.13360919122563306, 0.13240387909350365, 0.13122435026161486, 0.13016291357928014, 0.12900330649879194, 0.1278660790122602, 0.12661416173979873, 0.12553702448145967, 0.12459296860904033, 0.12352722638999265, 0.12248241833068656, 0.12137868527564377, 0.1203844596996536, 0.1194930349078498, 0.11851858419008089, 0.11756491869140101, 0.11648500149351933, 0.1155901302462601, 0.1147717546604826, 0.1138922053568219, 0.11302927691194307, 0.11215256012854939, 0.11132709427122733, 0.11059420629896811, 0.10978968742144225, 0.10900527145303517, 0.10827921819357837, 0.10752888599082666, 0.106781338026582, 0.10607489561935401, 0.10538731226419022, 0.10456144979793805, 0.10393030801987425, 0.10331633102456682, 0.10270316610455481, 0.1021012704134614, 0.10155403419637248, 0.10097107693247297, 0.10044207497723535, 0.09988478080385092, 0.0993449087062325, 0.0987426875904347, 0.09824659186423011, 0.09778476765240297, 0.09730988537100031, 0.09684864648147949, 0.09641527496781375, 0.09597940269190774, 0.09555982106202905, 0.0951519593091347, 0.09475797083642354, 0.09446308091061137, 0.09408517617239394, 0.09359071040627755, 0.09326441957346691, 0.09294649759100881, 0.09278580727807768, 0.09246649606471836, 0.09201580985314194, 0.09174864094841685, 0.09148820046757634, 0.09137317237137392, 0.09110935054327522, 0.09070583629414922, 0.09049059192145044, 0.09027967820263498, 0.09022003468002121, 0.09000023622207166, 0.08973885686808876, 0.08955173829934754, 0.08937291713196614, 0.08927320877477174, 0.08910066836562612, 0.08894525752849107, 0.08879301940783381, 0.0886502903742151, 0.08842052397840683, 0.0883064036057151, 0.08811261863539463, 0.08801244170590013, 0.08790963429826727, 0.08779673071353185, 0.0876916075850048, 0.08773981463711908, 0.08761275898481119, 0.0874937423793504, 0.08726164845537282, 0.08717097552740087, 0.08720912368029458, 0.08709920618084117, 0.08699542422932363, 0.086735960568066, 0.08666191601386161, 0.08660262412382172, 0.08651532268904076, 0.08642451593738432, 0.08630391197279699, 0.08620990287323049, 0.08616010963974219, 0.08605085430609438, 0.08594006975782742, 0.08576841247635875, 0.08566111796364367, 0.08566816895192697, 0.0855343012432447, 0.08540165509153312, 0.08522655342906325, 0.0850990572707428, 0.08504518692258181, 0.08490005505187485, 0.08475478288256602, 0.08456157183962855, 0.08441910931822115, 0.08426511333977418, 0.08411222171768455, 0.08395288364068315, 0.08376240928340836, 0.08359250126584704, 0.08348936055942176, 0.08329277972221294, 0.08309179510392865, 0.08280227553603497, 0.08260112042653103, 0.0824298005868565, 0.08220191950742423, 0.08196577979564725, 0.08162345271916881, 0.0813825433814733, 0.0812657464690498, 0.08097929313901944, 0.08068742320270317, 0.08033857639056194, 0.08004038658652944, 0.07974434796715188, 0.07942441917699805, 0.0790949803799856, 0.07862557386532001, 0.0782931174759509, 0.07793117766328132, 0.07756665234095256, 0.07718589990322963, 0.076956656708532, 0.07652461883071537, 0.07592492514900531, 0.0755030705856534, 0.0750657038502451, 0.07465214957520183, 0.07418070959211018, 0.07383400904814448, 0.07332209353213091, 0.07280634580315366, 0.07213507433613615, 0.07162772066338417, 0.07117861256427162, 0.070632406452798, 0.07012304687068084, 0.06955077073071893, 0.06897078671363244, 0.06829910886255197, 0.06771278834442157, 0.06714327461877115, 0.06652598091761404, 0.06589734172644035, 0.06526555064587959, 0.06461334887971934, 0.06409090756952417, 0.06339952329428278, 0.06270534114995285, 0.061883084046923366, 0.06119589617621592, 0.06065492147007496, 0.05992281677213137, 0.05918769264487871, 0.0584628386821562, 0.05771714095357634, 0.05685684212597324, 0.05611505234195232, 0.055361224927016506, 0.05471186099950448, 0.053920646135278534, 0.053174110107189324, 0.052367851324068536, 0.05155925684586545, 0.050772067561064504, 0.04995377979118411, 0.049126744517741426, 0.04830343016519156, 0.04747621698959906, 0.04655325139042496, 0.04572919665375375, 0.04491396770263272, 0.04406934060400148, 0.043217692600552804, 0.04239823958969178, 0.04152925369587147, 0.040817829976555045, 0.039922163752438775, 0.0390326799482945, 0.038105588604936895, 0.037230949204718165, 0.036383982114273586, 0.03550821241804166, 0.034634832188971836, 0.03376767435463311, 0.0328979388663327, 0.03208128220478372, 0.031209463825620714, 0.030342732326932725, 0.02953373478661514, 0.02866973407473672, 0.027705340464216945, 0.026869572872028312, 0.026034531586555092, 0.025241613477546318, 0.024404906680955338, 0.02356100876735729, 0.02273621922627986, 0.02191644705628771, 0.021138815680512724, 0.02032588718307039, 0.019543885766035156, 0.018745395057449588, 0.017957142222060036, 0.017285091964233397, 0.016504280569882956, 0.015740099700146268, 0.01499193966262842, 0.01425933295838827, 0.013570441749960534, 0.012864431738468013, 0.012160632886977094, 0.011489086052821595, 0.01083278368462145, 0.010230463580994005, 0.009599999256635447, 0.008916068472593719, 0.008330125469224412, 0.007757926039884114, 0.007175707770633308, 0.00663608384966476, 0.0061047131656633115, 0.005595428927573167, 0.005101821214739499, 0.004789626387374802, 0.00430897805968828, 0.0038067883854422256, 0.0033863632208817906, 0.002989463292291894, 0.0026629696720082315, 0.0023074277938675133, 0.001917303881451106, 0.0016223117127349511, 0.0013501513492139292, 0.0011135325109335357, 0.0008869821566181507, 0.0007913182367116915, 0.0006018374065621863, 0.00044415892285867175, 0.00016110826673582936, 8.573250763103744e-05, 3.652633426875102e-05, 5.984927118228871e-06, 0.0, 7.654882868985308e-05, 0.00011532626614519552, 0.00017645426749169255, 0.0002775930029139975, 0.00040946409939096953, 0.0006661416047159544, 0.0008489053189070884, 0.0009895205501219125, 0.0012564850624832069, 0.0015556540724686776, 0.002019826123644915, 0.0023680645231238463, 0.0026494080573106443, 0.003092679479885826, 0.0035697793428040646, 0.004052682445648065, 0.0046024639292578445, 0.005206233306832663, 0.005821373430834163, 0.00647259436474493, 0.0071745810213510956, 0.007897448544145494, 0.008788750795085577, 0.009571698909220343, 0.01040065388650998, 0.011148622778660675, 0.012083373201074266, 0.013195588013189603, 0.014187147974980354, 0.015224731797904643, 0.016177440440227456, 0.017321845747130922, 0.01864394315363414, 0.019845756925127186, 0.021094089634514993, 0.022258148061844032, 0.02361459332660129, 0.02501512704952926, 0.026447557142720745, 0.027919834185737923, 0.029483470976579478, 0.031030802009825022, 0.03264085293115015, 0.034274720588726035, 0.03595413988755397, 0.0377441842782318, 0.03950626843650239, 0.0413459023855383, 0.043201936544066774, 0.045107612948762886, 0.04706230791352384, 0.04906548690259178, 0.05098843395514348, 0.05310349883604259, 0.05525867931894161, 0.057430300420495524, 0.05967098403721842, 0.062094945426498724, 0.06439986296062865, 0.06675489319529715, 0.06908410866151632, 0.07154715317215506, 0.07414404872305577, 0.07668449108369033, 0.07927455995436646, 0.081885151787791, 0.08457633486770567, 0.08736888639466574, 0.0901457098603815, 0.09297161253487948, 0.0957095626448679, 0.09864904719480547, 0.10162417653514913, 0.10464423919327832, 0.10770495432541388, 0.11094116816902669, 0.11406754972194776, 0.11716391252803517, 0.12039825649685325, 0.12367591790267474, 0.12699682507411575, 0.1303608799080593, 0.1338534659764539, 0.1372926119902815, 0.14077926564504004, 0.1441924327938218, 0.14778672071772048, 0.15146818970465148, 0.1551332000325485, 0.1588397171581377, 0.1626668625452767, 0.1664455066076855, 0.17017965801229273, 0.17405884026085575, 0.17800065788466518, 0.18195304465398146, 0.18594473647439738, 0.18999163371976788, 0.19405870759159136, 0.19827067941292673, 0.20240188899515463, 0.2065769920482762, 0.21067245478597765, 0.2149467549483628, 0.21927666097114096, 0.22361444731225277, 0.22798644758353445, 0.2323291785919832, 0.2367764561166888, 0.24125120567041225, 0.24575784225644973, 0.2502939649766645, 0.2549877843674409, 0.25956644586517724, 0.2640735431116107, 0.2687372531960688, 0.27342878371682855, 0.27812751781421674, 0.28287644132312445, 0.28765723684659655, 0.2924566905165126, 0.2972817410506601, 0.30215439755466816, 0.3070266120098331, 0.3120485904739688, 0.31695557506369926, 0.3218937379470294, 0.32684509853369087, 0.3318427133401461, 0.3368658507061062, 0.3419132650424624, 0.3469837796521819, 0.35194801909648354, 0.35707765903066746, 0.36218336513717614, 0.36734312128494623, 0.3725135592493243, 0.3777376105660665, 0.38292442794444637, 0.3881245317616679, 0.3933374468786342, 0.3985626559385306, 0.4037466704031529, 0.40900145745709005, 0.41441852496763004, 0.4196686317994857, 0.4249344478802065, 0.4301064549405796, 0.43541257227882124, 0.44066471609127494, 0.44598792939292964, 0.45131185002316426, 0.4567727755732799, 0.46208045459349484, 0.46732058407345195, 0.47265189086236364, 0.47798391286510117, 0.4832853967937435, 0.48862054629572504, 0.49399525139899886, 0.49931808044830006, 0.5046390291185885, 0.5099245783176464, 0.5152430573382258, 0.5205957333822631, 0.525895362856696, 0.5311894107479403, 0.5363160072056364, 0.5416161398335418, 0.5469230459125438, 0.5521850874344733, 0.5574313216707584, 0.56275523869999, 0.5679574445254468, 0.5729956596909659, 0.578193408128208, 0.5833689885672978, 0.5885469484044784, 0.5936753263428624, 0.5987360613818, 0.6038282986018134, 0.608896171849033, 0.6139619001150962, 0.6189775884285473, 0.6240304344003813, 0.6289899449299189, 0.6339276827849221, 0.6388872443449054, 0.6437722236926592, 0.648500082127108, 0.6533550735906283, 0.6581769002444072, 0.6629551274584043, 0.6677110718150854, 0.6725157719820097, 0.6771913627040815, 0.6818361232728875, 0.6864387211476848, 0.6910196866634658, 0.6955577590586921, 0.7000692913280151, 0.7045437119669038, 0.7088172965545695, 0.7132355352506475, 0.7177230753553485, 0.7220293171646082, 0.7262942396384764, 0.7304214152513088, 0.7346135709481, 0.738805669722209, 0.7428938388468194, 0.7469357939700684, 0.7509086006944321, 0.7548593166032874, 0.7586794412636411, 0.7625417224863332, 0.7663494051762039, 0.7701922390928677, 0.7738798066821779, 0.7774426839860694, 0.7810402187422184, 0.7845825176989505, 0.7881447168917401, 0.791566389358114, 0.7948019489908922, 0.798136174721285, 0.8014092622445845, 0.8047557899313311, 0.8078901463910046, 0.8108368884247903, 0.8138806114603118, 0.816861356711895, 0.8198606416129285, 0.8227053082713982, 0.8254162745875635, 0.8281529520988312, 0.8308255271129873, 0.833476655480665, 0.8360152833332231, 0.8384307135904941, 0.8408522662455159, 0.8432071764228536, 0.8455178076997532, 0.8477364647684454, 0.8499485593250856, 0.8520282232766865, 0.854044949548984, 0.8558981794023399, 0.8577993009393062, 0.8597395980692281, 0.8614854679388342, 0.8631670404443584, 0.8646837546316666, 0.8662470093258449, 0.8676994915684164, 0.8691236582692421, 0.8704739280933808, 0.8718769628017442, 0.8730647239040211, 0.8741318197289818, 0.8751943803287157, 0.8761867257953541, 0.8771677371279041, 0.8780117246128928, 0.8787089791825469, 0.8794277504140335, 0.8800736313813341, 0.8805653813586508, 0.8810763451578989, 0.881506315056845, 0.8818647591983547, 0.8821475831700787, 0.8824898292406689, 0.8826063745212578, 0.8825833625905255, 0.8825760445744845, 0.8824972360639854, 0.8823979894673364, 0.8821702322053654, 0.88190892172848, 0.8815402169396434, 0.8811048574884002, 0.8805800353601666, 0.8800130423111671, 0.8793547497108344, 0.878652779020937, 0.8778806919355063, 0.876894206702132, 0.8760009738702901, 0.8750446041394876, 0.8739962641757573, 0.8728741469978222, 0.8717037919908032, 0.8704342682629534, 0.8691829483643864, 0.8677643518708384, 0.8662826396656795, 0.8646827450604277, 0.8630815182995332, 0.8613651148670517, 0.8596379495435005, 0.8579689756031931, 0.8560906856113276, 0.8541531982513864, 0.8519995451347407, 0.8499629538401808, 0.8478702230302841, 0.8456966767456523, 0.8434579718701155, 0.8412772968784004, 0.8388958824501618, 0.8363227085239349, 0.8338477349668011, 0.8313096474945668, 0.8287381134928712, 0.8260736257026944, 0.8233692568939481, 0.8205868103073487, 0.8177487046311659, 0.8147883476463619, 0.8118492019670185, 0.8088646438024284, 0.8058098578132457, 0.8027003920430812, 0.79954738052686, 0.796330100622001, 0.7931022036932696, 0.789777898216736, 0.7864061177520452, 0.7830402441284853, 0.7795682048736832, 0.7760449726251929, 0.7724879911791191, 0.7688878409754527, 0.7652713409638454, 0.761582626742197, 0.7577944274150215, 0.7540325990331886, 0.7502277070509574, 0.7464315738787922, 0.7425368980871312, 0.7385396495690126, 0.734578883283705, 0.730578132174281, 0.726562971842264, 0.7224825752323608, 0.7183486125569968, 0.714200934086431, 0.7100187675168727, 0.7057828037952618, 0.7015373719523673, 0.6971535572356172, 0.6928576547697625, 0.6885256210522774, 0.6841777507028629, 0.679776922269384, 0.675362813372666, 0.6709022596728149, 0.6664159127290405, 0.6619273578124403, 0.6573901187736789, 0.6527808852057666, 0.6482087729121718, 0.6436144700686284, 0.6390481148276443, 0.6344070267786639, 0.6296890783096298, 0.6250248727810194, 0.6203429200927404, 0.6157890017957244, 0.6110569290688006, 0.6063187713045107, 0.6015744588038362, 0.59682402885179, 0.5919576785746851, 0.5872094043709777, 0.5823965671680612, 0.5776329802293267, 0.5728572563640434, 0.5680811667516262, 0.5632845656852296, 0.5585827014687466, 0.5537603761926972, 0.5489391690134703, 0.544109232322773, 0.5392925979767619, 0.5345020938584587, 0.5296863311414366, 0.524874790784716, 0.520063821303662, 0.5152625487156584, 0.510356730457255, 0.5055807202274594, 0.5008051181227917, 0.4961332330353552, 0.4913500337600536, 0.48655077657514195, 0.48179219385737815, 0.4770434746250786, 0.47232163526602805, 0.46759277142772315, 0.4628890862090359, 0.4581851991258678, 0.4534961631787213, 0.4488550729862145, 0.4441932038843216, 0.4394376631992705, 0.43482686715859414, 0.43022875793268545, 0.4256100209626789, 0.42104546859333675, 0.41648920905164294, 0.41195558488454936, 0.4074386320086084, 0.40303321996146496, 0.3985413402337727, 0.39393228192481283, 0.3895093139424893, 0.3851041630918189, 0.3807121449724196, 0.3763475481002545, 0.3721590663034835, 0.367818822273203, 0.3635108305439372, 0.35922869345034936, 0.3549851831771009, 0.350785144439874, 0.3466025640233535, 0.3424518969891758, 0.33828423670225494, 0.33420348705827585, 0.3300236548750413, 0.32601795548136064, 0.3220351762445229, 0.3180706867540073, 0.31413880771994623, 0.310251841188135, 0.30637195577065773, 0.30252183501920094, 0.2988243950321288, 0.2950205734761323, 0.2911984358348211, 0.2874787710287227, 0.28379380484851646, 0.28004800391762774, 0.2764449856349822, 0.2730061045804222, 0.2694465411733121, 0.2659259968028521, 0.2623117713703903, 0.25888494169588316, 0.2554744924410585, 0.25211155624013015, 0.2487800111198248, 0.24561294519730692, 0.24232962453995238, 0.2390850783585288, 0.23588306887323215, 0.23272068255651218, 0.2294692242164357, 0.22640104185468424, 0.2234821933121708, 0.2204623070472722, 0.21748164419647395, 0.21446242884619646, 0.21156879404334453, 0.208633584125359, 0.2058172865834007, 0.2030310786708209, 0.20031649105345095, 0.19758763389854256, 0.19501743068805547, 0.19234196128782832, 0.18970819530236166, 0.18708466180727087, 0.18453544887217524, 0.18205420740222739, 0.17957553891222544, 0.177135125337031, 0.17458776912224608, 0.1722402426668857, 0.16999435094249965, 0.1676948960470781, 0.16542909301888797, 0.16324565866569443, 0.16104053227012735, 0.15873084243187183, 0.1566147154699171, 0.1545254791237056, 0.15256553363566613, 0.15051891358806016, 0.14838626786161158, 0.1464224921119465, 0.1444850320271593, 0.14265375595204388, 0.14076018794323594, 0.13891070057475105, 0.13707885546181953, 0.13527863362415365, 0.13345246746237777, 0.13172102161920696, 0.13001023575677545, 0.12833302294793555, 0.12677365181097772, 0.12513719249317096, 0.12353182101794138, 0.12194234572558549, 0.12039818477290196, 0.11889997184015404, 0.11740806754515047, 0.11594348915152623, 0.11442199159115134, 0.11302033529356088, 0.11157192724109372, 0.11021963143840452, 0.10888394504090475, 0.10760602059800352, 0.10629959681384257, 0.10496621872546512, 0.1037052562993123, 0.1024610924298775, 0.10137633257940089, 0.10014794949381547, 0.09896069971550978, 0.09777868217571618, 0.09661997452717427, 0.09544669521782297, 0.09433562033873195, 0.09319551940779335, 0.09212525952354354, 0.09106879200505284, 0.09002991526689917, 0.08899967409489723, 0.08795609901210075, 0.08695509890199885, 0.08596499235653952, 0.08498966864963034, 0.08402025012297952, 0.08304704830777951, 0.08210005252551565, 0.08116207287574355, 0.08020640060086912, 0.07928904059646577, 0.07837228483721718, 0.07746900612388898, 0.07657181874363247, 0.0757640365740038, 0.07486796335690224, 0.07387416726714204, 0.0730111486722921, 0.0721504159937663, 0.07141211002180443, 0.0705407725083077, 0.0695582384102471, 0.06871881991461325, 0.06787944025636466, 0.06704824619428523, 0.06620786839037873, 0.06538819331703669, 0.06454571758695948, 0.06370427424355965, 0.06283289262939139, 0.061996074877968606, 0.06130792627082464, 0.060447898998407065, 0.05959393239059564, 0.0585939177022763, 0.05776688741485846, 0.057006767449366745, 0.05615781867489054, 0.055306770426475825, 0.0544306500421254, 0.05357653168099052, 0.052747953208151545, 0.05187966723665039, 0.051007479908638985, 0.050043299600563314, 0.049172764947655156, 0.048369231135347864, 0.04746843907993388, 0.04656206380045717, 0.045724945616775904, 0.0447964484155324, 0.043743069067852726, 0.04282354735903931, 0.04189252001386786, 0.04105804924008087, 0.040090810871156096, 0.039045198864956276, 0.03807624995623828, 0.03709655960312593, 0.036051087805027346, 0.03505664322450193, 0.034186577268397286, 0.03314686024386448, 0.03210149986618094, 0.030933581854784724, 0.029889090519758455, 0.028801599737807854, 0.027732032186124984, 0.026646949965932903, 0.025658781191840417, 0.024529812087267275, 0.023329677004935823, 0.022191959844959003, 0.02104147277606812, 0.019876193545243462, 0.01870045744396827, 0.017452816670866206, 0.016258828393329778