0.033352100730662256, 0.03315958302505844, 0.03276083698043289, 0.03237926829980587, 0.03205056674456807, 0.03174735768052573, 0.031237863877661507, 0.031003507430369517, 0.031019118049521125, 0.03075845572688017, 0.03051346127874322, 0.030175934674147944, 0.029969282194573264, 0.029625390117754145, 0.029444228820064842, 0.02925847627326429, 0.029078760687503532, 0.028885568627242467, 0.02881643798035231, 0.028605940916290214, 0.02840294932219243, 0.028162285035193062, 0.02797939328807161, 0.02794554671800973, 0.027753914468960614, 0.027575749789732058, 0.027333254633912847, 0.027189685391358787, 0.02690577897136702, 0.026795857969217747, 0.026685581230158753, 0.026762673593064893, 0.02663254917047356, 0.02649741214717369, 0.026397877895481328, 0.026310903227584222, 0.026159400460159046, 0.026107229617668953, 0.026140375191776418, 0.026095693794335097, 0.026064964045261554, 0.02603533991848858, 0.026034162556937045, 0.025914678045359598, 0.025956991018138132, 0.02600564610666743, 0.026167866839842072, 0.02621951360565818, 0.026274074984352795, 0.02635894764334782, 0.026459048218234797, 0.026577807361165606, 0.026708617934579064, 0.026685337207556014, 0.02686999133310267, 0.027061553611051056, 0.02742211855084457, 0.027611735359795827, 0.02784396222660491, 0.028070836878633203, 0.028318803117342157, 0.02858758507417022, 0.028876964427368257, 0.029013405900784488, 0.02936545145892543, 0.029728007354367453, 0.030147380672140133, 0.03052921596624533, 0.03088602949907504, 0.031307201054616776, 0.03174394815714163, 0.032209974445224346, 0.03267874902793674, 0.033092317903971685, 0.03360823434196894, 0.03413965969921, 0.034806421162469764, 0.035356845965673324, 0.035925819271453406, 0.03652678330212203, 0.03715197436639636, 0.03771141697780422, 0.03839621726645389, 0.03918994087505535, 0.03990215618447769, 0.040639829502848376, 0.04143815574307664, 0.04222195423711217, 0.042865990940273546, 0.043724970030708625, 0.044601227106028714, 0.04567571439466993, 0.04656716555935458, 0.04728045206937197, 0.048258736125181605, 0.04925473430136017, 0.050459131399050686, 0.05147026434162908, 0.052519571037295494, 0.05359278223838172, 0.05469696910306823, 0.055802747055933785, 0.0569711519878706, 0.058016784394451106, 0.05926047868792897, 0.060523784955393616, 0.06174051282997052, 0.06305513185695547, 0.06440815927046041, 0.06576005093873534, 0.06713483945154818, 0.06876463243054862, 0.07015871604947206, 0.07144991364693405, 0.07293738978319747, 0.07445301159629704, 0.0759488074222696, 0.07752734609738418, 0.07926345224611256, 0.08087772727690214, 0.08252627806634505, 0.08418274597303216, 0.08590114969513095, 0.08749005944530973, 0.08929056486031495, 0.09111259896932034, 0.09298934779224129, 0.094853482063503, 0.09669241340265514, 0.09861581394195391, 0.10056330297047686, 0.10268006685139607, 0.10465948882036062, 0.10650596797261705, 0.10857375388130909, 0.11066472404084482, 0.11288873684214464, 0.11501425498160278, 0.1170873653839826, 0.11928507097011616, 0.12150817941943189, 0.1239495343781111, 0.12619965881152415, 0.12846717448336814, 0.13079152688325865, 0.1331485629716374, 0.13536061359658755, 0.1378021730451406, 0.14031167696261715, 0.14278730982319396, 0.14528650352391909, 0.14771614804632127, 0.15027418036677395, 0.15281509434546456, 0.15541461136879098, 0.15803146437031654, 0.1607080541131554, 0.16335615169090556, 0.16605119258782997, 0.16873850364362517, 0.17144833797615006, 0.17433120785274975, 0.17706583398669445, 0.17983022814418498, 0.18262272607919702, 0.18544179615867926, 0.18809981439587276, 0.19099144351607014, 0.19384710955636095, 0.1967695905992959, 0.19970219929628696, 0.20284774959420698, 0.2057765488553385, 0.20861249104069368, 0.21159989278399102, 0.21460071541750253, 0.2176563541121736, 0.22067767917477688, 0.22378105721387725, 0.2268223432730827, 0.22988050385004452, 0.23286435027273467, 0.23596382346699135, 0.2389109423358073, 0.24204669462174086, 0.24518084731934287, 0.24841057351933477, 0.2515317274585634, 0.2545816470978579, 0.2577237404717908, 0.2608664000798686, 0.26398403060407555, 0.26713122176418413, 0.2703416803295228, 0.27347884722125004, 0.27661852708467166, 0.27972787069300536, 0.2828743797301016, 0.28623119376350203, 0.289347178784568, 0.29247231738939133, 0.29543410842033924, 0.2985922165040483, 0.3018044088409456, 0.3049404724200449, 0.3080720040129051, 0.31128141146984933, 0.31439015393060415, 0.31748951130594094, 0.32059147802040144, 0.32366764235729406, 0.3267575573645899, 0.3298371125324812, 0.3327318328041732, 0.3358093156611493, 0.3390368872722662, 0.3420462921389805, 0.3450428118532676, 0.34784860525704514, 0.3508379534093013, 0.35384262099277514, 0.35677416431895476, 0.3596821113794628, 0.36270422856034024, 0.36554659718539984, 0.36815373769171617, 0.37098830342410016, 0.37379062355872605, 0.37666056109444507, 0.3793866682647306, 0.3821669645142108, 0.38482991605141703, 0.3874695759624542, 0.39007158983031404, 0.39266183161119506, 0.39514348835130236, 0.39768604197593144, 0.4001934292994378, 0.40257529669881664, 0.4050223022517294, 0.40749181570428916, 0.40984745277814294, 0.4121651859047167, 0.4143513273631748, 0.41660324955808425, 0.4190028455691658, 0.4211405845201074, 0.42324424742610417, 0.42533464405177146, 0.42736242776009975, 0.4293527162959319, 0.43130396114337594, 0.43321472025724694, 0.43490064779907595, 0.4367496289566776, 0.43862113309813394, 0.4403516831030289, 0.44203265656519436, 0.44363469506833086, 0.4452187644896134, 0.4467405746398069, 0.44822034162440616, 0.4496463753646185, 0.45096705419137606, 0.45229132234604114, 0.4536704841534227, 0.4548656631501106, 0.45600974047399917, 0.4571788017414664, 0.45820808901998467, 0.4590305510660253, 0.459979290386191, 0.4608669739398575, 0.46180926475432804, 0.4625604224796358, 0.4632121683117639, 0.4638591031954153, 0.46444717980211386, 0.4649984166710401, 0.4654645964995356, 0.46592968439207644, 0.4662702380015821, 0.46655408967184514, 0.4665298896151526, 0.4667293187748929, 0.46691329124678693, 0.4669602810806648, 0.46693981621451747, 0.46680751796655984, 0.46665945346989407, 0.466510309228645, 0.4662174358250271, 0.46586118364068146, 0.46541907163993357, 0.46493887428774655, 0.46438436448955006, 0.46377618426064127, 0.4631030840991896, 0.46252579402510297, 0.4617031450102073, 0.46062287280912184, 0.4597139460764086, 0.4587361934695209, 0.45769682073603196, 0.4565828861424214, 0.4553769479387701, 0.4541341655642501, 0.4528246686058404, 0.4515261859219143, 0.45007549138901265, 0.44855144027370075, 0.4469812611807481, 0.44534973364552977, 0.4437918146236583, 0.44202091340079513, 0.4401196118089291, 0.43825088031003634, 0.43632288528293717, 0.43424257732969396, 0.4322080582306218, 0.43008692599122855, 0.4279279464770749, 0.425705476509356, 0.42353296216528197, 0.4211724802156067, 0.4186390993310839, 0.416185451428094, 0.413671168763556, 0.41122259787754056, 0.4085745679940166, 0.4059307670432733, 0.4031751297210497, 0.4003722860676045, 0.3973646526501936, 0.3944866203367783, 0.3917479842669943, 0.3887336598540011, 0.3856765532153963, 0.3825635097539574, 0.37942167844972624, 0.3761941159616747, 0.37296978427698046, 0.3696996398667097, 0.36629131822195127, 0.3629435869162817, 0.35973979795049615, 0.356271935598738, 0.35276934536539306, 0.34909070620876775, 0.34553649365944594, 0.3420361867874995, 0.33838644313977434, 0.33470259614457964, 0.33094032585242544, 0.32719590574410956, 0.32342335942561284, 0.3196102045970528, 0.31576521072169095, 0.3119087693725659, 0.3080010562793817, 0.30417836731108333, 0.3002027563865982, 0.29620813335605567, 0.29233591032320766, 0.2882859805416021, 0.28420011717582055, 0.28013231539552813, 0.27605182071494777, 0.27194904283771065, 0.2678446728184772, 0.2638785777849786, 0.2597304617620185, 0.25557945403332216, 0.2513384423037614, 0.24719156708007786, 0.24312944829863492, 0.2389550132305469, 0.234779359479829, 0.2305032784860963, 0.226338881944045, 0.22241950769143973, 0.21821418107272508, 0.21402058404589966, 0.20974835564716193, 0.2055884384062579, 0.20141527214540808, 0.19727075028588884, 0.1931331107192262, 0.18921870798022092, 0.1850714244564115, 0.18073828204435088, 0.17666267032938981, 0.17259767720798283, 0.1688083281789996, 0.16473654781922123, 0.16072106719981052, 0.15670685265736317, 0.15272409997705316, 0.14866990107828643, 0.14476276514514735, 0.1408653805106979, 0.1370131099420759, 0.13318824241222468, 0.12948532140609983, 0.125707813451324, 0.12190306879207799, 0.11820834057759168, 0.11454849970463968, 0.11110794704765739, 0.10749894589858652, 0.10381409910287968, 0.10031959122700533, 0.0969958811313027, 0.0935711569657268, 0.09019856751411102, 0.086894423882377, 0.08362498150724752, 0.08027488704500498, 0.0771313538272011, 0.07403550311224609, 0.07120740666592562, 0.06818452399150036, 0.06523951318339878, 0.06234490158949208, 0.059515878403447214, 0.05672359574508602, 0.05402968677664859, 0.051252611302601135, 0.048707068791836075, 0.04621913408771232, 0.043909560785748376, 0.04152761055997942, 0.03907426181518706, 0.03685062461683085, 0.03469039950495452, 0.03260192290670676, 0.030573335387379653, 0.028726281925373465, 0.026823343186904415, 0.02499883884901582, 0.023163322709690844, 0.02150843423046159, 0.020040746629846874, 0.01852257003013561, 0.017087972746688766, 0.015801381389326734, 0.014526521162898695, 0.0132914761046981, 0.01219848131759774, 0.0111905113453215, 0.010126696472238267, 0.009307844191116665, 0.008740707807070917, 0.008058214212546846, 0.007466839069977692, 0.006815628030028101, 0.00642545361725504, 0.0060697684102969714, 0.0058522884219630155, 0.005717260230205139, 0.005701477479645704, 0.0057311739424544435, 0.005794729666649139, 0.006008991901740589, 0.006310125544330992, 0.006731308931071959, 0.007205221347960023, 0.00779956076997744, 0.008453358372993353, 0.009201195136079312, 0.010104191555872005, 0.011032728595581028, 0.01211680294928365, 0.013233084789007794, 0.014449509269135463, 0.015604712667513718, 0.01703929548688539, 0.018684749477870292, 0.020282327534075384, 0.021976879974498507, 0.023800013651216027, 0.025682993194222636, 0.0276826116824158, 0.029757235341457376, 0.03192902329301497, 0.03394681991445727, 0.03634245532206981, 0.03892831643479164, 0.041473703664143755, 0.04410890511437535, 0.04681799241568363, 0.04963515071234407, 0.05260237754505997, 0.05559000373821125, 0.05867013335018151, 0.06166238086141169, 0.06494845841637516, 0.0685077761143187, 0.07193153830138133, 0.07544818140424685, 0.07903093635582126, 0.08273336882792086, 0.08655618972579283, 0.09043033877939259, 0.09439298781815536, 0.09827612899491246, 0.10243373243389947, 0.1065935127366555, 0.11091283190891355, 0.11530455140540047, 0.12001651930152073, 0.12452348654032246, 0.1288804623087699, 0.13359073740697008, 0.1383715416849859, 0.1432776292042391, 0.14819295138912084, 0.15331354606686323, 0.15835879333479858, 0.16348357670295138, 0.16870847061580035, 0.17398386169706756, 0.17923825336492882, 0.18467457918222155, 0.1901771376225917, 0.1956679151582306, 0.20130976331070052, 0.2069848457923818, 0.2127473332898489, 0.21856629903475322, 0.22442524449651496, 0.2303577430965736, 0.23636019690048013, 0.24239783629298703, 0.24848890673493687, 0.2547929753240541, 0.26096766202815913, 0.26701228736368504, 0.27332720956364076, 0.279686098226275, 0.28624556423209657, 0.2926702775696671, 0.299110063192032, 0.3056377772564731, 0.312209498887656, 0.31873674495480286, 0.3254020795334847, 0.33225857323510916, 0.3389706885104341, 0.3457233862932095, 0.3523344790081225, 0.3591839884556315, 0.3660346300445762, 0.3729335248837174, 0.3798533244802345, 0.3869891870768964, 0.3939238713907157, 0.40069224090944894, 0.4077081930169725, 0.41473769569760444, 0.4219052038130201, 0.42894360644296375, 0.43598718420496024, 0.44306121059432135, 0.45014851635147896, 0.4571092157411888, 0.4642350688517911, 0.47134820186689036, 0.4784752819265096, 0.48560036599075507, 0.4928735929698461, 0.4999732300008763, 0.5069322885042377, 0.5140557302922183, 0.521170525942425, 0.5284523063655889, 0.5355245555048608, 0.5425885683877864, 0.5496554169435259, 0.5567150469332308, 0.5636014218045831, 0.5706605160413141, 0.5776869503005038, 0.5847004823630342, 0.5916889072524633, 0.5986321419717491, 0.6055702460731697, 0.6126143064453519, 0.6194767017030504, 0.6263159296264458, 0.6330560348654989, 0.6398520022127295, 0.6465150146117951, 0.6532554014520493, 0.6599541438899029, 0.6668065524655694, 0.673395538718028, 0.6797561213718841, 0.6863023571801923, 0.6928003791851077, 0.6994454466212444, 0.705820434920016, 0.7120309728568819, 0.7183409136262991, 0.7245999201580215, 0.730716959168548, 0.7368820375797631, 0.7429909004297574, 0.7490362780192817, 0.7550214310310452, 0.7609007677207028, 0.7667691534833675, 0.7725694514991907, 0.7783080253896507, 0.7840704217427769, 0.7896648803134995, 0.7951970345733057, 0.8005337964344261, 0.8059536569549572, 0.8115371545958798, 0.8167788063909266, 0.8219591895114083, 0.8268865151654473, 0.8319613785230094, 0.8371182583685716, 0.8420154226223175, 0.8468422667217704, 0.8515071184999172, 0.856199476667377, 0.8607761703363648, 0.8653115727590683, 0.8697632011097557, 0.8740343094432355, 0.8783292515988209, 0.8826492278474887, 0.8867487419081396, 0.8907646410336314, 0.8946896464644111, 0.8985365859882148, 0.9022617552543252, 0.9059395393316336, 0.9095274872115465, 0.9129481666947037, 0.916365037266203, 0.9197668470670107, 0.9229831411165608, 0.9261089802792588, 0.9291823243276219, 0.9321207057783767, 0.9348214806005217, 0.9375978885843477, 0.9402745432757326, 0.9428647942250099, 0.9453417506437117, 0.9476952535734542, 0.9499800867625389, 0.9521659987991827, 0.9544555449659139, 0.9564188573560791, 0.9581636814703042, 0.9599684493099641, 0.9616761916608366, 0.9632322382089421, 0.9647525710831856, 0.9661822164534838, 0.9675010863049164, 0.9687209271519484, 0.9698227246559068, 0.9708476752102237, 0.9717635910111695, 0.9725913253470743, 0.9733198383484698, 0.9739431194726064, 0.9744752113801816, 0.9748896291954985, 0.9752277462008576, 0.975467179050385, 0.9757497335851862, 0.9757755376053691, 0.9756928792762818, 0.9755420699563815, 0.9752998106127143, 0.974985122525342, 0.9745568956524765, 0.9739479543494989, 0.9733493217944404, 0.972654652685473, 0.9718261919345168, 0.9709466267711284, 0.9700385757280752, 0.9689597344550858, 0.9677908567133803, 0.9665612858314345, 0.96521006600803, 0.9638521560022845, 0.9623172091666709, 0.9607005349513132, 0.9588157285814758, 0.9570586998229673, 0.9552735185594241, 0.9533253189599551, 0.9512916263662861, 0.9493050759912545, 0.9470867618475658, 0.9447451923175277, 0.9423827208926552, 0.9399424807942913, 0.9374796451718022, 0.934878813319549, 0.9320832461038633, 0.9293527050231472, 0.9265433556446725, 0.9236438699837757, 0.9206830348509565, 0.9175668467380248, 0.9144675030008533, 0.9112915705341654, 0.9080379334228847, 0.904715403223344, 0.9013477535260433, 0.8978821916521802, 0.8943508328470609, 0.890690929076719, 0.8870404451592889, 0.8833826283816951, 0.879596470202932, 0.875752100099795, 0.8717961853856618, 0.8678460205229476, 0.8639024993082494, 0.8598307396526471, 0.8557082749333931, 0.8514944008672035, 0.8472789210455578, 0.8431997622684416, 0.8388623833635708, 0.8344883951940091, 0.8300873188459352, 0.8256387334598477, 0.8211799293899534, 0.8166565707718041, 0.8120994497823918, 0.8073451661163984, 0.8027423744278227, 0.7980466766913373, 0.7933693335415315, 0.7886515629960323, 0.7839277896797125, 0.7791319576587992, 0.7743619425815619, 0.7694966326040923, 0.7646060960499192, 0.7597493447800246, 0.7548047339819316, 0.7496492297631777, 0.7446932634811644, 0.7397099152787626, 0.7349039411060752, 0.7298475941432802, 0.7245832432317844, 0.7195346597242215, 0.7144670459705105, 0.7094790036573562, 0.7043678893178313, 0.6993427694372214, 0.6942068501142414, 0.6890714332672584, 0.6839112925785796, 0.6787816018748822, 0.6734953176601385, 0.668387896875578, 0.6632742802687865, 0.6583782768719416, 0.653230980810668, 0.6478267233511006, 0.6427391397322207, 0.6376496020084086, 0.632583156762148, 0.6274944195304993, 0.6225406406623056, 0.6174506710025804, 0.6123782051536757, 0.6071602061335872, 0.6021455947418042, 0.5972699418805637, 0.5922622933742661, 0.5872765077117723, 0.582258842326598, 0.5773262094640595, 0.5725401437496953, 0.5676357079789971, 0.5627622444222197, 0.5578204507744883, 0.5530222759818959, 0.5482696745015301, 0.5435229396700483, 0.5388060674231772, 0.5341168709025811, 0.5294631845124484, 0.5247009380671451, 0.5201315200010347, 0.5155888552648662, 0.5112066690742165, 0.5067069845538433, 0.5021766166201063, 0.49776635077435605, 0.4933932590898743, 0.48909704019420785, 0.4847968750559311, 0.48059394669168565, 0.4763728727715085, 0.47219885950908985, 0.4679340631254668, 0.4638722953144084, 0.4600175317792866, 0.45601618978607494, 0.45206700610245226, 0.44804784480986365, 0.4442180690506122, 0.4405778789284633, 0.43682109222784654, 0.432846621907252, 0.4292344941981428, 0.4256617998202149, 0.422294345868199, 0.4187858106835025, 0.4152062754900259, 0.4118221637320816, 0.4084855758395312, 0.4052137403826148, 0.40197357065081585, 0.39875287605532167, 0.39562062223120287, 0.39253945550468816, 0.3895326449324743, 0.3865530947692534, 0.3835862447838441, 0.38072118055865156, 0.3779088237433587, 0.3751625786699046, 0.3724556100916102, 0.369822759229668, 0.36722327737134586, 0.3646801025449845, 0.3622798720866432, 0.3598381815543471, 0.3574124932980279, 0.3550975655203152, 0.3528394889463689, 0.3507438742112654, 0.3485850979189845, 0.3464784913603269, 0.3444433600247568, 0.3424672453559288, 0.3404047765054166, 0.3385623478273252, 0.33673303619129397, 0.3349923989721465, 0.33329903707579606, 0.3318140373409208, 0.33019649062889955, 0.3285819856485634, 0.3270855278066815, 0.3256415890574624, 0.3241918944144074, 0.32285884415934246, 0.32166029420592385, 0.3204118862412195, 0.3192160388221545, 0.31803016833734726, 0.3169422117772421, 0.31598228942088746, 0.31497929771350175, 0.3140277036667977, 0.3130172326238267, 0.3121789466389336, 0.31128001603197086, 0.3105388218824248, 0.3098337162291804, 0.3093547268636778, 0.3086995015288718, 0.3081051798761943, 0.30754309102455585, 0.3070271255674674, 0.3065013645173912, 0.30608059358622974, 0.30573437043000234, 0.3053868734602416, 0.30507913349808863, 0.30459180809379877, 0.3043881358416876, 0.30438554650632577, 0.30420934994960214, 0.3040689578763722, 0.30387988931520865, 0.30381865076849607, 0.3038690161562921, 0.30385317465712947, 0.3038694554524216, 0.30396168259766465, 0.30403317545973113, 0.30409105690231353, 0.30422947899511577, 0.30439392292062184, 0.30461875547228817, 0.30482793502902567, 0.30490817843566514, 0.3051859625262353, 0.30547786477354116, 0.3059220289348063, 0.3062248603000255, 0.30658478857181687, 0.3069253647706773, 0.307287049293397, 0.3076394051913066, 0.30804240995454407, 0.3083802333433571, 0.3088224495316655, 0.309273068392259, 0.3096963708549316, 0.3101669942028393, 0.31074540154487695, 0.311212855093005, 0.311690499648749, 0.3119940919736147, 0.312511572463632, 0.3129932636461598, 0.3135077794256858, 0.3140173463874203, 0.3145319123119566, 0.31503115919776425, 0.31552971374196925, 0.3160205755650191, 0.3165072691244018, 0.3170793046895596, 0.3175450673182749, 0.31791723596610616, 0.31839249516958307, 0.3188594846592695, 0.31927278859978153, 0.319727463286932, 0.3203303145854398, 0.32073974509454717, 0.3211452649551579, 0.32149382523494774, 0.3218930806384618, 0.322210169735062, 0.32259430543742573, 0.32296100994521637, 0.32342871993552846, 0.3237444406123237, 0.3239230074028662, 0.32422926034050387, 0.3245138091253629, 0.3248181635593375, 0.3250533004121276, 0.32518479177121384, 0.3253894617446906, 0.32556793212664914, 0.32590001424628795, 0.3260033474547658, 0.32609364984938705, 0.3261624932890321, 0.3262122095260317, 0.32626711773533684, 0.3262713552824946, 0.3261161045520423, 0.32609368400254063, 0.3260397104573195, 0.32606343273726457, 0.3259327825620047, 0.3256195457019473, 0.3254573550165083, 0.32525936485942414, 0.32518021271918457, 0.3248926454695546, 0.3244990064135169, 0.32416903159147914, 0.32380695823461414, 0.32348972462667674, 0.3230533666666049, 0.3225022050542064, 0.3220198381358679, 0.3215031048065229, 0.32088470280733233, 0.3203081003076266, 0.3196583360193194, 0.3190111206140341, 0.31832522616416986, 0.31767845611404355, 0.3169076162654206, 0.3161365019915344, 0.3152967194063344, 0.3144261235577478, 0.31346335738533737, 0.3125378236338894, 0.31160280272771745, 0.3106039426421665, 0.3095718593424127, 0.30847446597343314, 0.3073800630621626, 0.3063984121165047, 0.30521578446480696, 0.30400712397612717, 0.3025724730927406, 0.3013343404077192, 0.30004705847816887, 0.29873217942884567, 0.2973792897997384, 0.2960664126519272, 0.29463058518547053, 0.2932343712753411, 0.2917277039624165, 0.29019425781310637, 0.2885212640199191, 0.2869473592487498, 0.285368328931776, 0.2837234831894617, 0.2820477037981096, 0.28037353960805234, 0.27863316122513654, 0.2768360804024457, 0.2750439229804819, 0.2733736314834286, 0.27150481698748863, 0.26961640630347133, 0.26749256647230835, 0.2655901362086942, 0.2636382536942187, 0.2616724768833826, 0.2596751453076899, 0.25778246409166544, 0.25570896373780816, 0.25349970376182807, 0.25140047553107386, 0.24927468283894258, 0.24719081982489147, 0.24500653129801137, 0.2429373494295803, 0.24069690946953567, 0.23844506801315038, 0.23608163570140975, 0.23381774566137567, 0.23138444334777522, 0.22910316560535837, 0.22679605241290535, 0.22463186331878301, 0.2222572670393879, 0.21990013597895883, 0.21749912506058466, 0.21508856922812353, 0.21250472373591447, 0.21009584368415207, 0.20765239809060734, 0.205210057076281, 0.20275126938087748, 0.20027750265518396, 0.19779012384728356, 0.1955023054452676, 0.19296465846116823, 0.19042888488320153, 0.18779802211471203, 0.18527638765384793, 0.18275614756248923, 0.18022419168191228, 0.17768867379123954, 0.17506664284948475, 0.17253614354824753, 0.17014991681115513, 0.167588336085241, 0.16503101791494443, 0.16226275156879913, 0.15974093523814087, 0.15744563155911506, 0.1548803387630441, 0.15232393598554128, 0.14973760062976418, 0.14720307221949555, 0.14461049469833642, 0.14209672228214892, 0.1395861762405323, 0.1371664479016411, 0.13465408130971337, 0.13210106073859998, 0.12961673612515096, 0.1271405373864902, 0.12478547549183394, 0.1223132412488516, 0.11970324254905755, 0.11728289783883658, 0.11486979259978153, 0.11236876671015776, 0.10998571518578042, 0.10763986056384126, 0.10526466120233205, 0.10289965834904176, 0.10061344966328618, 0.0982637478251145, 0.0960404345699031, 0.09371176302649939, 0.0914071873252876, 0.08899777101751842, 0.08675618458087553, 0.084677929181361, 0.08244975962611387, 0.0802470672091308, 0.07813357168143396, 0.07597234352872238, 0.07381975538552966, 0.07171603765715531, 0.06963781511934843, 0.06765540144383811, 0.06561837311231979, 0.06364863372446383, 0.0616636115449195, 0.05970835085451378, 0.05780140657749413, 0.05590125005084869, 0.05384721888860617, 0.05202796801742581, 0.050226717326038506, 0.04849282669382533, 0.04672499794790369, 0.045029358242476954, 0.04330405149260686, 0.04160654787731935, 0.039972267910748316, 0.03832623861011276, 0.036931891699492535, 0.03531803197486639, 0.03374654457072232, 0.03224770937513858, 0.030751685460529293, 0.029214833392492152, 0.02780643224550716, 0.026430382040890356, 0.025224388015522084, 0.02389462822896421, 0.022504649448452967, 0.021264863374697036, 0.020056541217236254, 0.018879622463760473, 0.0177340989127238, 0.01670669094663419, 0.015613140520587042, 0.014556058704177434, 0.013583031596313563, 0.012591186198914993, 0.01170772859288465, 0.010781781026315442, 0.009896304314533184, 0.009185111348885076, 0.008360597876634002, 0.007366390378924296, 0.006658214541628433, 0.005980252476836179, 0.005426114345861595, 0.004798298311957709, 0.004188102663366547, 0.00363617477331345, 0.0031194870437820706, 0.002724689279682647, 0.002267446883881631, 0.0019594484518712313, 0.0015679184134520662, 0.0012213891566235262, 0.0009474144350921169, 0.0006833980482309744, 0.0005171042298494653, 0.0003314055049207195, 0.0001899384445215161, 0.00012681687718484513, 6.592243797638542e-05, 0.0, 3.0453276710515234e-05, 9.94912827233911e-05, 9.443263771351187e-05, 0.00025398775012714037, 0.0005831573117113403, 0.0007891691180199544, 0.00103600597967422, 0.0012269075937638557, 0.0015663212327897413, 0.0019368427117670316, 0.0023458400695888573, 0.0027900139354254294, 0.003327635642921734, 0.00383625743426064, 0.004362143932705226, 0.004952980503226992, 0.005582108718882009, 0.0061982772674701965, 0.006910829237616313, 0.007877439057722159, 0.008634378718582587, 0.00944027387190213, 0.010120400230494143, 0.01104223237909693, 0.012025402524777075, 0.013015792699285742, 0.01404422470250074, 0.0150627364689913, 0.016173912953101666, 0.017317757438227176, 0.018501633027001207, 0.01972221729665764, 0.021169376871948604, 0.022440708023724557, 0.02373808341162912, 0.02510807054372917, 0.026523021967118778, 0.027847340888546925, 0.029367109422468948, 0.031057148416746984, 0.0326313260210989, 0.03424964489239243, 0.03581519244529118, 0.037532267714860325, 0.03941174635654552, 0.04118778107957928, 0.043008814349437964, 0.044867760090525316, 0.04677770384719552, 0.04874341288874176, 0.05073722726901434, 0.05276441387687734, 0.054845119408471456, 0.05696768303707954, 0.05896501910680961, 0.06119203596961707, 0.06346729744773613, 0.06575797794387588, 0.06808422986630236, 0.07058180864783384, 0.07296479167209687, 0.07540299275384153, 0.07787548765729728, 0.0803932839365893, 0.08271839550741443, 0.08535567501731813, 0.08814908497455397, 0.09083403120376497, 0.09356004792767487, 0.09623752043437836, 0.09905785047370062, 0.10202410277621742, 0.10490506452328913, 0.10783061284403987, 0.11064645012037072, 0.11368009686479882, 0.11691609816702797, 0.1200005359752974, 0.1231317822918764, 0.12634141850437025, 0.12956070189821067, 0.13266022511545672, 0.13599435258331252, 0.13936508684019727, 0.14278931464797423, 0.14623362514250726, 0.1497625742611735, 0.1532809897112699, 0.1568423658422249, 0.16030535934626747, 0.16397027163514485, 0.16785937624507719, 0.17157091145352488, 0.17532976674602965, 0.1789489615349164, 0.18282376363942276, 0.18673332869237158, 0.19067857115638906, 0.1946602696972632, 0.1987208171127279, 0.20277200643371315, 0.20688611208151333, 0.2110153627390295, 0.21518631291117227, 0.21938909221631475, 0.22364393307824612, 0.22797771463271013, 0.23230832466884913, 0.23668111868536407, 0.24119509475208498, 0.24563811121665466, 0.25001180374999854, 0.2545606843086384, 0.2591469286007876, 0.2637800575267467, 0.26843945765396104, 0.2731716821673353, 0.27790138399106656, 0.2826700676590475, 0.2874450758131815, 0.2922941525389454, 0.2972687224725194, 0.3021774016493181, 0.30712625343581007, 0.3120308219141836, 0.3170677019524826, 0.322150179654514, 0.32725083207428596, 0.3323846976083499, 0.3375225977696313, 0.34272567424671085, 0.34784706793495285, 0.3531256184771709, 0.3584282884710783, 0.36390667783879455, 0.3692404663338588, 0.37439339967397245, 0.37982195636898114, 0.38527085990953397, 0.39096570587742263, 0.3964292697092976, 0.4017319694618135, 0.40728878591032797, 0.4128667361337882, 0.4185912923236362, 0.42419633140225693, 0.4296629877225266, 0.4353451659108362, 0.44104436547777565, 0.44681545732795136, 0.45254252793366095, 0.45843460950116044, 0.4641839423306494, 0.46996078009751774, 0.4757472651644022, 0.4815758290658613, 0.4873167174970199, 0.49320064808716824, 0.4990971901959461, 0.5051439818942492, 0.5110469822745692, 0.5169464377717236, 0.5228884391016714, 0.5288448006439804, 0.5346119092777171, 0.5406185675852354, 0.5467623814747343, 0.5527501936495613, 0.5587454963989524, 0.5646059975469031, 0.5706310554962728, 0.5768580580358055, 0.5828501731740886, 0.5888503409792911, 0.5947989428754811, 0.600817123036207, 0.6066422434826362, 0.6126827940929964, 0.6187098465066032, 0.6248715079003893, 0.6308539661830683, 0.6367837681472209, 0.6427620343765393, 0.6487305360169693, 0.6545920700298682, 0.6605505172509808, 0.6665455877309612, 0.6724609913036141, 0.6783609127349788, 0.6841192279924461, 0.6900012288638098, 0.6960601034531999, 0.7018657097116848, 0.707657039258433, 0.7132427029819769, 0.7190236022625406, 0.7249986465602067, 0.7306897028714374, 0.7363621654979912, 0.7417601048429315, 0.7474206783159132, 0.7531703013254634, 0.7587359593971128, 0.7642694224611936, 0.7697854678074174, 0.7752486815016458, 0.7805066068559228, 0.7859196652927681, 0.7912852381773967, 0.7966386287499012, 0.8019045717645641, 0.8071277341216377, 0.8123005737715854, 0.817426096939646, 0.8225836848956569, 0.8276017249514013, 0.8324585697047098, 0.837398322058594, 0.8422826770774748, 0.8471174025051692, 0.8518881162395275, 0.8565791441871259, 0.861237373200813, 0.8658352811857706, 0.8704105932909504, 0.8748805306594862, 0.879244805526735, 0.8835977478934488, 0.8878849619823632, 0.8922693127669945, 0.8964017143269141, 0.9003047015668559, 0.9043378319783515, 0.9082977521218012, 0.9123893081493195, 0.9161748951511426, 0.9198839435332603, 0.9235413637411429, 0.9271297498915161, 0.9305700964830517, 0.9340244370943356, 0.9374416997606138, 0.9407321789073515, 0.9439443064022673, 0.946887427540272, 0.949963172690923, 0.9531133857704018, 0.955983540742549, 0.9587714093101734, 0.9614341381282091, 0.9640594227576972, 0.9665455384863207, 0.9690011068999759, 0.9713647786371958, 0.9737680059154026, 0.9759306601238561, 0.9779310970239754, 0.9799318248716019, 0.981708858781591, 0.9835415934887345, 0.9852738675949013, 0.9869800995674927, 0.9885037292525991, 0.9900030729763367, 0.9913276158012582, 0.9925605616024634, 0.9936657049899597, 0.9947173285867659, 0.9957981367381662, 0.996641483018671, 0.997395074390938, 0.9978360431633425, 0.9984342687144797, 0.9989042636083646, 0.9992946843249346, 0.9995797209304744, 0.999744179584404, 0.9998229546811869, 1.0, 0.999845939587343, 0.9996006105863429, 0.9991473867553551, 0.9987311384953883, 0.9983299968448002, 0.9976984735898166, 0.9969735345403083, 0.9961192250600379, 0.99521012654622, 0.994130231150362, 0.9930365484120879, 0.9918418062465851, 0.9905820253901386, 0.9891827966329138, 0.9875677686861543, 0.9859899248532852, 0.9843092017949263, 0.9827388939144472, 0.9808297276108101, 0.9787404109472239, 0.9766683932727521, 0.9745031921335041, 0.972129740160511, 0.969794362060834, 0.9673834414935446, 0.9648507449092653, 0.9622243253931836, 0.9594861465284654, 0.95667836025368, 0.953763292895672, 0.9507763686109367, 0.9476998543443083, 0.9446988356881434, 0.9414264406321367, 0.937942728579499, 0.934534363866145, 0.9310419572445936, 0.9274796361854678, 0.9238213644270613, 0.9201221177099704, 0.9163011253007284, 0.9124051112320039, 0.9083675204031959, 0.9043326385569237, 0.9002120712700116, 0.8960278551987794, 0.8917701328468074, 0.8876042336894605, 0.8831835470327595, 0.8785780400157639, 0.8740541843069398, 0.8694642791544824, 0.8648258916915502, 0.8601064034727266, 0.855445108693131, 0.8505908041402115, 0.8456853858233504, 0.8406587082614697, 0.8356615922305056, 0.8306273172092654, 0.8255231849117022, 0.8203696504240937, 0.8150300346773542, 0.8097993192274894, 0.804586339453839, 0.7992435068990601, 0.7938568499981307, 0.7883415237351308, 0.7828836828930912, 0.7775046303183114, 0.7719474361289802, 0.7663587744814081, 0.76082666419074, 0.7551681538268309, 0.7493105919080558, 0.7436302236562942, 0.7379191104932508, 0.7321636043314819, 0.7264001655300042, 0.7207758020013063, 0.7149446525201772, 0.7091025895731431, 0.7031862613307762, 0.6973331697214143, 0.6913111176868852, 0.6854562808546876, 0.6795842828589425, 0.6738842674251315, 0.6679630478838224, 0.6620081588111111, 0.656095720772044, 0.6501850666916266, 0.6441588515168325, 0.6382711432113337, 0.6325145851180257, 0.6266117279467737, 0.6207205895650343, 0.6147653181479981, 0.6089110077023426, 0.6029907687604491, 0.5971703860170638, 0.591360626885773, 0.5857084273508596, 0.5799089133199246, 0.5739521664721379, 0.5682282991211925, 0.5625219249300073, 0.5570795856675145, 0.5513848249660996, 0.5454940870774065, 0.5399059327813854, 0.5343435273048331, 0.5289921970787692, 0.5234649996628926, 0.5178584258556599, 0.5124324067734434, 0.5070432572351943, 0.5016412510241125, 0.4963372061457567, 0.49104943381191524, 0.48582761676632097, 0.48064697227973097, 0.47548690873374283, 0.47039698947627995, 0.46554173494377826, 0.4605201143414322, 0.455557788274026, 0.4504878451163857, 0.4456654255358395, 0.4408291136198898, 0.4361170888629262, 0.43145495589405214, 0.4269120963294068, 0.4223469512983133, 0.41790192093511985, 0.41344829193307636, 0.40905915109139906, 0.4048055433306372, 0.4005377033232814, 0.39615017715423706, 0.39204564239581674, 0.38800005418647426, 0.38411448574490314, 0.3801787128576335, 0.3763277760785232, 0.3725279182926406, 0.36879849519503743, 0.36524248023538153, 0.3616416512595831, 0.3579475886199465, 0.35452154533053826, 0.3511618179049764, 0.3479785388808718, 0.34474046852030465, 0.34158390509040926, 0.3384950245924982, 0.33548128103945735, 0.33259708753899814, 0.329726244061606, 0.3266827501205073, 0.32399856809682914, 0.32137707511978386, 0.3189033279835516, 0.3164012007451657, 0.313893540666863, 0.31154453782688873, 0.30926333560618596, 0.3072401657819652, 0.3050728976434822, 0.3030181703356447, 0.30100659895473175, 0.29907511165693285, 0.297174320381964, 0.2954054906982835, 0.29361429489485724, 0.29200493768942964, 0.2904629234331299, 0.2889242257433045, 0.2875254761228115, 0.28626779776708794, 0.2849877794642063, 0.28374152195419844, 0.28260367055062224, 0.28153196744041376, 0.2806385308558569, 0.27968409041769776, 0.2787112414994798, 0.277909781872901, 0.27717209886848654, 0.27643023332803346, 0.2758269650654025, 0.2754681412200545, 0.2749576574482119, 0.27451547555991834, 0.2738893320898839, 0.2736099887870364, 0.27337001087962753, 0.27319030207294015, 0.2730597095332763, 0.27318706461289505, 0.27312859306637854, 0.27297038510192095, 0.27305181475104406, 0.27318115716083524, 0.2733129400003384, 0.2735421255588396, 0.27382770324213335, 0.27414195082045767, 0.27449952708016256, 0.2749446457170046, 0.2753809142593055, 0.27588628427467665, 0.27640482747034284, 0.276965591975918, 0.2776826148532701, 0.27830859681407416, 0.2789112855623876, 0.2796316237152042, 0.2803875852663059, 0.2812545862100039, 0.28206717954533744, 0.2828892378742419, 0.2837732272811799, 0.28468673021035723, 0.2855027928620865, 0.28648598708902334, 0.2873967189047466, 0.2884255703404235, 0.2894655773901064, 0.2907029421074292, 0.2917415299165814, 0.292643921749998, 0.2937427088754862, 0.2948499922468944, 0.29597808040666784, 0.2970990336057744, 0.2983782152054725, 0.2994938549084867, 0.30062344024969845, 0.3015753313086807, 0.3027502125820709, 0.30394775323166484, 0.3051129372661698, 0.3062756316868278, 0.30743181815836207, 0.3085874571068163, 0.3097506759711487, 0.310893229630683, 0.31202932606789974, 0.3131321633443465, 0.3142552228015475, 0.31533808771365335, 0.3164412491636882, 0.3175295524286763, 0.31881732507582317, 0.319846327014882, 0.32069669358164227, 0.3217344483032496, 0.3227521201561041, 0.3237745053994393, 0.3247460824503749, 0.32583114938032776, 0.3267418373284139, 0.3276364929285815, 0.32830746482289286, 0.3291896620322752, 0.3300382196231329, 0.3308530411558493, 0.3316339450462453, 0.3325219390808648, 0.33321631252067196, 0.3338997937366029, 0.33453668669940506, 0.3351445142753471, 0.3357667283345553, 0.33630635810422216, 0.33660015345572647, 0.3371039558462674, 0.3375619458068572, 0.3381222108451434, 0.33847100268272323, 0.3387061149901306, 0.3389903263864667, 0.33923152114191096, 0.33936518120665193, 0.33952752820522997, 0.3397835658431729, 0.3398330890842122, 0.33984326997948894, 0.33968461357437285, 0.33962922049904337, 0.33949222424744063, 0.3393421130238579, 0.33914108491588285, 0.3390468343093597, 0.33872514439645146, 0.33837193105637153, 0.33796564565747184, 0.3375167249106221, 0.337037086843788, 0.3364986081366777, 0.3357359705249693, 0.3351307637712541, 0.33446975024929826, 0.33391115963659623, 0.3331212867709445, 0.33230616881434816, 0.3314242452088856, 0.3304977927726611, 0.3295551372945422, 0.32853436851327794, 0.32744038922518914, 0.32633412611091656, 0.3251810029686935, 0.32388142028773464, 0.3226470079304065, 0.32126701486583986, 0.3199403312711744, 0.31855771178045633, 0.3171720889726133, 0.31567566458866647, 0.3141722413606462, 0.31257387200702075, 0.3109306785893816, 0.3091627946400977, 0.30744130737574177, 0.3056909900594324, 0.30387196803863165, 0.3020080453291182, 0.30017066824512295, 0.2982104284520273, 0.2963368278496308, 0.2942837911418927, 0.29219962466524363, 0.2898460321537812, 0.287727673820158, 0.2856242174543349, 0.2834076259521325, 0.2811516091180903, 0.2789759483973595, 0.27662901449332866, 0.27417839538051536, 0.27178109840884707, 0.2693498936089804, 0.26692409302432746, 0.26442257454391144, 0.26176971557516254, 0.2592254671019339, 0.2566461325885734, 0.25419705592603736, 0.2515315878308214, 0.2486489751993881, 0.24596574973633797, 0.24325050597286246, 0.24055005487872697, 0.2377705752175488, 0.23511135701776154, 0.23226639976048402, 0.2294077382062881, 0.22652573749566587, 0.22364099617122646, 0.2206974036941823, 0.21779094247965136, 0.21486894362163245, 0.21179106088986824, 0.20885862134508806, 0.2059986328726048, 0.2030152174376517, 0.2000204565529982, 0.19703793838375672, 0.1940209762006939, 0.19107108101698364, 0.18803213256707915, 0.18499236910348107, 0.18192643978317985, 0.17888937857079482, 0.17589946378200746, 0.17285505762679867, 0.16981391267299628, 0.1667764752039848, 0.1637432663198152, 0.16072450527154247, 0.15770035741951904, 0.1546829109845461, 0.15151551483935768, 0.14853340732253933, 0.14567009768955783, 0.1426750414397628, 0.1397612764568957, 0.1367794668322805, 0.13381401028871748, 0.13076569276347463, 0.12784654232366244, 0.125141585368948, 0.12222203758002104, 0.11932836088444501, 0.116248261478875, 0.11343208533122835, 0.11066768311205528, 0.1078748630951621, 0.10510081745308697, 0.1025490403585781, 0.09979061108241512, 0.09714933129590352, 0.09444716835022704, 0.09178246792222011, 0.08912865192326576, 0.08653965475264006, 0.08393966238651676, 0.08142413424245373, 0.078939920598998, 0.07655491523561826, 0.07412627163662551, 0.07184022982740962, 0.06947155163981787, 0.06714567519782157, 0.06472392523171384, 0.062499417828943825, 0.060526922523339854, 0.058343156020444174, 0.05620722795700216, 0.0540412465581861, 0.05200841715415968, 0.04997862205306772, 0.048034084888471384, 0.046129600148820206, 0.04429477217985066, 0.042468865163819085, 0.04095964757381286, 0.039187282984234524, 0.037474966572194277, 0.03561552075968029, 0.03404445200442492, 0.03275517937951434, 0.031243199692820925, 0.02979015339758017, 0.02824390935701111, 0.02692432309095109, 0.025684236717890586, 0.024455943804509998, 0.023277974329282445, 0.022134575603779346, 0.021060205471205448, 0.02024169481728418, 0.01924259289106547, 0.01830635558786427, 0.01730657682133653, 0.016508505637770045, 0.015856340514366362, 0.015152413992829919, 0.01450715031990934, 0.013833437460487397, 0.013315266904573297, 0.012920499023971894, 0.012499439520740572, 0.012136084343203218, 0.01200367356861313, 0.011733457390054918, 0.011395554841569434, 0.011275276117178249, 0.01121192962495517, 0.011173433318231325, 0.011228097871281071, 0.01136048277559029, 0.011523116658537214, 0.011742865641728962, 0.012032652196236176, 0.0123652423041449, 0.012755888511383906, 0.013204543569238475, 0.013711161681725162, 0.01447475052561577, 0.01507198582831284, 0.015734998304549292, 0.01646895861298356, 0.017268606511350655, 0.017972149002218885, 0.018919822053707586, 0.019904757266311173, 0.020961515073648563, 0.022071480890439112, 0.023305731001484833, 0.024514448413444412, 0.025733316940905616, 0.02706443164011083, 0.0284505483086865, 0.029827561588506805, 0.03133207946843851, 0.03304230655776892, 0.03463105963266388, 0.03628099760217604, 0.03798479307745629, 0.03975526847366042, 0.04154553897362032, 0.04343687511365048, 0.045383109567691406, 0.04730372179423288, 0.04936912807038618, 0.05151304382917005, 0.05367440390690518, 0.05588767176150779, 0.05811109420585377, 0.06043336482469045, 0.06289171589025243, 0.06530202248340204, 0.06776692633269804, 0.07017663758736468, 0.07276267033493058, 0.07551093660653206, 0.07817598109161765, 0.0808947121699601, 0.0835379266528833, 0.08637796661989557, 0.08926226438991272, 0.09219118515882138, 0.09516499678115542, 0.0982962485321792, 0.10134609554644963, 0.10445387257155832, 0.10760498952836482, 0.11080615925303536, 0.11412071154686577, 0.11741127774328321, 0.12076906434440543, 0.1241586849479766, 0.12759797604844247, 0.13086101744607678, 0.13442461973634687, 0.13804770926339818, 0.14167656488182453, 0.145342302660053, 0.14908705776899114, 0.15282237716837288, 0.15669093170680007, 0.16049452929853072, 0.16434303369310652, 0.16815837590997068, 0.172103456583498, 0.17618900681350996, 0.18019635034679235, 0.18424674302416952, 0.1881882022037184, 0.19234059215217156, 0.19646353560555443, 0.20068709015101013, 0.2049393707036906, 0.2092306665886609, 0.2135410172065955, 0.2180074205984208, 0.2223638303902554, 0.22675843373778573, 0.23103615382060833, 0.23552376921193324, 0.24025006483483452, 0.24476486758551153, 0.24931905467754803, 0.2537056431702081, 0.25836017435107805, 0.2631796454628121, 0.2678641363870389, 0.2725810535459095, 0.2772877730350147, 0.2820722060541325, 0.28683925034530605, 0.291684060002308, 0.29655305022920814, 0.3014814603145732, 0.306394065522404, 0.31141593047180943, 0.3163690548141775, 0.32135165296566937, 0.32614102606658857, 0.331207149909671, 0.33628061777676194, 0.34137591418048446, 0.3464861142143324, 0.35180442437912174, 0.35692165811837356, 0.36184439768655347, 0.3670423573512392, 0.3722523068720809, 0.37769637639564474, 0.38290395729234433, 0.38807955470142697, 0.39334448206093525, 0.3986289415460795, 0.40378435899166937, 0.4091239256432166, 0.4146615987919402, 0.4199949828481083, 0.4253515714969188, 0.4307231879238068, 0.4361123713585395, 0.44129960459084294, 0.44674800375833634, 0.4522240281859397, 0.4576738269434014, 0.463128376796618, 0.4687773507429375, 0.47421809822581124, 0.47956230136369765, 0.48504734529664395, 0.4905388967218061, 0.4961328256232518, 0.50162385356856, 0.5069648662376394, 0.5124959364304071, 0.5180260319038481, 0.5237030008594362, 0.5292128676171308, 0.5345922063282932, 0.5401332949794928, 0.5456716687685209, 0.5513935095864865, 0.5569027443647713, 0.5621529301006539, 0.5677089770556716, 0.5732541575168951, 0.5790042313745786, 0.5845022797797277, 0.5899709202674275, 0.5954769093341685, 0.6009808624330982, 0.6062987048220431, 0.6118185492173343, 0.6174963682724133, 0.6229640227817979, 0.6284269034463138, 0.6338613785880407, 0.639314130203813, 0.6445713079612837, 0.6500280386786437, 0.6554632883206345, 0.6610254229307841, 0.6664009046598719, 0.671681252698609, 0.6770429864451425, 0.6823864272325036, 0.6877466131482626, 0.693048100978814, 0.6982776676817531, 0.703550626966225, 0.7088016757064763, 0.7140176382241011, 0.7192254240007083, 0.724534600992273, 0.7296785098328868