0.03206942183121995, 0.03166300594568229, 0.031313577104356255, 0.03099423797355066, 0.030659796532657036, 0.030412283606258268, 0.030187512394966542, 0.029991449122358214, 0.029801008976794184, 0.029635906103288177, 0.02947051024127575, 0.029316086141732273, 0.029194745073981763, 0.029054981126469207, 0.028885974250666753, 0.028767278163605626, 0.02865349009707085, 0.028490860114184405, 0.028393350182336997, 0.028291382475009043, 0.028199009492332693, 0.028109451298066954, 0.02803134096965826, 0.02794867793553252, 0.02789676846944597, 0.027822675072797256, 0.02775692200991427, 0.02766058928130563, 0.027617987422755175, 0.027575147943001255, 0.0275496730463693, 0.02753304615490084, 0.027543438747156, 0.027544764384193707, 0.027553544730661052, 0.027580401050815516, 0.02762028432147253, 0.027639074068586518, 0.027711052370695995, 0.027784682868008934, 0.027884196866736665, 0.027997254853303816, 0.028099380971635453, 0.0282448975671725, 0.02844402281355223, 0.02861374317418185, 0.028801384953408223, 0.02895842256865356, 0.029189099260245894, 0.029442243763443145, 0.029705141520210428, 0.029985884424423813, 0.030231406514996922, 0.030556171863748042, 0.0309082886073978, 0.03126514738216413, 0.03164057260862407, 0.03205567242330263, 0.03246743164886659, 0.032832815888306714, 0.03329627855228347, 0.03377795629899953, 0.03431336025758106, 0.034829496865222645, 0.035317618744161686, 0.03588534075191331, 0.03647333696767948, 0.03711543079600539, 0.03774188393981018, 0.03838771697005121, 0.039063273847975914, 0.039763240629162394, 0.04043905857753588, 0.04119494416489033, 0.04194817753971871, 0.04275307252739934, 0.043580428612582274, 0.04448304969503049, 0.04535103131908991, 0.04622605554781289, 0.04715188654949482, 0.048104481753402616, 0.04906371040366458, 0.05007349837793949, 0.05108945353833658, 0.052155643331768274, 0.053248293238100354, 0.054369577971122116, 0.05551669972594621, 0.05667627348541303, 0.057882287370285376, 0.05911653598806044, 0.06037482623860891, 0.06166771051446685, 0.06294118727283436, 0.06429963748624375, 0.06568570137652159, 0.06708440655904513, 0.06852998878869206, 0.07004228440314017, 0.0715415501893688, 0.0730731619962638, 0.07461531530270205, 0.07621518333554667, 0.07785477295651372, 0.07951770644604808, 0.08121364929036268, 0.08294600052189649, 0.08470827814475952, 0.08645711855557178, 0.08829324031379557, 0.09014036298363542, 0.09204256827232148, 0.09397606435375264, 0.09598081297823344, 0.09797349092347322, 0.09998220126214434, 0.10204720865591947, 0.10414616709676804, 0.10626978070775808, 0.10843829294575663, 0.11060751520132876, 0.11284799205254928, 0.11512069024734874, 0.11745275743940758, 0.11978749327956535, 0.12214262992997385, 0.12454829716482055, 0.12698765640116258, 0.12947177575148328, 0.13197719070303715, 0.1345405668873284, 0.13711147576015917, 0.1397177187924468, 0.14230848511651276, 0.1449906870052037, 0.14770905135435775, 0.15045358535564932, 0.15322989947072116, 0.15603950764190597, 0.15887896074685054, 0.16178152205945, 0.1646799772728056, 0.1676114123682654, 0.17057535135505125, 0.1735713265129872, 0.17657838330425807, 0.1796396430460135, 0.1827304180215182, 0.18579682357399596, 0.18895252523114126, 0.1921669183626922, 0.1953696935629388, 0.19860001268576039, 0.20184652264079855, 0.2051323425261159, 0.20843459269178197, 0.21177307828033423, 0.21513627228128135, 0.21852545342545315, 0.22193693272897846, 0.2254100351109158, 0.22886389012056457, 0.23234278977198908, 0.23580969648658193, 0.2393409412765159, 0.2429181122771816, 0.2464871172546704, 0.25007729581831606, 0.2536879302863503, 0.2573183025207063, 0.2609535054416353, 0.26462298681979846, 0.26830924473900836, 0.2720006308402995, 0.27571997842524243, 0.2794330958379382, 0.2831829839104344, 0.2869448042543266, 0.2907259745839699, 0.2945092258930567, 0.29828126054252563, 0.3020883587496196, 0.30590374550446126, 0.30973793212781464, 0.31356688531050386, 0.3174266912169235, 0.32126633244986896, 0.3251130134772885, 0.3289846815839567, 0.3328401458706493, 0.33666928684630953, 0.3405380364106719, 0.3444080210682452, 0.34829576397217565, 0.3521635595652509, 0.35599638720382887, 0.35986699583338827, 0.3637333805068282, 0.36763266570550224, 0.3714836602290038, 0.3753066906961822, 0.3791509415904024, 0.3829873670048998, 0.3867741003274987, 0.3905974048645004, 0.39446938819031885, 0.3982587332471324, 0.4020375099354896, 0.40575882945627784, 0.4095187513489408, 0.4132541982574752, 0.4169811816067654, 0.4206896009691267, 0.42438186589464916, 0.42805049664367534, 0.4317299455523271, 0.43535231486079295, 0.43895401398908396, 0.44252759241309075, 0.44608533045530974, 0.449604471089625, 0.453114136327311, 0.4565965087722469, 0.4600175655878413, 0.4634467763082596, 0.46685509665380026, 0.4702183921843807, 0.4735490063312891, 0.4768161604901678, 0.48008270102432216, 0.48333284259265347, 0.48652237692567013, 0.48967486806829413, 0.4927957514704912, 0.495870738495922, 0.4988922104609765, 0.5018893924504724, 0.5048445651210545, 0.5077490225419012, 0.510618692040548, 0.5134780932511074, 0.5162526974512484, 0.5189827246204879, 0.5216308383415659, 0.5242730876495584, 0.5269065605051054, 0.5294433976168382, 0.5319313541285684, 0.5343331217675976, 0.536724784476466, 0.5390546025401953, 0.5413386792015608, 0.5435670307492073, 0.5457374782693842, 0.5478527624317001, 0.5499340474419829, 0.5519304425003162, 0.5538692987517747, 0.5557009448774356, 0.5575285190968083, 0.5593407700490065, 0.5610367970773129, 0.5626721645435918, 0.5642098530162146, 0.5657262303286514, 0.5672281638663251, 0.5686080050287492, 0.5699250204533615, 0.5711468845036285, 0.5723398909404616, 0.5734644766235842, 0.5745235881164733, 0.5755149659909709, 0.5764272043204762, 0.5772834079595444, 0.578040227768671, 0.5787611080236291, 0.5794103857228635, 0.5799849104266201, 0.5804913656320779, 0.5809464769608803, 0.5813066384698274, 0.581596043025402, 0.5817719115480415, 0.5819245498236466, 0.5819860976394139, 0.5819936005637931, 0.5819266994999875, 0.5818471409195433, 0.5816244257644925, 0.5812904787661314, 0.5809321479248756, 0.5805007018760728, 0.5800403910364496, 0.5794574683489275, 0.5788026720460198, 0.578079123624668, 0.5772847814910382, 0.5763533225940061, 0.5754254695863346, 0.574410292948252, 0.5733351629287787, 0.5721856944439826, 0.5710192482949984, 0.5697157300337595, 0.568298671191364, 0.5668620176284238, 0.5653537012707681, 0.5637616367497329, 0.5621131632493281, 0.5604285694821319, 0.5586347330628161, 0.5567732826159003, 0.554803564184105, 0.5528130985441786, 0.5508184467557022, 0.5486829297984276, 0.5464711170985627, 0.5442100485216002, 0.541885094434963, 0.539419453579431, 0.5369778646247468, 0.5344899988107136, 0.5319134603572981, 0.5292736246230078, 0.5265588211748933, 0.5237967984415955, 0.5210003666361491, 0.5181135618570669, 0.5151690838132633, 0.512166138475527, 0.5091088795223653, 0.5060435559575228, 0.5028704569908728, 0.4996463798372071, 0.49627724930696243, 0.4929647677774107, 0.4896119058170828, 0.48618994496040485, 0.48271707117788454, 0.47918665945327615, 0.47561670937408224, 0.4720290756770296, 0.4683613430355314, 0.4646501889944102, 0.4608650880812305, 0.4570741037953552, 0.4532740953077709, 0.4493959769735154, 0.4454801913910296, 0.4415151435566452, 0.43752868991032257, 0.43348490838126547, 0.4294319120106631, 0.42534479204989084, 0.4212343812392555, 0.417081926010181, 0.41292045118564435, 0.4087076383978629, 0.40446898176142393, 0.40016301380255254, 0.3958813591656493, 0.3915763977823486, 0.38724627457727306, 0.38289432496779574, 0.37857085309900546, 0.3741733593556743, 0.36969640059014364, 0.36527840569597503, 0.3608439689543678, 0.35638363274226775, 0.3519224029936299, 0.34747553736789105, 0.34298761649547443, 0.3384918604489682, 0.3340053120497042, 0.32949572401971045, 0.32497197308347847, 0.32045866280996577, 0.31594389396125866, 0.31140053991456795, 0.306890185147863, 0.30237578791591646, 0.2978688721869545, 0.2933652806968283, 0.28892793689328894, 0.28442751879439093, 0.27986244364119695, 0.27539447283704127, 0.27093501895949257, 0.2665439419740524, 0.26209869711306566, 0.2576570874926016, 0.253246858753969, 0.2488540452520454, 0.2444875946635429, 0.2401318129252672, 0.23576082971090093, 0.23145274486148076, 0.22716568716958666, 0.22288834452913467, 0.21864879750752694, 0.21443020925254608, 0.21024058248551658, 0.20607744363144534, 0.20193887884902337, 0.1978327892785599, 0.19377709697060097, 0.18972936907742383, 0.18571494624037355, 0.1817095105011191, 0.1777675859635921, 0.1738964779184906, 0.170020149811047, 0.16618249994499842, 0.16235111544180172, 0.15859708207010734, 0.15490400981266617, 0.15122591895635262, 0.14758981948214497, 0.14397591467941012, 0.14042846511153045, 0.13691444601076036, 0.13345478773289626, 0.13003908609295, 0.12668707977420426, 0.12335932152306575, 0.12008522427458125, 0.1168519248569077, 0.11366740640953497, 0.11055892427790354, 0.10746993536449184, 0.10441049030523379, 0.10142771755812029, 0.09849572781740604, 0.09561649177998943, 0.09278703394840163, 0.09000011830878958, 0.08727618414393792, 0.08460435460968062, 0.08195661976586123, 0.07939365430926533, 0.07690427990933035, 0.0744420737389725, 0.07203358508653533, 0.06969637418821892, 0.06739375875932158, 0.06510542134951143, 0.06291851322451611, 0.060784550849119344, 0.05870383759962722, 0.05667662313310763, 0.05471256472044206, 0.0527917002208514, 0.05092531978276036, 0.049122867425687625, 0.047364184103919404, 0.045638308221215215, 0.04399198667341904, 0.042398918133240995, 0.04088270384824879, 0.03939297522948848, 0.03795599263975339, 0.036574754372164474, 0.03524703016225545, 0.033981912232356255, 0.03275890661844963, 0.03153205124773874, 0.030421534534935957, 0.0293597502842581, 0.02838133257819095, 0.027412422123174143, 0.02650489294032822, 0.025634771728008834, 0.02481458158165211, 0.024004279636356093, 0.02328703007767163, 0.022621887139382776, 0.021995104446923, 0.02141375289889961, 0.020888386029790134, 0.020395022170602527, 0.01993985512576352, 0.019535623656387696, 0.019174182972589087, 0.018859607460847225, 0.018581162772123495, 0.018354776590380893, 0.018156225618397418, 0.017997786136998338, 0.01784232478045916, 0.017766061946771244, 0.017778837172094317, 0.01776608396902592, 0.017790551071556474, 0.017783351343081382, 0.01788754436446916, 0.018089690117163753, 0.01824514141798207, 0.018433498629585553, 0.018661489157637337, 0.018911220038457847, 0.019162524456476645, 0.01947458258610915, 0.019812704038109617, 0.020183884821932053, 0.020570468371470692, 0.020941460260296127, 0.021379686516635535, 0.021837564584567884, 0.022339655604223074, 0.02283162420271603, 0.023348865909334507, 0.023876999804394766, 0.024422506341758375, 0.024982778799845822, 0.025560142609089034, 0.026176933067787667, 0.02677850943971216, 0.027387388935614744, 0.028015775665553813, 0.028655036453272487, 0.029365551527844723, 0.030015505941648674, 0.030711219610967216, 0.031377402978103146, 0.03205360253311028, 0.0327034628200093, 0.0333991548106737, 0.034189611623664705, 0.03487928375254138, 0.03557520868092587, 0.03627244942534939, 0.03697605085283325, 0.037677585532875195, 0.03838233943705318, 0.039085255658652104, 0.03980087643056037, 0.040494529076296776, 0.041237366070156795, 0.04191425890114599, 0.042587502761082134, 0.043257217971999246, 0.043918706202164516, 0.044582043431200626, 0.045225947644774916, 0.0458605179600005, 0.046580828679384026, 0.04718139108409506, 0.04778128908288803, 0.048365468017635575, 0.048939893023832705, 0.04953311345576888, 0.05008016934444766, 0.05061060204684638, 0.051133186842447914, 0.05164117816829709, 0.05215722298312621, 0.05263014001351154, 0.05315486884992322, 0.05358635058855755, 0.05400392612184907, 0.05442208355615687, 0.05480617318411631, 0.055165960000317885, 0.055517203621128615, 0.05584970662625169, 0.0561879910133098, 0.05647781590360734, 0.05677528538712091, 0.05702276511071995, 0.0572513927780817, 0.05755191667768735, 0.057729334120071196, 0.05790547193831676, 0.0580490277995795, 0.05817581549449103, 0.05830697986826874, 0.05839481888269063, 0.05848686693822669, 0.05853550757952141, 0.05856628778692482, 0.05859594070417284, 0.058587117511435714, 0.058563120987004925, 0.05851685881132605, 0.05845178558285427, 0.058372434444028176, 0.05826864897002903, 0.058164925261118834, 0.058021064467697496, 0.05785953891320781, 0.057692977703350745, 0.057494661819286814, 0.0573033215367852, 0.05706880970908152, 0.056819296128021335, 0.05656116842675068, 0.05628118273050908, 0.0560059522801825, 0.05569550824462126, 0.05537254560100814, 0.05504833334790537, 0.05469971543380808, 0.05432435378105204, 0.053956119076959415, 0.05357678539795046, 0.053256318042679385, 0.0528478658902898, 0.052424673854515325, 0.05200700887713263, 0.0515839391848988, 0.05115273139573161, 0.050720581347118536, 0.05032372786927376, 0.049879009361517464, 0.049433723177417725, 0.04898040895349737, 0.048536329994281695, 0.04810535245938277, 0.04766136469858627, 0.047220037604403346, 0.04676788624308308, 0.04633583722884664, 0.04593787122328868, 0.045511262729975, 0.04509242222547599, 0.0446584765566765, 0.04426053098958519, 0.04387149094056026, 0.04349245516508385, 0.043124534857529664, 0.04273101811649449, 0.042393487153377776, 0.04213927847757244, 0.04181899573816925, 0.04151794541468234, 0.04122591087855349, 0.04096721923783976, 0.04070450002457705, 0.04049241243512361, 0.040302174338199104, 0.04016815545849902, 0.040021216115812636, 0.03987495084242535, 0.03978731562694917, 0.03972761246624693, 0.039711258313096146, 0.039709304262863725, 0.03975077426915684, 0.03981329172591725, 0.03991099946878243, 0.04001337771842926, 0.040188490693313844, 0.04043634421596448, 0.04068113360264557, 0.040967004911626165, 0.04129018336589242, 0.04166169328716994, 0.04207849725603, 0.04253826828817405, 0.04304389709084425, 0.043588515114871204, 0.044189896128087686, 0.044795590656974756, 0.045500528879648984, 0.04625357046752635, 0.04706084260195475, 0.04791362821336683, 0.04883141556256914, 0.04978858243481215, 0.05080119349618987, 0.05184188163964699, 0.0529719666064957, 0.0542155987156485, 0.05545325883649092, 0.05675316241928772, 0.058079650183813586, 0.05951042852542173, 0.06102845705695943, 0.06258101016531127, 0.06419878830943351, 0.06585878182858405, 0.0676119011158524, 0.06946390654396914, 0.07134520098101658, 0.07329569412592182, 0.07523544937510442, 0.0773358841148635, 0.07951656634200999, 0.08174842068256588, 0.0840492296696321, 0.08644344691390649, 0.08888153412759976, 0.09139686692203491, 0.09397982521096993, 0.09663640728681719, 0.0993354223194141, 0.10214422484538793, 0.10500059442635784, 0.10795867837177006, 0.11098910466352778, 0.11411769838187885, 0.1172913500368375, 0.12048516386013099, 0.12381664413062796, 0.12722068353311922, 0.1307120137808015, 0.13426091674011545, 0.13789241659816143, 0.14158992210683036, 0.14536286213920813, 0.1492443277768153, 0.1531638637408279, 0.157135290223809, 0.16121182681948787, 0.1653632234294049, 0.16960343736303585, 0.1739020321912353, 0.17823134302097635, 0.18268477707652306, 0.1872159695581418, 0.1918113725614694, 0.19647823759507071, 0.20119575308291504, 0.20600712575059532, 0.21090188740749086, 0.21584956418538234, 0.22086656274633276, 0.225925536401834, 0.23108287869478245, 0.23629207470918873, 0.2415828315918897, 0.2469378427842798, 0.2523692420868074, 0.25784966184168884, 0.26337920900175305, 0.26898726849245524, 0.2746562308969542, 0.2803758752183799, 0.2861654948861255, 0.2920619007412066, 0.2979603300599281, 0.3039176699612316, 0.30987739761610833, 0.3159554883070261, 0.3220538149185547, 0.3282385070809683, 0.3344713068728064, 0.34075931876910526, 0.3470849198359904, 0.35347540752238954, 0.35988948031923945, 0.3663483739657469, 0.3728113371590906, 0.3793608004631777, 0.38597555528881133, 0.3925975013442212, 0.3992571500834035, 0.4059325523276765, 0.4126658008903005, 0.4194311490967464, 0.42622722404311475, 0.4330526084971943, 0.43987746896403684, 0.4467606479275771, 0.4536670590800244, 0.4605953675490196, 0.46754418052868446, 0.4744773713177291, 0.48146719283921624, 0.48849631733703547, 0.49550981150915924, 0.5025361325410549, 0.509526351440324, 0.5165793627046086, 0.523651729122848, 0.530711936132985, 0.5377753453414826, 0.5448309045000483, 0.551897089765467, 0.558953159132415, 0.5660142406894901, 0.5730693416317096, 0.580072679316993, 0.587116431809766, 0.5941246163066678, 0.6011427720977799, 0.6081433399771085, 0.6151155163877216, 0.6220779922264364, 0.629055926312571, 0.6359673939734612, 0.6428556008730166, 0.6496603269238562, 0.65650369899067, 0.6632959165005622, 0.670075761598961, 0.6768193608087179, 0.6835757563643899, 0.6902362138685808, 0.6968163036018025, 0.7034045596315788, 0.7099486853794548, 0.7164376130175436, 0.7228898167604169, 0.729273532125054, 0.7356273794336959, 0.7419273592514188, 0.7481278362705729, 0.7543211411862095, 0.7605008126535455, 0.7665650639034314, 0.7725685377844367, 0.7785095199092663, 0.7843863000521594, 0.7901719525212575, 0.7959184179825428, 0.8015941879059424, 0.8071977978688805, 0.8127277745264881, 0.8181290418624901, 0.8235140932376191, 0.828818069202348, 0.8340667283047979, 0.8392019990152553, 0.8442118873442256, 0.8491855333180697, 0.8540712394570223, 0.8588711432886672, 0.8635774927463156, 0.8681756023720045, 0.8727012277310817, 0.8771327345218131, 0.8815006569783194, 0.8857369407160883, 0.8898463178562438, 0.893894547439627, 0.89784309161653, 0.9016862516851513, 0.9054331153836095, 0.9091055018219586, 0.9126421558065018, 0.9160757236923803, 0.91939719741615, 0.9226222543811402, 0.9257436861082926, 0.9287538544482246, 0.9316555892155015, 0.9344133215401824, 0.9370999502529187, 0.9396468559414762, 0.9421105355196578, 0.9444588138694591, 0.946738723961376, 0.948849428179178, 0.9508323823347055, 0.9527170894027563, 0.9544861534247946, 0.9561328122189864, 0.957670050812308, 0.959121551142527, 0.9604199667628401, 0.961602307321838, 0.9626554646652115, 0.9636058223209762, 0.9644396708698514, 0.9651534466247276, 0.9657488471852216, 0.9661469171817513, 0.9665151735448682, 0.9667682432196734, 0.9668899974998929, 0.9668903538385878, 0.9668218385172669, 0.966574322092549, 0.9661640894781665, 0.9656884127162721, 0.9650933424203673, 0.9644125139121005, 0.9635760675275045, 0.9626173887054457, 0.9615501737681275, 0.960367300416529, 0.9590140253837528, 0.9576081430738557, 0.9561322071991165, 0.9544866440106704, 0.9527283529517249, 0.9508531867163831, 0.9488718239118619, 0.946815591549333, 0.9446081304755394, 0.9422930917472905, 0.9398047838997483, 0.937284584731973, 0.9346926868403359, 0.931949889636979, 0.9291021786898838, 0.9261063529594861, 0.9230572489187164, 0.9199178708985244, 0.9166594551202422, 0.9133001764004582, 0.9098476184723433, 0.9062896632441995, 0.902624036825721, 0.898875472610025, 0.8950322119785372, 0.891079892842347, 0.8870534502360156, 0.8829340923493006, 0.8787267384295738, 0.8744310903816942, 0.8700771036237646, 0.865606021620146, 0.86106402042575, 0.8564289982778628, 0.8517154031120562, 0.846938766459954, 0.8420703065920008, 0.8371187714652878, 0.8321056273237838, 0.8270210931807388, 0.8218383210728628, 0.8166192111607803, 0.8113002735667064, 0.8059504026934975, 0.8005357422522721, 0.7950550450350234, 0.7895122497221192, 0.783955107280821, 0.7782884192732729, 0.772552477925801, 0.7667824155178582, 0.7609612326475443, 0.7550686579947061, 0.7491534308762375, 0.7432306826325936, 0.7372186170021132, 0.7311658331332826, 0.7250535038213057, 0.7189269020368824, 0.7127682440596929, 0.7065693835649999, 0.7003378240809864, 0.694061251359211, 0.6877717128277437, 0.6814732297926178, 0.6751275759639942, 0.6687591091408827, 0.6623617713581658, 0.6559541553170508, 0.6495224728712609, 0.6430820393415807, 0.6366273004392585, 0.6301318290606969, 0.6236578999788913, 0.6171943754757466, 0.6106998184890062, 0.6042005639839748, 0.5976669818153271, 0.5911679977116335, 0.5846981477371609, 0.5781958482456445, 0.5716985797058136, 0.5651655559020243, 0.5586890505261518, 0.5522189086861748, 0.5457605675789408, 0.5393141932338441, 0.5328849301098149, 0.5264680160053439, 0.5200643456517693, 0.5136858019404021, 0.5073285806722143, 0.501011812596066, 0.4947003753969014, 0.4884086072273014, 0.4821548080619991, 0.475931179708546, 0.46970461040127753, 0.4635503910602898, 0.4574936613044798, 0.4513987572011714, 0.44534382565601915, 0.43931266644304184, 0.43334330578938995, 0.4273864475410254, 0.4215070890808962, 0.4156711028935038, 0.40983586658651383, 0.40409670994876645, 0.3984107423803533, 0.39276293924792754, 0.3871642714522588, 0.38164934971910036, 0.3761492180637706, 0.37067444826065915, 0.36528978033299264, 0.359960820415792, 0.35474240917638156, 0.34952176302225785, 0.34432872137394527, 0.3392376892581033, 0.33420831914072047, 0.3292005712158612, 0.32430251328797266, 0.319460248897691, 0.31468836057106686, 0.30998049126887794, 0.30539289585088397, 0.30080925812846687, 0.29623428561247744, 0.2917991444817763, 0.28743155836941325, 0.2831545105368692, 0.27892191349556655, 0.2747385715651665, 0.2706519491485716, 0.26663644406265813, 0.2626785055337965, 0.2588088814499664, 0.2550381164209425, 0.25130980911680617, 0.24765617162943868, 0.24409321291360578, 0.24058762610744927, 0.23714877924777558, 0.2337968134002788, 0.23052055814855105, 0.227332700825243, 0.22420647516992204, 0.22112056271497071, 0.21815196086418975, 0.21525767817097335, 0.21243472362886917, 0.20968991123027428, 0.20701484336507833, 0.2044196142513684, 0.20189862047580798, 0.19942819659464678, 0.19705855603942124, 0.19480575986952506, 0.1925759783531542, 0.1904213728723053, 0.18834306707318732, 0.18633724206585728, 0.18438951646458562, 0.18253290200403197, 0.18074823264689147, 0.17906504766330683, 0.17741921265761074, 0.17581414493889874, 0.17431614270432405, 0.1728871787873232, 0.17154252659067118, 0.17024813997375687, 0.16897796383086527, 0.16782514193408166, 0.1667367460614223, 0.16573603121904584, 0.16477226484057442, 0.16386029263280008, 0.16302618398756075, 0.16225425306302774, 0.16151227705338142, 0.16086656850502995, 0.16030587891549247, 0.15977268047469276, 0.1592980619760494, 0.15886380876958767, 0.15850589506439575, 0.15820289182305877, 0.1579539933078207, 0.1577583555787263, 0.15760879377575582, 0.15751780462719292, 0.15745491972131154, 0.15746614988104815, 0.15752444535604934, 0.15764161447441744, 0.1577899883853533, 0.15799461936144682, 0.15823100472703483, 0.15851113228944347, 0.15882279539642205, 0.1591882787618272, 0.159598074486643, 0.16004102042435756, 0.16052158652645246, 0.16102756219878359, 0.16158122793488527, 0.1621967177257503, 0.16281258343537744, 0.16346125445280524, 0.1641460914442955, 0.16485568528790187, 0.16559271427898695, 0.16635916858980748, 0.16715183990155885, 0.16792685030023244, 0.16877340631713436, 0.16965249781193695, 0.1705363739177042, 0.1714389835503289, 0.17233874008462263, 0.17327811649650487, 0.1742301874606343, 0.17519734756788605, 0.17617674838392464, 0.17716897157814107, 0.17816964881024838, 0.17917645697118814, 0.18019503784116528, 0.18122058952483056, 0.1822394439364107, 0.1832773517068258, 0.18432778401883956, 0.18536965066430944, 0.1864131438002796, 0.18744772341254903, 0.18849242048758547, 0.18954442796184123, 0.19058263180044974, 0.1916172110807098, 0.19267860934292586, 0.19369870840920406, 0.19471687972383853, 0.19572511154406322, 0.1966612354750094, 0.1976614406306366, 0.19864808859410898, 0.19962683778682389, 0.20058360563788447, 0.2015992438222456, 0.20251543708210926, 0.20341902983627436, 0.20429761406441788, 0.2051733532191086, 0.20597205972374616, 0.2068200309082946, 0.2076453906789006, 0.20843344052328247, 0.20921382090287233, 0.21000704483417332, 0.2107322212282666, 0.21143362897859866, 0.21208683833869507, 0.21274137152835482, 0.21335907105158305, 0.21395952718055833, 0.2145310320256555, 0.21508259936292967, 0.215593666340651, 0.21609388243593278, 0.2165424934860398, 0.21696135315306442, 0.21732458323933207, 0.21768519520908375, 0.217987548786616, 0.21828492140894495, 0.21854713446677804, 0.21884340825809093, 0.219026090924108, 0.21912816805356014, 0.21925281906857785, 0.21934158071672383, 0.21937216257628703, 0.21939128121418985, 0.21938839756746778, 0.21932997355592984, 0.21923462390905327, 0.2191053403021729, 0.21893526882456849, 0.21874376502556836, 0.2184971591238085, 0.21821396257275255, 0.21792231206953303, 0.21756166537927196, 0.21711653917774387, 0.21669048381826694, 0.21622540310482505, 0.21578134320960776, 0.21523106964137395, 0.21461877498884457, 0.21400112302699684, 0.21334616779037144, 0.21261294647896803, 0.211888670244836, 0.21114860219803055, 0.21034290490110796, 0.2094999728025372, 0.20866417664980796, 0.20774190414248564, 0.20672886563827883, 0.20574566281006856, 0.20472516945595795, 0.20368995191724987, 0.20259357201671352, 0.20145315861157523, 0.20028913418305533, 0.19909064521227404, 0.19783447435963164, 0.19657134324798067, 0.19526901028560692, 0.19393818353720468, 0.19257390960034299, 0.19123360634926048, 0.18979725168871947, 0.18831526089519118, 0.18682468823016865, 0.1853052591035677, 0.18373847454198203, 0.18216500423894608, 0.18060866244453433, 0.17897288138311848, 0.1773123699558471, 0.1755517438919352, 0.1738522383504361, 0.1721326319612448, 0.17037719161497322, 0.1685962282419149, 0.1667953641424871, 0.16496541406341508, 0.1630891762770819, 0.16121772958118255, 0.15932389766254523, 0.15749062190343546, 0.1555445289350945, 0.15351568188563444, 0.15154845016677415, 0.1495629615898468, 0.1476263136396691, 0.14559858787945315, 0.14354317249696513, 0.14149389938843193, 0.13943249143913838, 0.13732638481160953, 0.1352465437659665, 0.13321116631684807, 0.13110046062302277, 0.12898241080210293, 0.12683377672095325, 0.1247052928365798, 0.12260732421235002, 0.12046014131269481, 0.11830921632237996, 0.11618651325446559, 0.11402547019649252, 0.11186231544851331, 0.10970070404060957, 0.10753913743959098, 0.10543322422660374, 0.10326612216852932, 0.1010972974636928, 0.09894027750820708, 0.09678781196111388, 0.0946355065308351, 0.09249381509424526, 0.09038754928115353, 0.0882535571029705, 0.08612783386579022, 0.084048580003136, 0.08193576782308344, 0.07985825732039677, 0.07776597863137875, 0.07568718157587598, 0.07363779264215968, 0.07158453368178397, 0.06959838225751873, 0.06756896737290297, 0.06555812641125912, 0.0635469037213221, 0.06157559018833845, 0.05967084094048015, 0.057729128868744296, 0.0558086840004571, 0.05396950045714301, 0.05208437316339193, 0.0502921777658312, 0.048448606585465556, 0.04663376982200204, 0.044855056261310866, 0.04309536864889025, 0.04134018369035847, 0.0396396436584497, 0.037965760321215035, 0.03635978499181734, 0.034734890102839686, 0.03317933650731139, 0.03160941802342842, 0.030071914823821055, 0.028568328974698156, 0.027095330491552397, 0.025662771449065223, 0.024254056429374164, 0.022878734809560403, 0.02162372778384193, 0.020304939828396273, 0.019034676685489336, 0.017792482341152733, 0.01658931553229465, 0.015478574028488097, 0.014346183881385461, 0.013230289665833136, 0.012184153349528236, 0.011177692668123757, 0.010281896020937374, 0.009346031500905952, 0.008419475514693816, 0.0075756191882693025, 0.006773203087921558, 0.006043881850381655, 0.005320787023890518, 0.0047060494131880674, 0.004062225237994581, 0.0034657983585326935, 0.0029068921176391527, 0.002405307159930936, 0.001981167108517215, 0.001567366730774554, 0.0012011878597377485, 0.0008635096229335604, 0.00059442851907239, 0.00038727375383151684, 0.0002086668090872422, 7.742054133861083e-05, 4.247031364601319e-05, 0.0, 1.1079910333953708e-05, 6.876254684291304e-05, 0.00016398791920105567, 0.00032342777992847867, 0.0005320754262569453, 0.0008372760096350242, 0.0011385438076470333, 0.001498209189832032, 0.001902598661852275, 0.002358963673721182, 0.002870252676978011, 0.0034296077690272888, 0.004037494497193773, 0.00470051894265379, 0.0054148890723107225, 0.006145914574144717, 0.006967353860988562, 0.00786817454638239, 0.0087850060645553, 0.009753563368078396, 0.010751806967776095, 0.011826703081449794, 0.012978992112235112, 0.014151907273127104, 0.015377337552890738, 0.016650514808399637, 0.017981462726814085, 0.019385053646046042, 0.02081772215248211, 0.02230371165047137, 0.023842862010068914, 0.025435028572106496, 0.027067468280954965, 0.028766876937442516, 0.030518228123523183, 0.03235619794356739, 0.034207027030231464, 0.03609436698766263, 0.03805478435560098, 0.04006749253825681, 0.0421560196860855, 0.04426996855862935, 0.046393048961222226, 0.048618817310046095, 0.050894795831479205, 0.05322738453488026, 0.05560324230949248, 0.05802986812948502, 0.06050722988644923, 0.06303527965591448, 0.06563287144405654, 0.06825970260046035, 0.070922288919364, 0.07365389646428015, 0.07643563474204484, 0.079246894061212, 0.08213112431789812, 0.08507656342420818, 0.08805640972616967, 0.09108556172948608, 0.09419225036025873, 0.09731597966712228, 0.1004491486816342, 0.10367850329344852, 0.10695518212067656, 0.11030593643142318, 0.11367370469099582, 0.11708219553864603, 0.12054783022897286, 0.12406095356909687, 0.12758977074830383, 0.1312010532207897, 0.13488088737163495, 0.1385789641684262, 0.14232318345975387, 0.14612902320769033, 0.149962669393584, 0.15384404143734143, 0.15776935555009475, 0.16174005420778956, 0.16571157208301485, 0.169777351720718, 0.17389266779388415, 0.1780407105642268, 0.18223071281444037, 0.18644514656733127, 0.19072067264636267, 0.19501920848074566, 0.19937750942642637, 0.203774913945809, 0.20824132372442897, 0.21271294976571997, 0.217165165694555, 0.2217249290047232, 0.22632096981317312, 0.23098643727955465, 0.23565091540220287, 0.24038184689155917, 0.2451184926751371, 0.24989399199269324, 0.2546540884051425, 0.259512111202119, 0.264432423525627, 0.2693545004446516, 0.27431166836357745, 0.2792451041758223, 0.2842783337105893, 0.28934029544329515, 0.29443429399993887, 0.2995583533590322, 0.30474699701938157, 0.3099262661693442, 0.31513218280443295, 0.32037421898686474, 0.32564619215874924, 0.33093493396577006, 0.3362666949571952, 0.3415881525362972, 0.34697927593117733, 0.35239482231146974, 0.3578345751784162, 0.3632982633899803, 0.3688139416404277, 0.3743209060657348, 0.37985230621571014, 0.3854216591380034, 0.39099812028898767, 0.3965489190924687, 0.40217717389720725, 0.40782430712081597, 0.41348835669269324, 0.41917224828632754, 0.42484527871678995, 0.4305673015223066, 0.43630424384413624, 0.44205736325428757, 0.44782293356686703, 0.45360239487699316, 0.4593952650892345, 0.46520102266872004, 0.47100019347947264, 0.4768324135756863, 0.48266996459714107, 0.4885224097616968, 0.49438362053468093, 0.5002404490640768, 0.5061191362089366, 0.5120120384959004, 0.5179018524783657, 0.5237973148114854, 0.5297024696596625, 0.535606549824633, 0.5414734273280505, 0.5473894648349396, 0.5533053864055197, 0.5592033614887149, 0.5651197212335324, 0.5710712038969747, 0.5769768659677346, 0.5828809006106999, 0.5887839830267563, 0.5946818531617741, 0.6005139815270902, 0.6064101697773824, 0.6122967798058987, 0.6181576046722487, 0.6240256593455716, 0.6298927731359116, 0.6357349927702227, 0.6415648173933116, 0.6473531771472265, 0.6531596770797208, 0.6589736398161271, 0.6647442127078437, 0.6704987325492783, 0.6761874648458182, 0.6819134391525252, 0.687622689859589, 0.6933046327489024, 0.6989642701575693, 0.704585153952317, 0.7102000764113439, 0.7158006614813017, 0.7213627667581108, 0.7268987174677085, 0.7323761312726692, 0.737861171190362, 0.7432983109907787, 0.7487237565659609, 0.7541162863226297, 0.75945163571239, 0.7647794136799061, 0.770108769746305, 0.7753586789792137, 0.7805732476596839, 0.7857562129702912, 0.7908965171909482, 0.7959814040603693, 0.8010466956369097, 0.8060708358205332, 0.8109646375941854, 0.8159148981955114, 0.8208935328974909, 0.825736053814308, 0.8305334782519461, 0.8352422095602625, 0.8399517237979203, 0.8445791312112294, 0.8491907925470673, 0.8537660452603267, 0.8582675180005251, 0.8627151600345705, 0.8670483197144745, 0.8713936018907974, 0.8756951311876813, 0.8799190478870865, 0.8840835796103423, 0.8882180703052012, 0.8922581790068347, 0.8961881933919211, 0.9001144229594752, 0.9039762584865643, 0.9078094134252276, 0.9115362016301974, 0.9151563126094499, 0.9187593073342473, 0.9222939159512663, 0.925772166546252, 0.9291666288094154, 0.9324222159936886, 0.9356856616248133, 0.9388741767582471, 0.9420600680461845, 0.9450888612513101, 0.9479923763178949, 0.9508836167481916, 0.9536982595070114, 0.956416906430585, 0.9590792763736788, 0.9616498603092842, 0.9641550836730075, 0.9665796101509432, 0.9689120578631787, 0.9711755115065658, 0.9733549376313225, 0.9754533472429252, 0.9774685066846261, 0.9794394465920058, 0.9812819647894412, 0.9829949604943156, 0.9846782571339132, 0.9862752209760713, 0.9878281197546545, 0.9892461356191861, 0.990566669676689, 0.9918158691866122, 0.9929781899300514, 0.994064175702345, 0.995049895266564, 0.995949533227598, 0.9967592330099446, 0.9974803910299451, 0.9980936456668907, 0.9986388142001973, 0.999102611819206, 0.9994647393529899, 0.9997362103807225, 0.9998915704996304, 0.9999842480182781, 1.0, 0.999905353806245, 0.9997190007140333, 0.9994093380859793, 0.999043354828676, 0.9985994984581851, 0.9980444898968385, 0.9973972037750508, 0.9966829624411546, 0.995848244301752, 0.9949293087642498, 0.9939126865463866, 0.992805815285466, 0.9915802898946631, 0.990296463987972, 0.9889255694951781, 0.9874578775587142, 0.9858993196265922, 0.9842675496426116, 0.9825260260952036, 0.9806940298071659, 0.9787751442818222, 0.9767677741383917, 0.9746280975269138, 0.9724503250117803, 0.9702141703859055, 0.9678533602912334, 0.9654059345880037, 0.9628298228758703, 0.9602160500438736, 0.9575400471477925, 0.9547490883835518, 0.9518738910915608, 0.9489356219991029, 0.9458913916055777, 0.94273145739582, 0.9395301219425158, 0.9362469660906587, 0.9328702865585248, 0.9294278085515117, 0.9259165637837855, 0.9223141033394102, 0.9186344860287271, 0.9148802052433685, 0.9110488356261099, 0.9071605197075282, 0.9031793214003441, 0.8991266990229956, 0.8950034808648836, 0.8908105286130288, 0.8865298192341727, 0.8822025031945222, 0.8778071648751287, 0.8733165644289753, 0.8687921845193565, 0.864239457307178, 0.8595793239628582, 0.8548579003772462, 0.8500857022737135, 0.8452437010585729, 0.840295323342139, 0.8353455441644682, 0.8303376656019202, 0.8252732039443811, 0.8201536563444048, 0.8149726218402031, 0.8097483288755016, 0.8044729134445838, 0.7991557693817363, 0.7937816334620309, 0.7883565831096755, 0.7828920875768025, 0.7773839675797422, 0.7718131825987287, 0.7662247607773406, 0.7606305978483313, 0.7549585609059195, 0.7492512568505735, 0.7435005264248464, 0.7377278020327782, 0.7319058968203915, 0.7260731171149793, 0.7202103970584969, 0.714309865085168, 0.7083932105299025, 0.7024429337159686, 0.6964774310618248, 0.6904890011248092, 0.6844808887959497, 0.6784513897616821, 0.6723630108441289, 0.666304507332653, 0.6602289963896315, 0.6541572983609357, 0.6480510391598276, 0.6419265116616256, 0.635802086609444, 0.6296700335806565, 0.6235446000843715, 0.6174005814061698, 0.6112733987090047, 0.6051242960475446, 0.5989771080603813, 0.5928031900767774, 0.5866675535132475, 0.5805376878971783, 0.5744118248817734, 0.5682933911165212, 0.5621933748238129, 0.5560931756915102, 0.5499518769402232, 0.5438848550129755, 0.5378301250407087, 0.5318368013029671, 0.5258060814104032, 0.5198302782615909, 0.5138369196693305, 0.5078682926298852, 0.5018465713902766, 0.4959403893428219, 0.49005286165473166, 0.4841957556446239, 0.4783651303209625, 0.4726051830857032, 0.46682698451968296, 0.4610508655284136, 0.4553450034644241, 0.449673245603864, 0.44403854811256854, 0.43843890104451627, 0.43288535710359755, 0.4273624153557263, 0.42188062549865063, 0.416449005096046, 0.41105190804921443, 0.4056761029094059, 0.4003728811606971, 0.3951152763086229, 0.3899438712761894, 0.38477599738555535, 0.37959472487194296, 0.3745382372112722, 0.36952139501049786, 0.36456558389372773, 0.35966082669371147, 0.35481622854166134, 0.3500161850378251, 0.345319979531474, 0.3406246676154394, 0.3359889638916275, 0.33137394507514856, 0.32686390743615645, 0.3224174714086023, 0.31802539400178503, 0.3136940400233208, 0.30942883329283827, 0.30522037853569023, 0.30107016759393757, 0.29698881542045047, 0.29297126143124175, 0.28900859074375684, 0.28512142863417395, 0.28126281435154826, 0.27751037450836524, 0.27382172074864136, 0.270200747303101, 0.26664141815912556, 0.2631291444389937, 0.2597046615637509, 0.2563460514913169, 0.2530538642648113, 0.24982857969430594, 0.24665484777158878, 0.2435665422856814, 0.24054531588392192, 0.23765301554709373, 0.23475920848798834, 0.2319131905203182, 0.2291649297767868, 0.22648615645628042, 0.22391459207004955, 0.22136965178428683, 0.21887385173600252, 0.2164736417084709, 0.21414245949079067, 0.21186742067513673, 0.20967505673351278, 0.2075564607249902, 0.2054980121937634, 0.20350692836266807, 0.2015198353928122, 0.1996704804561125, 0.19789497147614543, 0.19616997010409246, 0.19450856815068024, 0.19290591200896104, 0.19137187212732376, 0.18994317557415602, 0.18852905584085838, 0.1871795326173805, 0.18588917001447325, 0.18466731266732156, 0.1834698162566056, 0.18237644490172028, 0.18134175804184377, 0.18040160426697352, 0.17947842477090603, 0.17860355403711353, 0.17779961421864277, 0.17705270809788584, 0.17635418863451774, 0.17572003394842708, 0.175132241357129, 0.1746068185266271, 0.17413366734340063, 0.17370889825164307, 0.17333844907414572, 0.1730572073838577, 0.17278057495300028, 0.17255433434464815, 0.17232214648387062, 0.17220018645593935, 0.1721063065646258, 0.17207334554167666, 0.17208193258875767, 0.17214561069501058, 0.1722335111533152, 0.17241683655649043, 0.1725773533258614, 0.1727793723418745, 0.17300572546612253, 0.1732885626279505, 0.1735716423690088, 0.17393087457208734, 0.1743222012494563, 0.1747888785831539, 0.17523613350339146, 0.17567108342959037, 0.17618626794984205, 0.176728191077804, 0.17731326920975624, 0.1779036786172397, 0.17853786865760626, 0.17917447977824869, 0.17983474717277415, 0.18049688961459368, 0.18120321553094107, 0.18192350906814717, 0.18266675525162943, 0.18342628458777172, 0.1842010536854421, 0.18499001093703396, 0.1857652989357579, 0.18658283990063346, 0.18740987408289994, 0.18824712167204619, 0.1890903455246586, 0.1899137007184586, 0.19077322886212508, 0.19163627684761383, 0.19251627164418997, 0.1933822449165985, 0.19425171831735308, 0.1951203644358269, 0.19598906191384616, 0.19690252078198592, 0.19776251986028337, 0.19862841582993745, 0.1994854227526259, 0.20033966808141015, 0.20116301810335577, 0.20201117321811007, 0.20282125028502548, 0.2036559581623507, 0.20447890912372516, 0.2053303765420084, 0.2061224762427989, 0.20687771384486234, 0.20764864382859163, 0.20840439371267913, 0.20912366037136207, 0.20984921799743605, 0.21055288315719567, 0.21124073735582008, 0.21190841865341278, 0.21256004027029315, 0.21318492162688538, 0.21376910887627742, 0.21435215730409019, 0.2149110305730125, 0.21546571416500818, 0.21597211143492986, 0.2164728472410457, 0.2169270001337518, 0.21735626336895036, 0.21775036871094572, 0.21812865791550515, 0.21850128189606927, 0.21882068938136928, 0.21911238335085495, 0.21933620585973915, 0.2195752596710368, 0.21976021432641893, 0.219937703090564, 0.22008133174475367, 0.220194138097569, 0.2202692857583826, 0.22034503874562303, 0.22034746978146685, 0.22031740761709015, 0.2202275904143407, 0.2201345779048942, 0.21999998172036908, 0.21983706837202188, 0.21963824525137013, 0.21942708119808058, 0.21915322002191828, 0.21883509709147647, 0.21849257287510895, 0.21811424188648934, 0.21767792124069904, 0.2172304484571434, 0.21678033441839498, 0.21625395936924222, 0.2156924620717946, 0.21506258707449075, 0.2144346162169439, 0.21376774828438352, 0.21306555953367495, 0.2123264101928109, 0.21157260930074423, 0.21075746872905815, 0.20994201417706257, 0.20905257318294931, 0.20813026189413492, 0.20714182927034763, 0.20615758575621235, 0.2051683085570448, 0.20411060083646781, 0.20302019348986555, 0.20188298660987863, 0.2007292841839511, 0.19953933432657864, 0.19832017505367536, 0.19706843592166087, 0.19578452331656565, 0.19446886254419665, 0.1930777576362101, 0.19170552920401807, 0.19030518658080026, 0.1888675218145887, 0.18739894742593435, 0.18593963084914394, 0.18440650951351933, 0.182870561544572, 0.18128190416537746, 0.17966893000498704, 0.17802244891471017, 0.1763628925288371, 0.1746668298282421, 0.1729615622435949, 0.17123269064971922, 0.16945878892450728, 0.1676874436001511, 0.16591529466283506, 0.1640962703253332, 0.16225731645645622, 0.1604117046680933, 0.15853329225773022, 0.15668339623691374, 0.15476540348716236, 0.15283399881597673, 0.15087527264395825, 0.14891973839544673, 0.14697309222683766, 0.14498897681829304, 0.1429940983876693, 0.14099049489456975, 0.13897532601236504, 0.136943130822731, 0.13491125462757905, 0.13287099865982813, 0.13087983270756445, 0.12881782102757092, 0.12671500118405063, 0.12465214525678156, 0.12258490434699612, 0.12059601100749555, 0.11851193249291683, 0.11645562404008461, 0.11437360114058014, 0.11229593407460504, 0.11016599596588111, 0.10810468665141254, 0.10612087406009273, 0.10405450175568447, 0.10199590991488126, 0.09996427607132989, 0.09791971823100357, 0.09589921139424099, 0.09387291586136437, 0.09185801427579218, 0.08989585036351282, 0.08789969786368909, 0.08594216438177188, 0.08397318590613484, 0.08202103182172706, 0.08009220184494645, 0.07817357296045424, 0.07635336463349929, 0.07446100349565025, 0.07259201632687229, 0.07074469164903209, 0.06892237678616298, 0.06716903363062465, 0.0653876744262175, 0.06363267194198713, 0.06190719823253305, 0.06020467907714858, 0.05857951503556697, 0.05692472415918127, 0.05530032337243713, 0.05372682891432827, 0.05216079238574238, 0.050648740216892536, 0.049143880484482365, 0.04767253959031886, 0.04630578388526895, 0.0448929841912534, 0.04350255889378539, 0.042167818695892145, 0.04087003769368401, 0.03967400234553821, 0.03844250987729579, 0.037279095573390666, 0.0361266173119617, 0.03501672501647047, 0.033965025745385444, 0.03293795431900704, 0.03193686681368377, 0.030998649675357908, 0.030102898398625143, 0.029271999955988778, 0.028459389445544405, 0.02771363959687488, 0.02698807919758806, 0.026309112673392393, 0.02574469287780331, 0.025150899205658748, 0.024625499010091433, 0.024131378050077996, 0.02368889998623695, 0.023280527894153073, 0.02294302986905214, 0.022679519373136916, 0.022439895111479667, 0.022252341314079955, 0.0221437214877699, 0.022057164347186856, 0.021974073344249914, 0.022001693314876863, 0.022080401382008525, 0.02224378530545219, 0.02242192190613054, 0.022655993843534904, 0.022942825936233285, 0.02328447588419714, 0.023731581931332592, 0.024177079198995848, 0.024710783951384995, 0.025268814311216817, 0.025886450196317388, 0.02654443843188557, 0.027282735874692553, 0.02805984514365666, 0.0289159842712582, 0.029828799665404315, 0.03082054944400233, 0.03184448866111661, 0.0329347776343319, 0.03407465080480881, 0.03527343780419523, 0.03649483665418556, 0.037815916725421686, 0.039248957608664696, 0.040676916389644435, 0.04216529142096523, 0.04367918057930512, 0.04529213654416152, 0.04697243377459253, 0.048700085239662516, 0.0504863825245876, 0.052369170778090134, 0.054268000925539725, 0.05618189012842626, 0.058207728098476845, 0.06029115790021124, 0.06248902542362228, 0.06468072298954239, 0.06692394752419935