0.028151024240080997, 0.02765543445129964, 0.027258802445681424, 0.026854311371996488, 0.026490699940448465, 0.02614493024154809, 0.02584789886778915, 0.025608991757434377, 0.02535223639824805, 0.025114682707630412, 0.02488493696101051, 0.024678657660550767, 0.024381878425474193, 0.024209872715837123, 0.024040898488981402, 0.02390037502917849, 0.023734193081615507, 0.023619440419935484, 0.023456884281003284, 0.0233020300207001, 0.023120868144530116, 0.02298576553562962, 0.02278453616025941, 0.02267131965755866, 0.022561343465119763, 0.022421862519492984, 0.02232632910376734, 0.022354637061863487, 0.02225523033102745, 0.022170043867030056, 0.02204834839360644, 0.021998826482338182, 0.02199975245451627, 0.0219705930527889, 0.021957293305184655, 0.02183706412801132, 0.021872267739123555, 0.021989856723836458, 0.022037683187544243, 0.022102434095235976, 0.02225692215776574, 0.02234815891738368, 0.022270930053316013, 0.022431651086056402, 0.022604255910011674, 0.022879515121884544, 0.023069152128860525, 0.023224711212608877, 0.02346405452267904, 0.023722290803362536, 0.024055479296095257, 0.024346957885738416, 0.024603261003853724, 0.024951048869231444, 0.025320199492820036, 0.02577936788669171, 0.02618466467381923, 0.026634045413760472, 0.02709138245365116, 0.027576806147252778, 0.027954315809252946, 0.028512940327970512, 0.029185405798873833, 0.029774142524496967, 0.030390719292474427, 0.031022608214085163, 0.03169713863444386, 0.032289040855113305, 0.03303353059792937, 0.033800362385566225, 0.03455680407929182, 0.03537626080015618, 0.03631304398779146, 0.03716966220537177, 0.03805774958937769, 0.038926600983698885, 0.039884884403907236, 0.0408768461406629, 0.04189414742471618, 0.042942460768143655, 0.04414130231270999, 0.04523829741288709, 0.0462429347235804, 0.04743477185053257, 0.048644977886927766, 0.049901435825280324, 0.051189809093176636, 0.05260009337888662, 0.053943335253883506, 0.055232260055970955, 0.05666551763250633, 0.058132570266617146, 0.0596979082214563, 0.06122675772835222, 0.06270168664297777, 0.06432153212906194, 0.06597591771192228, 0.06764026527990855, 0.06936960566425253, 0.07114305929734253, 0.07294346741337637, 0.07478170096163227, 0.07671366316988343, 0.07862254802671594, 0.08056148245819729, 0.08255763854963741, 0.08459602981318043, 0.08666410731937736, 0.08878915889415856, 0.09087134035241962, 0.09309158852406688, 0.09534969656122336, 0.09771030774790848, 0.10003875228979961, 0.10237712751323572, 0.10479782893243042, 0.10726078826913577, 0.10972815288358113, 0.11228154968252764, 0.11485056881861952, 0.11748996215073226, 0.12017006871839905, 0.12297646127580283, 0.1257290095998205, 0.1284309260137948, 0.1312896557779154, 0.13418936846582813, 0.13710933186728283, 0.14009513248625746, 0.1431177501568355, 0.14618666193921312, 0.14929720247743722, 0.15250065997537343, 0.15568887814723972, 0.15885434021641587, 0.16214126791425781, 0.16546897665290924, 0.16882495155582056, 0.17223644524315734, 0.17579042278505633, 0.1792702223700426, 0.18279646248281822, 0.18637681437892192, 0.18999243246274705, 0.19354217827614745, 0.19726013215674493, 0.20101495153538526, 0.20480257513565645, 0.20863214159538757, 0.21253264214343717, 0.21643181149216292, 0.22036976723590254, 0.22424415609929443, 0.22827133928811902, 0.232377033421538, 0.2364622264000996, 0.24058240288308452, 0.24480527020522105, 0.24898598981589118, 0.25319182944341745, 0.25744893334740004, 0.2617413031409331, 0.2660851273071685, 0.27044347852947237, 0.2747167190384621, 0.27915684502156485, 0.2836222972996293, 0.28818960466706295, 0.29269613727771027, 0.29713872728548196, 0.30171525919657005, 0.30631437577938586, 0.31098695422337563, 0.31562440394067476, 0.3203079581146925, 0.3249916738671576, 0.3296998653053406, 0.33432958725276646, 0.33909663195348744, 0.34395165545987116, 0.34874092018136355, 0.3535495405660975, 0.35841479002106785, 0.36325440177752255, 0.36798091779817865, 0.37287305260312864, 0.3777738038904573, 0.38271695801764355, 0.38762994401169565, 0.3926290012969048, 0.397550764312869, 0.4024848303107054, 0.40742122103805223, 0.4123765556016941, 0.41728839827690173, 0.4222638258263834, 0.42724125737089486, 0.4321943297107414, 0.43717632602207307, 0.44227934606357094, 0.44724066204365875, 0.45220512268694624, 0.45714962071177984, 0.4621175311931824, 0.4670310444075152, 0.4719970705943486, 0.4769538811646075, 0.4818282553596588, 0.4867727218572764, 0.4917942856516224, 0.4966937337265675, 0.5015809998966415, 0.5064461754363064, 0.5113059325528347, 0.5161785838349412, 0.5209996078161887, 0.5258028826787071, 0.5305444107333303, 0.5353130362146489, 0.5399806103930113, 0.544708640663868, 0.5494056050383004, 0.5541729502054878, 0.5587932951744952, 0.5633100652094459, 0.5678842854621039, 0.572424005324464, 0.5769495821405789, 0.581414924135439, 0.5858994028503022, 0.5902844174117116, 0.5946340881442, 0.5988448307898754, 0.6031318475502337, 0.6074579942202845, 0.6116419342981725, 0.615783393175218, 0.6199063780796324, 0.6239552480884553, 0.6279205027883911, 0.631881855420645, 0.635792569010378, 0.6396854589886131, 0.6434871049562232, 0.6472280509417317, 0.6509249531650393, 0.654566400505225, 0.6581129080574061, 0.6616445484166125, 0.6651913794939242, 0.668589951858995, 0.6719298170603188, 0.6751372690702748, 0.6783644444839276, 0.6815798116856562, 0.6846652277565758, 0.6876852649949684, 0.6906769666502641, 0.6935578952524957, 0.6963169401554968, 0.6990701635253201, 0.7017509735502667, 0.7043755888936375, 0.7069071164811449, 0.7093266690815024, 0.7117146685547497, 0.7140250609526282, 0.716189372913965, 0.7183516127343217, 0.7205030961375618, 0.7224902825094426, 0.7243985178754887, 0.7261633922835797, 0.727919726962816, 0.729600016462596, 0.7311860780624091, 0.732687800115032, 0.7341219129562374, 0.7354520042856065, 0.7367318550995566, 0.7378887605686762, 0.7389624769493258, 0.7399947929156461, 0.7408947396169008, 0.7416652321005345, 0.7424047453590116, 0.7430232409385531, 0.7435926414867076, 0.7440724509659374, 0.7444414250579174, 0.7447447201982104, 0.7449911952030963, 0.7451087541421446, 0.7451377360724427, 0.7450440267414281, 0.7448997856440387, 0.7446647509432341, 0.7443391498089567, 0.7439232048779385, 0.7433704111570348, 0.7427803539999159, 0.7421574760647823, 0.7413759306855786, 0.7405066226069246, 0.7396260846607642, 0.7385718337195329, 0.7373409823927473, 0.7361318211042212, 0.7348335163499855, 0.7334805882264176, 0.7320013160997656, 0.7303472311475646, 0.7287083094658372, 0.7269793919769404, 0.7252550248236498, 0.7233375320441028, 0.7212747177112969, 0.7192022997081746, 0.7170452199879312, 0.7147533723665638, 0.7124360162564477, 0.7101611729645325, 0.7076591352262233, 0.7050818375898898, 0.7024082124451061, 0.6996836921713975, 0.6968155518221293, 0.6939489295044279, 0.6910041207886297, 0.6879993868342451, 0.6848998491170191, 0.6817778158329968, 0.6785259873247361, 0.6752057498240513, 0.6717413499964715, 0.6682961518681932, 0.6648697732438796, 0.66127402843979, 0.6576158894689279, 0.6537899047026676, 0.6500227144159002, 0.6462660835669709, 0.6423592252659411, 0.6383943177663778, 0.6343044972134588, 0.6302354322897357, 0.6261843924973585, 0.6219905507281996, 0.6177460584373426, 0.6134180200420903, 0.6090798374077421, 0.6046542795464049, 0.6002241464382887, 0.5957457391940626, 0.5912166359884038, 0.5866476651168316, 0.5819718535270434, 0.5773264730272847, 0.5726379272589276, 0.5679891707123386, 0.5632107419606377, 0.5583067211121758, 0.5534772062394534, 0.5486130807949876, 0.5438014721854912, 0.538863820057445, 0.5339026233625502, 0.5289191729894556, 0.5239147932677034, 0.5188696001844016, 0.5138301421278295, 0.5087854565665957, 0.5037100507626264, 0.4986206018565696, 0.49353985521755894, 0.4884241666779159, 0.48327045077879344, 0.4781433110334764, 0.47300898866228813, 0.4678606595657796, 0.4627180561244318, 0.4575812889559917, 0.452434017001785, 0.4472879977254846, 0.4421023813144153, 0.43696912062201576, 0.4318098658417396, 0.4266898014426161, 0.4215756693806911, 0.4165205433781514, 0.41141805664293013, 0.406253989125678, 0.4011924228395189, 0.3961444223044399, 0.3911588077413617, 0.3861382282667426, 0.38122058504422107, 0.3762357429756876, 0.3712806177461258, 0.3661988436236112, 0.36132550531802776, 0.3565903558991022, 0.35175174538506554, 0.34694742733994993, 0.3421317705776746, 0.3374052493513605, 0.3327264769592117, 0.32806986763305984, 0.3234519650626583, 0.3189633085001553, 0.3144155188236636, 0.3097964338364325, 0.30535952081909934, 0.30096473831569315, 0.29668592582363207, 0.29237108044886184, 0.2880391229913766, 0.28383542586087834, 0.27968047478941493, 0.2755969239319095, 0.2715409611654683, 0.2675432439252527, 0.2635958048447201, 0.2597047000858748, 0.2558624001618002, 0.2520879091591539, 0.24834660328785108, 0.244693629729582, 0.2410997611527508, 0.23757882232767547, 0.23410473434170959, 0.23073175940922386, 0.22737940496174383, 0.22409364398980391, 0.2208876361790056, 0.2177346987645439, 0.2145016383918946, 0.21150490827446172, 0.20856899731901013, 0.20577186897877142, 0.20295228187474398, 0.20021885798283212, 0.19753593161575358, 0.19492401839796983, 0.19240035337590303, 0.1899290249364097, 0.18753881797947308, 0.1852117013808055, 0.18295774850072627, 0.18078115558333774, 0.17867283476816403, 0.1766335005930991, 0.17467208250063726, 0.17278344744755889, 0.1709080407634835, 0.1691722225923277, 0.1674843093726958, 0.165889807519071, 0.16436386275803666, 0.16291108117094275, 0.1615226960309948, 0.16019116703047262, 0.15894365784252087, 0.157765092056947, 0.15675320008510932, 0.1557001800380872, 0.15468322169656878, 0.15378265273068162, 0.15295233047788107, 0.15216617252551115, 0.15147776738784835, 0.1509200700258688, 0.150357154235494, 0.1498638956967543, 0.1493840452257327, 0.1490340284391227, 0.14875180849030664, 0.1485278316314915, 0.1483665575120888, 0.1482630993454434, 0.14822581594678202, 0.1482149928435271, 0.14830218594226197, 0.148446465180879, 0.1487280356917686, 0.1489747017726993, 0.14916658073628025, 0.14954621863302248, 0.1500021569079034, 0.15047982730396858, 0.15100890262515967, 0.1516438446369773, 0.15226640989843143, 0.15284758083620276, 0.15358472038684037, 0.15436596520921259, 0.15527143554687958, 0.1561288314832151, 0.1569903636971289, 0.15794488553612127, 0.15894070302193383, 0.1600191890774158, 0.16108887826375948, 0.16219459102387027, 0.1633438273877832, 0.1645300497294304, 0.16570931555959795, 0.1669704999348763, 0.16830440348889586, 0.16961960256414524, 0.1709652003240957, 0.17225473494784938, 0.17366737218202047, 0.1751309000803109, 0.1765813021799685, 0.1780528802111398, 0.17957844847107518, 0.18108454408605396, 0.18261012614415065, 0.18415366910566083, 0.18571365981020266, 0.18721638286995126, 0.1888139064643074, 0.19054254245248453, 0.19213945000677157, 0.19374935749139585, 0.19532779234666545, 0.19696316420010343, 0.198548166658266, 0.20019878083789588, 0.20184827230431948, 0.2035891225566184, 0.20522159662763748, 0.2068551612206049, 0.20848798740781618, 0.21011831349586024, 0.21171470481743787, 0.2133387493863067, 0.214906968239951, 0.21651742235175525, 0.21811357037949403, 0.21963080107323515, 0.22120368286583514, 0.2228196322260349, 0.22434269466198176, 0.2258476767248768, 0.22738867244605435, 0.2288471268275204, 0.23030845798345137, 0.23172593776331646, 0.23312318124104625, 0.23437963363968833, 0.23574667665791993, 0.23718838578313084, 0.2384784949903575, 0.23974208752932402, 0.24101599144550662, 0.24221757304253044, 0.24328881648924527, 0.24444498332508438, 0.2455640780689244, 0.24666681056433648, 0.24770746497936577, 0.2486808537640324, 0.24964945330028596, 0.2505773577157252, 0.25156602577304554, 0.25239816357178574, 0.2531683284334683, 0.25392937494937323, 0.25464991880837207, 0.2552313111397835, 0.25588041978771, 0.25648937190092813, 0.25704010958278734, 0.25754264094067303, 0.25814124793911414, 0.2585286440083456, 0.25878623024010694, 0.2591023341353181, 0.25937023738196574, 0.259632033097876, 0.25979703393095777, 0.2598514235338312, 0.25993004851246543, 0.2599569817024577, 0.2598897452143901, 0.2598186665370548, 0.2596850159500651, 0.2595072035573658, 0.2592754902231792, 0.2590751790887003, 0.2587259258288168, 0.2583072445414497, 0.2578638818548967, 0.2573703722849251, 0.2568988174763654, 0.25629558796580515, 0.2555695885045456, 0.2548828385780038, 0.2541444559577721, 0.25334195223043127, 0.2525026998001436, 0.2516544005490521, 0.25070714158111884, 0.24971158008097263, 0.24858284993611696, 0.24750175276366732, 0.2464104948360778, 0.24521967301216363, 0.24398040692023082, 0.24264648087644067, 0.24131778145710928, 0.239977822816935, 0.23854624103032293, 0.2370691481365799, 0.23559384046818901, 0.2340215444294222, 0.23239962780253312, 0.23074640638597385, 0.22905214965961365, 0.22729181662478867, 0.2255200999069707, 0.22369465740067632, 0.22184337767767356, 0.21995199601513338, 0.2180766581679677, 0.21610086329102304, 0.21412907660501668, 0.21208049459153552, 0.2100008813075347, 0.2078225740721567, 0.20569049258912356, 0.20346951735319885, 0.201278173962565, 0.19905225802367785, 0.19682304926802655, 0.19452880897600894, 0.19224437537140518, 0.18988961532218687, 0.1875108939829893, 0.18507506959671002, 0.1826552793400171, 0.18019524951156776, 0.1777323173165026, 0.17524758672866644, 0.1727168971785571, 0.17019574913518268, 0.16761705382707945, 0.16506357523905932, 0.16249152896033972, 0.1599535846324293, 0.1573429708304989, 0.1546535595328066, 0.15203096555990508, 0.14939590215552967, 0.14686469407823544, 0.1441950177142273, 0.1415197579321464, 0.1388484722807602, 0.13617672691791868, 0.13354343534225746, 0.1308680336162739, 0.12812854192802456, 0.1254699941191287, 0.12281259780125904, 0.12014480259905289, 0.1174948907798208, 0.11502737764928839, 0.11236415138637748, 0.10971743999971012, 0.10697234289798738, 0.10437269758206574, 0.10179995684112986, 0.09921912976706516, 0.0966514483149571, 0.09413189368113424, 0.09158921281244034, 0.0891453207991501, 0.08662934472320377, 0.0841375172268575, 0.08174222409644505, 0.07929018603649275, 0.07689690958596847, 0.07449904195678117, 0.07213176885425167, 0.06971429173340025, 0.06741828807196418, 0.06522070624241919, 0.06296892450565467, 0.06074929181110245, 0.05868537801591498, 0.05651568951875902, 0.05427598479045444, 0.05220070973676657, 0.05011229141580108, 0.04811088915956809, 0.04614206385063947, 0.04442791280037974, 0.0424998975533494, 0.04050992013764378, 0.03869215256543447, 0.036915486687488945, 0.03528241900263555, 0.03357673913184876, 0.0319068659833923, 0.030299697644931976, 0.028740076698010014, 0.027223868455851508, 0.025760290606732156, 0.024488993266651365, 0.02310319011217646, 0.021774044103565662, 0.020509288718666356, 0.01929026320902634, 0.018198780351638015, 0.017080894273870818, 0.01602173542493136, 0.01498657796994699, 0.014047103683962257, 0.013230652211565665, 0.012392654789975624, 0.011613514824793711, 0.011007469351764906, 0.010330294075583779, 0.009602692060368546, 0.009067480642752855, 0.008588147455002599, 0.008245607816135082, 0.007868473012852506, 0.007671385428723607, 0.007401049817591065, 0.007197835181809451, 0.007043585570816622, 0.006973451489307756, 0.00697926341391574, 0.007033380597269345, 0.007150436513469103, 0.007380957288258469, 0.007616190142293945, 0.007741969966083401, 0.00812801508863171, 0.008567841973092457, 0.009134627363578575, 0.0096756769891295, 0.010323885528932049, 0.010979993409395506, 0.011699347758322303, 0.012553863062183925, 0.013389712151007153, 0.014262313101686666, 0.015234090597156892, 0.016269162088436467, 0.017375618373055984, 0.01853502393232555, 0.01974434084315719, 0.021030281473617067, 0.022377416074994567, 0.02373028611927843, 0.025206086164562092, 0.02678175933670886, 0.028367187224059467, 0.03001275454748822, 0.03172671116645173, 0.0334907357406239, 0.035310360883759426, 0.03719427364066477, 0.03913710152628493, 0.041155516637542695, 0.043213058526434124, 0.045376208443290475, 0.047545119571836145, 0.04977457045973895, 0.05200848978915986, 0.05436350597398664, 0.056769312986266945, 0.059234672124094966, 0.06175426751186885, 0.06434481239376082, 0.06696987398669098, 0.0695812564990666, 0.07232300519843829, 0.07511426335221977, 0.07804854502376958, 0.08092711754327073, 0.08375422374700911, 0.08675480091519647, 0.0898024207275226, 0.09296084676632048, 0.09609455808883606, 0.09930005001408258, 0.10253149164631808, 0.10581334286839163, 0.10914053713900378, 0.11252131822168607, 0.11599237949556997, 0.11946268926469779, 0.12298179640446859, 0.12641700691499938, 0.13004738656806525, 0.13370356599031796, 0.13741284692980754, 0.1411602724733304, 0.14495447248395424, 0.14877742898164198, 0.1526264148571717, 0.15652836002105305, 0.16046797120221218, 0.1645300366967979, 0.1685336744147609, 0.17242190528845688, 0.17652794257932386, 0.18066496446514357, 0.18492677192136928, 0.18911487142695263, 0.19327193398568837, 0.19754176190617526, 0.20184326616436182, 0.20615079900529834, 0.2105183377759683, 0.21500467557579578, 0.21942000915149726, 0.22386965018496913, 0.22837388408551643, 0.23288663068323678, 0.23739389572695055, 0.24197595747457523, 0.246586640722166, 0.25124232786687606, 0.25590628498508117, 0.26057677041109567, 0.26529822296642275, 0.2700448242391605, 0.2747396035944056, 0.2795446427126658, 0.2843265320175269, 0.28917570427585026, 0.2940419539308509, 0.2989977962575632, 0.30388987078129515, 0.308846159155631, 0.31377577559797715, 0.31872839522755614, 0.3236478954764111, 0.32865084648103127, 0.3336244006331908, 0.3386675826350198, 0.3437247773642399, 0.3487237694359519, 0.35381805259527016, 0.3589645869957102, 0.36407345266858915, 0.3691951749722266, 0.3743380952050036, 0.37948394199544405, 0.38468499015950486, 0.38985055273698793, 0.39503047908929617, 0.40010932832454776, 0.4053302623480084, 0.41056969046319497, 0.4158007530387598, 0.4210386640034689, 0.4263046191006141, 0.4315533472672482, 0.43683528988073483, 0.44209586699466524, 0.44736481373497244, 0.45266698856157195, 0.4579475751049688, 0.46312141106954763, 0.4684315781516244, 0.4737416745672798, 0.4790731225108936, 0.4843808554220507, 0.48972399465478494, 0.495030060041603, 0.5003389816333929, 0.5056289550464197, 0.5109445826324709, 0.5162729328134865, 0.5215865232619129, 0.5269000232798361, 0.5322511458406197, 0.5375580774081673, 0.542763561755301, 0.5480835632595018, 0.5533967359142116, 0.5586394309281126, 0.5639471404497053, 0.5693676387398715, 0.5746393648456173, 0.5799082738711455, 0.5851480629312734, 0.5904121439184581, 0.595554926323144, 0.6008197695196584, 0.606117238929273, 0.6113483623998706, 0.6165686698082736, 0.6217227308282922, 0.6269277163695672, 0.6321732456301539, 0.6373419972428104, 0.6424992911039722, 0.6476913457749525, 0.6528182749105785, 0.6578540861448582, 0.6629694754893184, 0.6680681060763791, 0.6731879969649545, 0.6782475896479396, 0.6832535548338958, 0.6882865310031245, 0.6933006517741169, 0.6982148597001917, 0.7032003940151305, 0.7082505977787529, 0.7131759814262061, 0.7180821287382004, 0.7229046008309761, 0.7277781716225021, 0.7325757989931645, 0.7374056740377218, 0.742207251357343, 0.7470485861763918, 0.751785141361979, 0.756446214192427, 0.7611394691784393, 0.7658038909842992, 0.7704051671569777, 0.7750151768977384, 0.7796145405823008, 0.7841578918054407, 0.7886700729451578, 0.7931973009331881, 0.7976396683569189, 0.8020221190935276, 0.8064069014221372, 0.8107578920766318, 0.8150191684228151, 0.8193074467124506, 0.8236076778863985, 0.8278111842407264, 0.8319779014753844, 0.835996575331923, 0.8401012521387146, 0.84426671554793, 0.8482672287814373, 0.8522283534527972, 0.8560344243477559, 0.8599283754547261, 0.8637608972997618, 0.8675590923160513, 0.8713077956994654, 0.8749559520443945, 0.8786117825989459, 0.882333692401667, 0.8858688431219424, 0.8893578551541003, 0.892684942719298, 0.896092926509256, 0.8995088530351858, 0.9027971351713115, 0.9060329382759157, 0.9092579632969298, 0.9123810962847697, 0.9154262929840314, 0.918446615265738, 0.9214108287404932, 0.9241948938827725, 0.9270599226503818, 0.9299273731588461, 0.9326528903579258, 0.9353169068225329, 0.9379103394215429, 0.9404506456200245, 0.9428676827201499, 0.945287339012596, 0.9476386958165671, 0.9499895894107149, 0.9521952921386554, 0.9543104251334842, 0.9563883182865353, 0.958397983808213, 0.9603048155934648, 0.9621804475952385, 0.9640477789724711, 0.9657709571478899, 0.9674249402668631, 0.9690385316892033, 0.9705476107675252, 0.9718717967193865, 0.9732539230410855, 0.9745573702060072, 0.975867089659939, 0.9770023604786495, 0.9781102627096896, 0.9790905950216868, 0.9799978225262655, 0.9807076345297842, 0.9814809509207422, 0.9821116732159895, 0.9827263768855596, 0.9832547974792991, 0.9838928324129266, 0.9842253670314934, 0.9844498031730347, 0.9846370671923196, 0.9847457645827054, 0.984609412198622, 0.9845795505385856, 0.9845827859282625, 0.9843578916658711, 0.9840511672499013, 0.9836876396943777, 0.9832126938006351, 0.9825074161227343, 0.9818874120966208, 0.9811763814959935, 0.9805747458619283, 0.9796586395249691, 0.9785245775961602, 0.9774695650088192, 0.9763268886186043, 0.9751180990591, 0.9737983202346225, 0.972465152828527, 0.9709651236956629, 0.9693837268539305, 0.9676822606891498, 0.9659416365458807, 0.964061117839646, 0.9621582101543514, 0.9601677201595553, 0.9581369600676709, 0.9559671295709629, 0.9537480102302333, 0.9514074900312588, 0.9489859423363267, 0.9465342899285046, 0.943944155047939, 0.9411824453613725, 0.938447614785903, 0.9356289879644788, 0.9327739809547055, 0.9297839206791179, 0.9267062579157318, 0.9235593755609637, 0.9203335958614851, 0.9170421487705269, 0.9136584601023418, 0.9100834678807276, 0.90656155198243, 0.9029576201605002, 0.8993029114414494, 0.8955356264154354, 0.8917220302164328, 0.8877999645590553, 0.8838056463782934, 0.8796889012402671, 0.8755589426137653, 0.8713988078366129, 0.8671194373322664, 0.862772303644057, 0.858332792131749, 0.8538559949166695, 0.8493084415274503, 0.8447003100775984, 0.8400277199516659, 0.8353088396385194, 0.830508712873622, 0.825631617393699, 0.8207147266533615, 0.8157390109660506, 0.8107014446356555, 0.8056122875970465, 0.8004550064027229, 0.7952579751727938, 0.790007404204414, 0.7847429136409507, 0.7793845921152615, 0.7739917754274354, 0.7685384393201622, 0.7630407679902754, 0.7574870672004435, 0.7519055333769541, 0.7462737438416145, 0.740611052256924, 0.7349087266823893, 0.7291639277517754, 0.7233871124348055, 0.7175662008259378, 0.7117207465773849, 0.7058422007123989, 0.6999278910646357, 0.6939884272055757, 0.6880203640880036, 0.6820253162695759, 0.6760048965612767, 0.6700116914206464, 0.6639389183486888, 0.6579036924825145, 0.6517897904845803, 0.6455490793422742, 0.6394263054555572, 0.6332867950663272, 0.6270942844008408, 0.6209320010432419, 0.6148076089284418, 0.6086148913587258, 0.6024162412156077, 0.5962472852679952, 0.5900374017674143, 0.5837816893372396, 0.5775808717044001, 0.5713810850130748, 0.5651373985617274, 0.5589509469002486, 0.5527214979378419, 0.5465505198190944, 0.5403847962213365, 0.5343243842870903, 0.5281637825521591, 0.5219782112111542, 0.515859290718224, 0.5097581000054977, 0.5036805590651852, 0.49761928038894265, 0.4915724119111096, 0.4855595820258664, 0.47957228875496094, 0.47365460683531696, 0.46771777881436194, 0.4618050901776341, 0.455935790413672, 0.4501010375558814, 0.44418742931322325, 0.4384401486602226, 0.43283530888808325, 0.4271402785432758, 0.42148777319468356, 0.41587465991680644, 0.41031109986952424, 0.40472524215852146, 0.3992627923823803, 0.39384455686997144, 0.3884934996508485, 0.383166109455069, 0.3778975849814353, 0.3726712133334085, 0.3674983565702476, 0.36232925104187247, 0.3572734753822042, 0.3523611129611899, 0.3474040161998086, 0.3425091418860368, 0.33762619327609344, 0.332864264637776, 0.32819352848005, 0.32355189588275546, 0.3189756303171002, 0.3144145781867405, 0.30997794544462154, 0.30568696211447144, 0.3013712018460187, 0.29712724152559067, 0.29281532352869744, 0.28873397590392436, 0.28476461447185064, 0.28080947654069505, 0.2769252854112088, 0.2730790258589489, 0.2693438610112225, 0.2657611501434444, 0.26216031834618375, 0.25863776776376995, 0.2551767312632233, 0.2518135656163248, 0.2485284009044236, 0.24532159285046032, 0.24219347341791475, 0.23913160655101143, 0.23616337341192797, 0.2333079440775415, 0.23049338940360206, 0.22776019098119615, 0.22509134055909805, 0.2225229491719911, 0.21999666566541762, 0.21759388657955306, 0.2152694742645864, 0.21296430954450118, 0.21080513599210915, 0.20873034161207452, 0.20672249689791503, 0.2047921671049986, 0.20299916364591658, 0.20121727492588629, 0.19951699011024657, 0.19789791278517088, 0.19635963082703065, 0.1948634845773044, 0.19349032348136516, 0.19219872061581822, 0.19097946695433385, 0.18983735195750318, 0.18876355720024637, 0.18777577821501126, 0.18683806549080434, 0.18600422561173785, 0.18524367791397062, 0.1845943704428825, 0.18397465444298397, 0.1833486117864708, 0.1828870791740889, 0.18249380562008963, 0.1822875541210105, 0.18201512755466231, 0.18175734092314655, 0.18163924463831302, 0.1815891427293759, 0.18155945283538943, 0.18164865133775876, 0.18186003842505977, 0.18206658976802173, 0.18233799574393822, 0.18264333953889025, 0.18304466694054378, 0.1835650970134999, 0.1840772168176108, 0.18465036574803007, 0.185227822925202, 0.18592554548870982, 0.18663005741960392, 0.1874397390086844, 0.1882983142661034, 0.18927307050453912, 0.19021872369703824, 0.19121906435248748, 0.19226361544465334, 0.19335596308468211, 0.19444791472858763, 0.19563737438472323, 0.19679966837548815, 0.19807825263788792, 0.19939164093757616, 0.20079445053399417, 0.2021685456197949, 0.20363789788212652, 0.20507471656834259, 0.2065479769440666, 0.20795812896766333, 0.20951112174995648, 0.21106416235667133, 0.21267049965229456, 0.21429897911140824, 0.21606767264561513, 0.2177227133714604, 0.21929754138553584, 0.2210159419659299, 0.22275035751116587, 0.22462291438678583, 0.22637054506236703, 0.22805280816622386, 0.22984816799702631, 0.23165405121314264, 0.2334436268476144, 0.2352697363123407, 0.23712211325083474, 0.23895442492072153, 0.240790588397067, 0.24256548785090484, 0.2444132162566132, 0.24637596349355312, 0.24819992292030757, 0.25002480143173894, 0.2518826257533237, 0.25369924959764517, 0.2553856075858266, 0.25721065879525074, 0.25902176766158597, 0.26076713386536254, 0.26255427639796525, 0.26435597940191147, 0.2660994338758367, 0.26782419773250116, 0.26965673259719614, 0.2713250489660213, 0.2729278455443492, 0.2745714454827252, 0.27619360980294544, 0.2777886459864255, 0.27936418798383006, 0.28091810509655113, 0.28244008523458625, 0.28393390842771415, 0.2853006305087434, 0.2867468016561172, 0.288232176975382, 0.28959381617334723, 0.2909217274995179, 0.29214686292473285, 0.29341269509786794, 0.29462508214568073, 0.29581067294381147, 0.29715780679646886, 0.2982324882563337, 0.2992753819730857, 0.3001611718261605, 0.30114986061310395, 0.3021874377834652, 0.30307453538296, 0.30392103854903546, 0.304585404182067, 0.30536446421820895, 0.30605731465246067, 0.3067362897869054, 0.30736122187245746, 0.30796209336133057, 0.3084758493802842, 0.3090524589406419, 0.3094478553859223, 0.3097974746569333, 0.3099939920238198, 0.31026220856626074, 0.3105988087098219, 0.31074186725823444, 0.3108370713105412, 0.31078572533025317, 0.3107947039431919, 0.3108199079234545, 0.31070788625212375, 0.31054413733883557, 0.3102262294764247, 0.3099705399136632, 0.30968165081499316, 0.3093059030825123, 0.3088739324182613, 0.30832652297360136, 0.30779038420729227, 0.3073016336736684, 0.30663517691418973, 0.3059172694785422, 0.3051816649428156, 0.3043559372621602, 0.30348017296638696, 0.3025540580982669, 0.30157736918165395, 0.3005542149911189, 0.29947550227894904, 0.2982698054685986, 0.2970997628694966, 0.29587506862032026, 0.29451155736621865, 0.2931906604992917, 0.29187638873168326, 0.2904346807556081, 0.2889422255251541, 0.287336048874168, 0.2857523787478937, 0.2841378332114241, 0.28244848601342337, 0.28071062753992576, 0.279112111647025, 0.27725641360034203, 0.2752210330052806, 0.27331246674293547, 0.27135947335352456, 0.2693119505792858, 0.26727916563378434, 0.2652909188799777, 0.2631588092722837, 0.2609895707050499, 0.2586944840498715, 0.2564637799582585, 0.2543157477838215, 0.25198979092233614, 0.24963289863378219, 0.24720712253828353, 0.24479412984516147, 0.24230243660028364, 0.23983223900429732, 0.23732914473642328, 0.23474769493484612, 0.23218849744572462, 0.22972071158000326, 0.2270839719604011, 0.22442548318088656, 0.2216947534510828, 0.21900073438652976, 0.2164112075511174, 0.2136562849910113, 0.2108877713251678, 0.20796557123066592, 0.20518798538179253, 0.2024023216728683, 0.19958305057373651, 0.1967467673360443, 0.19391609374596613, 0.19104722356761694, 0.18820484004571694, 0.185308791411107, 0.18240543367742565, 0.17944463164380964, 0.17653565710017718, 0.1736276366513397, 0.17070385511479252, 0.1677756846199529, 0.1648910853331726, 0.16195191561673186, 0.15897640791549694, 0.15604667545614767, 0.15311835908850793, 0.1502223817117673, 0.14729668829635242, 0.1443733566930867, 0.14146233011194606, 0.13855951235926708, 0.1355596813773217, 0.13268963976750814, 0.12986726752635255, 0.12700407718662252, 0.12415203779854395, 0.12130395043213359, 0.11847913073765551, 0.11567298601692205, 0.11287771690084916, 0.1100995333781282, 0.10736927944788513, 0.1046247975321176, 0.10191928094969463, 0.0992173654120853, 0.09653991090276091, 0.09385781027164597, 0.09123493522197884, 0.08867500578086435, 0.08609762634504287, 0.08354888361606072, 0.08102082787113296, 0.07853208642925427, 0.076111417480544, 0.07367817710744713, 0.07127822562263424, 0.0688142007961535, 0.06649422976633347, 0.06428388360081755, 0.06201274473178689, 0.05977738447487365, 0.05753572867564274, 0.055378521895498314, 0.05326869819734827, 0.051179929575899244, 0.04912801654298465, 0.04712629215714626, 0.045148222896606534, 0.043103222385584686, 0.04121752530702489, 0.03936594870092624, 0.03760495649422833, 0.035818242839682726, 0.03403813875997155, 0.03233737106550667, 0.03067617729871318, 0.029089200556901038, 0.02750476842294049, 0.02604005554656095, 0.02453266351702203, 0.023073184286015264, 0.021584691593716, 0.02022936773355373, 0.019018380601350176, 0.01773523787055357, 0.016500756567756198, 0.015331327113010955, 0.014190282698051341, 0.013080247351263187, 0.012036787874192633, 0.011039306052010452, 0.010028015083047096, 0.009129085626276076, 0.008305906368824915, 0.007486442728797992, 0.006711063796401578, 0.005954147096292205, 0.005269746012235064, 0.0045680960121818786, 0.003975696026769441, 0.003422219269816092, 0.0030015603543402953, 0.002515342902764415, 0.002057348160394227, 0.001663133972229573, 0.001312051530289755, 0.0010249363266631726, 0.000756215052686865, 0.0005900596873878675, 0.00039941742986882993, 0.0002540360019836071, 5.941508475253209e-05, 1.3297476567956927e-05, 0.0, 2.843667949124531e-05, 9.341651071730876e-05, 0.0002457347342130874, 0.0003767705948250932, 0.0005805169687937769, 0.0007839896646316873, 0.0010606498900799046, 0.0013372632220559485, 0.001653087126963773, 0.002002708039572554, 0.0023940592149426067, 0.0028508113928747956, 0.003308779384395586, 0.0038022127322254397, 0.004308754857977303, 0.004872513498524862, 0.0055820616904419945, 0.006192727615539858, 0.006839377838609465, 0.007528839174052965, 0.008241505807387611, 0.009011486860286497, 0.009783194828560552, 0.010585479444826055, 0.011433925683940992, 0.012291099683551118, 0.013260842676484846, 0.01416123344687184, 0.015091564914564462, 0.016033067711132786, 0.017020250227031405, 0.018120739773562884, 0.019143621685146776, 0.02019325468625828, 0.02122539287667696, 0.022328758679233073, 0.02357484455573326, 0.02470070495357269, 0.02585109623487842, 0.026998682338247836, 0.02819598913231564, 0.029475081922091244, 0.030699301448145585, 0.03194293204823162, 0.03329793754461456, 0.034564247681185434, 0.03586389925528803, 0.03716793416638907, 0.038489756005705825, 0.03987449508902411, 0.04122136040778867, 0.0425843280123004, 0.04396187355105644, 0.045352636627790155, 0.046861600077129695, 0.04826185868760528, 0.049610062298992876, 0.05104901702999334, 0.052496825767358125, 0.054037644618170864, 0.05549010387153796, 0.056924301334485256, 0.05840221850723175, 0.05988758839898383, 0.061456137885009844, 0.06294462642512273, 0.06437918307492833, 0.06589417955544014, 0.06741327944881195, 0.06896161700899812, 0.07048468627630337, 0.07206757982778253, 0.07359242973509565, 0.07512415431350007, 0.07663223832694184, 0.07817923052932432, 0.07982282839448387, 0.08136403587808157, 0.08291313612377074, 0.08449467238776402, 0.0860536310591772, 0.08759821155189654, 0.0891727756908591, 0.0907515232196173, 0.09223634729462779, 0.09383467296266836, 0.09551565732781257, 0.09709922646669385, 0.09868638831375089, 0.1002642185032248, 0.10185968505259382, 0.10342364985514224, 0.10502843463220539, 0.10663393639970314, 0.10828301419979894, 0.10988570738128346, 0.11156057325267421, 0.11316309398276594, 0.11477368719583421, 0.11633666134785742, 0.11796907335432283, 0.11958410011893746, 0.12122715215684422, 0.12287337888154373, 0.12457421070974199, 0.12622170604967756, 0.12790208330170838, 0.12956118563658978, 0.13122924481123466, 0.13283398075467123, 0.13452895467419873, 0.13623308283888283, 0.13793803600930238, 0.13964952176036338, 0.14137242114914783, 0.1430983241872357, 0.14479463753208943, 0.14654322976597495, 0.14829946196561775, 0.15008969949698345, 0.1518605854912393, 0.15367280228242278, 0.15546369292360487, 0.15726899414208928, 0.159097536972193, 0.16093162262852898, 0.1627731984848689, 0.16464068578373833, 0.1665244272900434, 0.16835694586690078, 0.17028327609967406, 0.1722533066338076, 0.1742048981363032, 0.1761742526311749, 0.17813238744873067, 0.18014327248188575, 0.18214698561562967, 0.1841986817251953, 0.186269139805389, 0.18834245763609186, 0.190455799180182, 0.1925518213540259, 0.19471289143922751, 0.19689481205536744, 0.19912433784624173, 0.20134845339404872, 0.2036026513402117, 0.20587872913992442, 0.20818250353235043, 0.21055717959717976, 0.21291312997436704, 0.2152078135861277, 0.21764026995583924, 0.22010032564237475, 0.22264006856070967, 0.22515214401138356, 0.22761284728003484, 0.23020333716294844, 0.23282364338708886, 0.23555989906051095, 0.23823253367128458, 0.24086231053602233, 0.24362110309198381, 0.24641373436284808, 0.2492921102734045, 0.25214870108590454, 0.2549851202451209, 0.2579281652938534, 0.26090784613225665, 0.2639589595908637, 0.26700999536222914, 0.2701867944346648, 0.27330907175234537, 0.276477653473751, 0.27961574079225426, 0.2828856599883894, 0.28613731858609737, 0.28949764527135574, 0.29289675388809433, 0.29637801532814734, 0.2998519077262753, 0.30330567407511133, 0.3068751197746894, 0.3104851810110124, 0.3141791102347613, 0.3178672644745692, 0.3216344646977189, 0.32540863581047075, 0.3292301253814432, 0.33308180320817854, 0.3369996705212455, 0.34095926163996015, 0.34496962501187506, 0.3490257369273114, 0.3530978794756822, 0.3572492784572443, 0.36141076141366807, 0.36565478235725035, 0.36994129365093764, 0.37425791482240933, 0.3786320267966171, 0.38309549329922665, 0.38754919246802466, 0.39204854278509893, 0.3964743166415984, 0.4010791254011988, 0.4057219845347017, 0.41040349792591607, 0.41512412879622307, 0.4199564252378825, 0.4247470444877607, 0.42947529364494746, 0.4343664201693497, 0.4394046908258374, 0.4443554916110196, 0.44934954527669135, 0.4543732212978171, 0.4594527368261415, 0.46447019460276334, 0.4696416087756465, 0.4748456308949165, 0.48009077472510003, 0.4853588766259319, 0.49062154791428286, 0.4959597134849018, 0.5013277106076446, 0.5068145245893438, 0.5122301383021679, 0.5176158991020899, 0.5231060679235943, 0.5286240692524198, 0.5341649474604209, 0.5397369675559549, 0.5453087955306466, 0.5509337879235799, 0.5565809121634042, 0.5622876638498311, 0.5679719424170419, 0.5737205683955096, 0.5794419791121991, 0.5851851588486792, 0.5909527501633294, 0.5967341434024235, 0.602460595961544, 0.6082841014483494, 0.6141177200204297, 0.6199137816759211, 0.6257706480861194, 0.6316872327985248, 0.6375453842979776, 0.6434095908305727, 0.649210543576372, 0.655091404251467, 0.6609916545128198, 0.6668652737915085, 0.6727364372178677, 0.6786464335116772, 0.6845036947671103, 0.690335931053923, 0.6961866402630262, 0.7020290445935092, 0.7077129824310915, 0.713553100046698, 0.7194272820632882, 0.725217761461428, 0.7309893401062559, 0.7368046442548692, 0.7425270126996396, 0.7482135675543069, 0.7538986300804504, 0.7595603058363256, 0.765196939613697, 0.7708068684564436, 0.7762524908517988, 0.7818211834689006, 0.7873505198063474, 0.7928186712418893, 0.798270075182548, 0.8037382349344264, 0.8090959010307143, 0.8144124920039394, 0.8196100533839014, 0.8248496491324275, 0.8301582426385119, 0.8352819478891506, 0.8403603573659039, 0.8453191551225928, 0.8503098426006127, 0.8552789916277568, 0.8601529472625736, 0.8649704721283937, 0.8697638252147671, 0.8744590321195217, 0.8789883848368996, 0.8835757481792832, 0.8880936308583526, 0.892575009445706, 0.8969465536666302, 0.9012006035953131, 0.9054350820958834, 0.9095932892914496, 0.9137293792920826, 0.9177248120475935, 0.9216055100282934, 0.9254511438180584, 0.9292149083142504, 0.9329295296278071, 0.9365214807363621, 0.9399872021552003, 0.9434154817019524, 0.9467545821662285, 0.9499311641590085, 0.9530976545357932, 0.9561632740084078, 0.9591365026030065, 0.9620116961681034, 0.9648816636172333, 0.9675469851225201, 0.9700664594131304, 0.9725469531401348, 0.974926723321761, 0.9772302671937118, 0.9794024075386377, 0.9814893090120463, 0.9834536841306885, 0.9853145141272178, 0.9869261656262253, 0.9885946098759072, 0.9902626572510703, 0.9916865499827757, 0.9930019589658607, 0.9940634973919217, 0.9951773719177369, 0.9962568832502686, 0.9971217202746724, 0.9978725992229187, 0.9985174983967102, 0.9990378483591839, 0.9994347132354008, 0.999725623327646, 0.999900027290235, 1.0, 0.9999348344082751, 0.9996779511676274, 0.9993912780120913, 0.9989838036062999, 0.9984853571863266, 0.9978327943550709, 0.9970783524252561, 0.996185744563414, 0.9951749441116949, 0.9941052011136847, 0.9928498897647275, 0.9913985150657465, 0.9899221632061932, 0.9883249629750887, 0.9865477695230239, 0.9847173854052583, 0.9828870340704684, 0.9807956245498078, 0.9785896605766222, 0.9762349667778744, 0.9738037149959153, 0.9712982017652276, 0.9686284667856035, 0.9658451635788744, 0.9629526688192727, 0.9599421700133632, 0.9567255436264466, 0.9535018656885077, 0.9501610558810353, 0.9467213664514809, 0.9431479050254429, 0.9394917227597511, 0.9356906639057145, 0.9317809758210281, 0.9277507715000263, 0.9236280496982666, 0.9192967336947622, 0.9149746979114031, 0.9105424946592228, 0.9061082811079557, 0.9014481224993396, 0.896748896661599, 0.8918850596733291, 0.8869279155247887, 0.8817505847247031, 0.8766247244074243, 0.8714683776867417, 0.8661389203209942, 0.8607185925929791, 0.8551789503151229, 0.8495845583790171, 0.8440035796645692, 0.8382208830646896, 0.8323586967192836, 0.8262904432854362, 0.8202880811770155, 0.8143591588407906, 0.8081716601183105, 0.801913611675997, 0.7955094184208756, 0.7891226679108513, 0.7827192768219552, 0.7761836561916582, 0.7695829711246366, 0.7627912244846307, 0.7560809165413128, 0.7493666480689277, 0.7425155971493788, 0.7356057155359895, 0.7286730130839442, 0.7216472618150996, 0.7144687421490599, 0.7073560193665823, 0.7001521193643718, 0.6929410119614421, 0.6856800929351584, 0.6783552227524519, 0.6710052913863209, 0.663770051704172, 0.6563180246700194, 0.6488377276716505, 0.6413389711857334, 0.6338050943189665, 0.6262136476624344, 0.6186383872146318, 0.6110406952532408, 0.6034649617268544, 0.5958227974270314, 0.5880304680619207, 0.580378669318866, 0.5727083588819414, 0.5650521241709576, 0.5573494998617425, 0.5496680691582877, 0.5419469742001853, 0.534223713148245, 0.5264918510088894, 0.5187715114889536, 0.5110334628845701, 0.5033249877717162, 0.49562307391750765, 0.48791723926083347, 0.48023680890189013, 0.47255616247324617, 0.4649046628123193, 0.45726946130863516, 0.4497547909482763, 0.4421460968925635, 0.43458736621134014, 0.42703475836474364, 0.4195147746236744, 0.41195221989097364, 0.404511019237709, 0.3970978961150685, 0.3897239400198534, 0.38238615059220826, 0.3750823039494346, 0.36782341995233764, 0.36057669076965226, 0.35340729545715766, 0.34628198003516736, 0.3392453333397455, 0.33220906952599916, 0.3251616828699516, 0.3182402427365216, 0.3113709595906171, 0.3045134105147797, 0.2977598975428686, 0.2911725279886798, 0.284518612472922, 0.27793081239207823, 0.2713847034568692, 0.2649355599010179, 0.2585585764013016, 0.2522460178947409, 0.24600418235276253, 0.23983853396750066, 0.2337412353583276, 0.22771848321259536, 0.22177139330665338, 0.21590106106792803, 0.21006183325291206, 0.20435412110742074, 0.1987236924374627, 0.19317192131246988, 0.1877001076061683, 0.18227974516161552, 0.17697522510358232, 0.17173124050980787, 0.16659422809254784, 0.16154025351088094, 0.15661306393088606, 0.15172349788505307, 0.14683365548581112, 0.14213386754537086, 0.13751924218403067, 0.13310574680493845, 0.12865063973882637, 0.12431181680550235, 0.12004410614681178, 0.11587262803891003, 0.11171226448040025, 0.10774353623645287, 0.10387860177217975, 0.10009094084735701, 0.09639612564742527, 0.09273501298944675, 0.089234333510722, 0.08594716502463119, 0.08261219710948817, 0.07937564016128275, 0.0761222416500477, 0.07309535584968906, 0.0701630880797757, 0.06731683142461437, 0.06456193155904846, 0.06189433174260229, 0.05932316927261693, 0.05689017052836837, 0.05449595490701614, 0.05219568408601717, 0.049916601429646136, 0.04781170161500829, 0.04585022417446757, 0.043914714388283344, 0.04207035343003211, 0.040316486387720035, 0.03865243098479939, 0.03706473407562288, 0.035579757605098204, 0.03418166788140998, 0.03291225580414071, 0.03168046576714154, 0.03047629621456478, 0.02942506410681355, 0.02845530621976462, 0.027647078269155478, 0.026828044311416884, 0.026080138647760775, 0.025428993938747296, 0.024858106484107204, 0.02428121451492874, 0.023877680294053814, 0.023596722554713186, 0.023329345070278725, 0.023135142700380276, 0.022940728559547912, 0.022898466824338833, 0.023010950356369585, 0.023087833732230105, 0.023233859994655767, 0.023371017754405473, 0.02366035959911704, 0.02408214864310322, 0.024481917324728285, 0.02494408238398684, 0.02532258903329586, 0.025922938493908528, 0.026627951891811205, 0.02731976331828413, 0.02806309917825734, 0.028852564393631014, 0.029695985361665907, 0.030650796730075078, 0.03158023112003415, 0.032558316435035047, 0.03359167048477745, 0.03466037444293718, 0.035725917905481464, 0.036885784156395776, 0.03808286538810887, 0.03929447186829632, 0.04056429353707497, 0.041772264209421865, 0.04311576182796182, 0.04448288882822742, 0.04590696138441602, 0.04731492595926432, 0.048809785968593984, 0.05025477464436097, 0.051723914238102096, 0.05318558157922229, 0.05470114069397824, 0.0562718145984311, 0.05781472352360601, 0.059373484897656696, 0.06093769654118111, 0.06252355194437374, 0.06416589158159386, 0.06576361434076108, 0.06737025930284816, 0.0689200360716649, 0.07054643274410094, 0.07219764406544414, 0.07381810133770424, 0.0754365639226179