0.03350900288096727, 0.033101102833887903, 0.032699919954182845, 0.03231182025839608, 0.031920389536087924, 0.031545768663804555, 0.031161308115248657, 0.030780850980092568, 0.030354959233934484, 0.029986955856383953, 0.029721205821696982, 0.02933967544892763, 0.02896367801445951, 0.02859244668149574, 0.028225328145723767, 0.02786177082420247, 0.027501314042959513, 0.027143578153057273, 0.02674918947066882, 0.02640097515792119, 0.026081848836002126, 0.025729682286151134, 0.025379303336607484, 0.025040424956864128, 0.02469225601524455, 0.024424480807973957, 0.02407090391854321, 0.023723897445228643, 0.02335841916517512, 0.023025862522608777, 0.022743307848332017, 0.022411946946125576, 0.02208652512145694, 0.021759270859481487, 0.02144539530402113, 0.02119942674676389, 0.020886206200274687, 0.020580687059450882, 0.02033844258759495, 0.02003957596570855, 0.01980382176210725, 0.019516196643741227, 0.019239590799169516, 0.01898038044990273, 0.01872219706451289, 0.018470607850599518, 0.018230216906356452, 0.017997666794857158, 0.017789702979646466, 0.017569725993192297, 0.0174041619744801, 0.0171941201906304, 0.016994295395982868, 0.016794452061200782, 0.016614995589865202, 0.016514915667793277, 0.016343539745344995, 0.01618455945577498, 0.016076485776351155, 0.015935811897924337, 0.01576445696932979, 0.015655326598506228, 0.015556020362586406, 0.015552028437905863, 0.015461717694978734, 0.015403367585602911, 0.015340116901418748, 0.015291778268595554, 0.015277453782522711, 0.015255287369216856, 0.01528477983813285, 0.015287759157657704, 0.01530733905364589, 0.015301605609864303, 0.015358526773209188, 0.015436145197412645, 0.015519108263785095, 0.015616336151466325, 0.015759798666717697, 0.01588226117902326, 0.016070379931055926, 0.016220371838259872, 0.016390091149643186, 0.01657929693185709, 0.01678783572144537, 0.01701807322513884, 0.01726481012688942, 0.017530986845812616, 0.017889938699073727, 0.018186042874335832, 0.018452383487334995, 0.01880281122997468, 0.019173537234398692, 0.019606327823684128, 0.020013208383529664, 0.02042404531285312, 0.020880376559644823, 0.021359165148664535, 0.02191195669625501, 0.02243001854962748, 0.023010931249251698, 0.023576744817802173, 0.02417076710230503, 0.02477078691793417, 0.025423385167442348, 0.02608541746316859, 0.026793408206267962, 0.027527367276712414, 0.028341404637448605, 0.02912170531473682, 0.029863845019601896, 0.030713194594662103, 0.031588964001436994, 0.03253820267163114, 0.03346290058353349, 0.03436726003757105, 0.035360535829894776, 0.036382344195133906, 0.03741628010454599, 0.03849934243142077, 0.03973402697827109, 0.04086147276469313, 0.042026742947247175, 0.0431904470432766, 0.04443541833002661, 0.04564693295425832, 0.04697058801846766, 0.04832578204333929, 0.049791460377868337, 0.05120224230137932, 0.052646354665825755, 0.0541342243821859, 0.055660157650696325, 0.05724384126131703, 0.058843918226469144, 0.06045682992684814, 0.062139749927882515, 0.0638610147843834, 0.06563561879821786, 0.06743275522676347, 0.06925544288622217, 0.07113505856147177, 0.07305451528080864, 0.07502638607434349, 0.0770250694600685, 0.078992104715463, 0.08108349581511251, 0.08321287114961438, 0.0854323452631308, 0.08763365571069558, 0.08983663216288355, 0.0921297677440712, 0.09446420253997365, 0.0969112975141613, 0.09932099329643437, 0.10168226451619822, 0.10419745296216892, 0.10675384074152271, 0.1093814115197456, 0.11201847691507538, 0.11471000354565199, 0.1174354818797696, 0.12020669573525852, 0.12302622027148616, 0.12588898590390085, 0.128780900139924, 0.13173838789998785, 0.1347413108356276, 0.1378191708913565, 0.14090984190761366, 0.14408719200758402, 0.14726804625028592, 0.15049850738519385, 0.15375619866307705, 0.15708748974669254, 0.1604904915796624, 0.1639131762659911, 0.16732327606609707, 0.17085029816749236, 0.17442179445769196, 0.17805754795444678, 0.1817162318559671, 0.1853991404974529, 0.18915297788566401, 0.1929517189968895, 0.19682234437167404, 0.2007078281470017, 0.20465707347122344, 0.20863353876347773, 0.21265723346739476, 0.21664235602304727, 0.22077029073000679, 0.22490547091156035, 0.2291209498915373, 0.2333765884214964, 0.2376948438487594, 0.24202936724496954, 0.24646014397227511, 0.2508729706591036, 0.25533133117475554, 0.25980540306463357, 0.2643569714058984, 0.2689435477593933, 0.2735804301014388, 0.2782586498357188, 0.2830340898268365, 0.2877870282116101, 0.2925298214525862, 0.29737587559038214, 0.3022608808869006, 0.30717474011065454, 0.3121378584328443, 0.3171627099826282, 0.3221970328423707, 0.3272693219547563, 0.33235455222121235, 0.3375040268648599, 0.3427004561900367, 0.34791744428552607, 0.3531689589722147, 0.35845440234348236, 0.3637731597629746, 0.3690562348426287, 0.3744483553659343, 0.37986801247334845, 0.3853614684256172, 0.3908298644198828, 0.3962569654676112, 0.4017926076731488, 0.4073523089915988, 0.4129651724138823, 0.41856861117677996, 0.424238418834057, 0.4298856623118097, 0.4355587207325191, 0.44121745530091244, 0.44694387539283514, 0.45271758855259686, 0.45848075280289224, 0.46426436649643327, 0.4700063808785058, 0.475835585943154, 0.48171785347218643, 0.48756959104321274, 0.4934364124684832, 0.49929050458417246, 0.5051880102369695, 0.5110693293532548, 0.5169907961998842, 0.5229198345367266, 0.5288680183320313, 0.5348086951303574, 0.5406945152256906, 0.5466543849195211, 0.5526151956029095, 0.5586204335535669, 0.5645760935706564, 0.5705359612226383, 0.57649379193471, 0.5824514005987527, 0.5883979110193529, 0.5943529681653004, 0.6002843551705065, 0.606232541566626, 0.6121733437068232, 0.6181155838387442, 0.624037515902153, 0.6298691071094602, 0.6357805775080498, 0.6416755149877711, 0.6475485418513914, 0.6534094559296781, 0.6592713471310149, 0.6650919770758476, 0.670893671351493, 0.6766412540258732, 0.6824063828227995, 0.6881671061039847, 0.6938810737311297, 0.6995705121763605, 0.70518062509416, 0.7108245291911843, 0.7164741985874682, 0.7220510389950903, 0.7275975770711424, 0.733058958133789, 0.7385482491519865, 0.7440495906542048, 0.7494583943911066, 0.7548315966935969, 0.7601117825868706, 0.7654171106610373, 0.7706432935420704, 0.7758674121891336, 0.7810453069124044, 0.7862252110149851, 0.7913026115751899, 0.7963101002543694, 0.8012984074934367, 0.8062374695536805, 0.8111140856215412, 0.815953201541206, 0.8207784154925069, 0.8255057101728337, 0.8301803155483513, 0.8347594246650901, 0.8393300266434283, 0.8438344622545032, 0.8482874163946347, 0.8526793189234313, 0.8570093073082429, 0.861276501768456, 0.8654678009621307, 0.8696082614484466, 0.8736825363648574, 0.877697134723727, 0.8816356513613528, 0.8854839345890401, 0.8892878073150818, 0.893020382191322, 0.8966540824488003, 0.9002452860543529, 0.9038176450037462, 0.9072512086410156, 0.9106118199138233, 0.9139472684743347, 0.9171527085770029, 0.9202385253898893, 0.9233020368762238, 0.926287136390632, 0.9291661690911333, 0.9319954750160961, 0.9347278972521875, 0.9373940822765744, 0.9399761987538466, 0.9424567664251245, 0.9448717282007272, 0.9472175547478323, 0.9494576254754058, 0.951611855857093, 0.9537188637434627, 0.955695136257468, 0.9575302808547255, 0.959342975842808, 0.9610661261314245, 0.9626848962000958, 0.964230242473278, 0.9657237054727013, 0.9670821277637418, 0.9683516068224194, 0.9695732260205816, 0.970658330911315, 0.9715921659692321, 0.9725090622270257, 0.9733333617445618, 0.9740772653015872, 0.9747148074496607, 0.975277514880761, 0.9757289508267898, 0.9760892545695432, 0.9763387050344124, 0.976518688960378, 0.9765742554636495, 0.976572982975547, 0.9764774351936961, 0.9762879840145487, 0.976004987945869, 0.9756141462404418, 0.975146953635168, 0.9745864262124251, 0.9739794131224386, 0.9732277140883654, 0.9723768619411093, 0.9714476872340542, 0.9704287489371828, 0.9693398111431712, 0.9681396023829678, 0.9667807112296182, 0.965413876088571, 0.9640068601749475, 0.9624514728696508, 0.9608091652114409, 0.9590485812193634, 0.9572376377117365, 0.9553612302930002, 0.953373377629153, 0.9513008141933686, 0.9490977248621179, 0.9468633604300241, 0.9445679084394729, 0.9421604806470382, 0.9396709626566838, 0.9371196880508649, 0.9344659348373967, 0.9317336297306218, 0.9289234586727072, 0.9260361430345032, 0.923062671918653, 0.9200246017917656, 0.9168672544805477, 0.9136850148046151, 0.9104268596151244, 0.907120969070768, 0.9037115297845951, 0.9002193727220194, 0.8966715035966295, 0.8930545454178314, 0.8893647872270297, 0.885613787755899, 0.8818164841211694, 0.8779325641826982, 0.8739863520593443, 0.8699764775588931, 0.8659092280556572, 0.8617437687960705, 0.8575643315465071, 0.8533258979768771, 0.8490714876260057, 0.8447143282844987, 0.8402537043715209, 0.8357997717879936, 0.831293049790268, 0.8267717560705764, 0.8221595793552413, 0.8175331175114275, 0.812826108594378, 0.8080773427160917, 0.8032243567806161, 0.7984032110152128, 0.7935155331710638, 0.7886149104854144, 0.7836741120677659, 0.778655888652358, 0.7736450839669843, 0.7686558319614724, 0.7635655371601595, 0.7584454373262143, 0.753279848035001, 0.7481065217652617, 0.742945723938731, 0.7377159341398023, 0.7324648867023215, 0.7271449590216874, 0.721861227687854, 0.7165816242273751, 0.7112559068234972, 0.7059145986081435, 0.7005640104701201, 0.6951951872048624, 0.6897591755843828, 0.6843767808659612, 0.6789829885009727, 0.6736504553659892, 0.6682304115036967, 0.6627375316314673, 0.6573235171471603, 0.6519057989896128, 0.6465081115655665, 0.6410854394589026, 0.6356092798903018, 0.6302004988780084, 0.6247941223830258, 0.6194139965403922, 0.6140151947018927, 0.6085888149915949, 0.6032142368235893, 0.5978496170164409, 0.5925015698279475, 0.5871613772165466, 0.5818242118157864, 0.5765175451149614, 0.571228406152251, 0.5659631997381198, 0.5607130120556475, 0.5554899236776643, 0.5502848901397617, 0.5451049897917114, 0.5399636617240999, 0.5348361507667001, 0.5297746978099167, 0.5247024815976497, 0.5196638604138052, 0.5146107447125351, 0.5096477420014051, 0.5047032451031259, 0.4998096056574362, 0.4949506647713624, 0.490127672295543, 0.48534183158344785, 0.48059918530982276, 0.4758904673962911, 0.47122253089867067, 0.46656463611891136, 0.4619852486491629, 0.4574892803340337, 0.45298963379002555, 0.4485365000165179, 0.44408176246642833, 0.439729964535027, 0.43543870037015125, 0.43117788885421654, 0.42696586168906264, 0.422818099242684, 0.4187042394795842, 0.4145764332575811, 0.410575458399133, 0.4066239293537437, 0.40280350095281864, 0.39894383245549503, 0.395089845373775, 0.39135076030961014, 0.38766614222359397, 0.3840292848898893, 0.38045633578596116, 0.3768976520651149, 0.37344203989130326, 0.37004090877044177, 0.36671701578850313, 0.36342433091057247, 0.36023340844635315, 0.3570511623998962, 0.35392988861250163, 0.35081091482037496, 0.34781877724642074, 0.3449671241357605, 0.34207982839280077, 0.3392553982170684, 0.3364397309708861, 0.3337466914500409, 0.33107579891155775, 0.3285050492550525, 0.3259912101430015, 0.323534616995703, 0.3211355329956912, 0.3188356615456152, 0.3165468723913762, 0.3143183250338628, 0.31212040583160366, 0.31001509399072874, 0.3080015887009755, 0.3060070912784517, 0.30407187201277985, 0.30214663158872096, 0.30033473892082047, 0.29863657073902505, 0.2969274316540388, 0.29527647414023384, 0.29362443187268134, 0.29209525391141833, 0.2906434087781692, 0.2892168014201738, 0.28784407393315975, 0.2864759137168243, 0.28521565504107826, 0.2840294381215457, 0.28286518400822197, 0.2817515358912142, 0.28074171732539827, 0.27972097723475703, 0.2786790272404807, 0.2777706009870051, 0.27690807638764814, 0.2761154776044682, 0.27534043733970126, 0.274608888505982, 0.27392528037209724, 0.27328596357611085, 0.27264622818707623, 0.27209874876179346, 0.27162737768399126, 0.27115377177684935, 0.27072071723922164, 0.27032734033881556, 0.26997275359518913, 0.26959257439870504, 0.2693208809262026, 0.2690816775053948, 0.2688965138705978, 0.2687181641290632, 0.26861111573653756, 0.26849149598295824, 0.26842420208102985, 0.26836652204631123, 0.26834039170157403, 0.26832008699949644, 0.2683562504452935, 0.26841875936463666, 0.2685065864336154, 0.2686187031699136, 0.2687101309249998, 0.2688732946616472, 0.26906007425857936, 0.2692594078394084, 0.2694763482440368, 0.26967591218251763, 0.26992995600723485, 0.2702362645511911, 0.2705111594259716, 0.27080017647354404, 0.27112426562453723, 0.2714356705085267, 0.2717202799134084, 0.2720599554532327, 0.2724073111323347, 0.2727639347740351, 0.2731237611141939, 0.2735449450558726, 0.2739071486138354, 0.27427584959423235, 0.2746179175911589, 0.2749995101854822, 0.2753329690374015, 0.27572114234585704, 0.2761053012338302, 0.2765678813661433, 0.2769317381396052, 0.2772186998808644, 0.2775883692134967, 0.2779499477559122, 0.2783076906420171, 0.27865056024947144, 0.27900318889004927, 0.27932330823590473, 0.2796332746979865, 0.27999322229331114, 0.2802724605870158, 0.28054229758195887, 0.2808013825008683, 0.28104844168138415, 0.2812309987957835, 0.28145694876838295, 0.28165237395768555, 0.2818426281113066, 0.28201266997641233, 0.2821839707616381, 0.28230929150764483, 0.28237991876633317, 0.28246784278702003, 0.28253196373369127, 0.2825426001475264, 0.28256165914672776, 0.28255652636274703, 0.2825218292655135, 0.2824602396648115, 0.2824105587552549, 0.282289428332062, 0.2821647161457684, 0.2819890622668144, 0.2817878495995787, 0.2815237023061506, 0.28127379809637193, 0.28098684727825646, 0.2806781105104586, 0.28033861656127596, 0.27998033086736607, 0.27957705268214633, 0.27914786481797993, 0.27868205356046644, 0.27818508324452224, 0.2776444158434844, 0.27708570607176564, 0.2764991199025079, 0.2758741154598772, 0.2752163214772742, 0.2744987077436939, 0.27377823194132156, 0.27303764778399275, 0.2722459034224159, 0.27142041540761, 0.2705465038833556, 0.2696553028170462, 0.2687734327661192, 0.2678075659847515, 0.26680980281901684, 0.2657701538009168, 0.2647092118914011, 0.2636323896850133, 0.26250333584973623, 0.26134228549823835, 0.26007834772631105, 0.2588620511096511, 0.25767314916938266, 0.2563772655724524, 0.25505005397428515, 0.25360121863979984, 0.2522229459187259, 0.2508524739496999, 0.24939723025549462, 0.2479100133702516, 0.2463863630704344, 0.24483708673063662, 0.24334229204384394, 0.2417207292409498, 0.24007392507362596, 0.23833085665775824, 0.23664196334896398, 0.23493079047826873, 0.23318236003200105, 0.23140593006170118, 0.22961424518364168, 0.2277818900201668, 0.22592873727936524, 0.22404486611915145, 0.2221365352779426, 0.22016026015992748, 0.21820998420165783, 0.21626354476254298, 0.21425952290184236, 0.21223342732877393, 0.2102200446308835, 0.20814730243586196, 0.20600253395110374, 0.20390032370929836, 0.20177755533980532, 0.19964975633948595, 0.19748663621116663, 0.195250208488338, 0.19306060423676985, 0.19085213351706817, 0.18874316851992629, 0.1864856175556553, 0.18415322584366633, 0.18188626824239174, 0.17960695775972121, 0.1773258350140521, 0.17502290634578135, 0.17272270373621637, 0.17039996375514865, 0.1680698298430518, 0.1656694375824981, 0.16333441598336207, 0.16098302512155097, 0.15863202365648957, 0.15627388332001205, 0.15397811783452173, 0.15160045327705018, 0.14920570236517922, 0.1468306784056213, 0.1444556725147378, 0.14208379609287033, 0.13971053660946106, 0.13730040325748452, 0.13493714259869266, 0.132575240446877, 0.13024255929803896, 0.12788295918785827, 0.12544612688648768, 0.12310928553869921, 0.120774961789444, 0.11847381889736684, 0.11614483334760145, 0.11386780634234082, 0.11155018144641983, 0.10924479608917768, 0.10694968932651581, 0.10467054920250025, 0.10240011463641781, 0.10014931025508789, 0.09791290940256146, 0.09569150530699777, 0.09348569086532074, 0.09127896642045388, 0.08910826531344894, 0.08695396278852119, 0.08484119562258807, 0.08271874349130783, 0.0806015091735299, 0.0785211075437076, 0.07646068314353197, 0.07445012582168309, 0.07242771027228825, 0.07040667613673282, 0.06843406903801362, 0.06648423743805595, 0.06454061501043688, 0.06264005944837363, 0.0607701866163604, 0.05891604868300383, 0.057086906485782206, 0.05527106378339898, 0.05349497267911651, 0.051727578090624726, 0.0500057759471566, 0.04830987605167384, 0.04668689855255914, 0.045038780612045894, 0.0433696502284785, 0.04178866820396271, 0.04025731330062897, 0.03872941554893802, 0.03723147235771351, 0.035805282461278204, 0.034362855188254625, 0.03294376369505295, 0.031568678982717494, 0.030225978820135842, 0.028876623199877632, 0.027603716319667692, 0.02640016396944294, 0.02518324921095045, 0.023999486158146743, 0.022824424940757884, 0.02170995633623701, 0.020590556338238128, 0.019544275245386725, 0.018527948211607186, 0.017549315470194397, 0.01659315616591905, 0.01565133992793312, 0.01476039825927019, 0.013900266129055344, 0.013134671043938059, 0.012328814485494817, 0.01153593662634274, 0.010802352841241009, 0.010101685924492128, 0.009433739731299262, 0.008798311530991833, 0.00822204942031729, 0.007647624745951685, 0.007106573626027233, 0.006591122391134614, 0.006116416504994679, 0.005675820607987279, 0.005263799589792789, 0.00488290080724007, 0.004596248599542114, 0.004268497316536927, 0.003957273927202801, 0.003698059228866699, 0.0034698413723248463, 0.003306195575813463, 0.0031338588642775543, 0.002990264702180113, 0.0028798059903828777, 0.002798850484624858, 0.0028150860928751876, 0.0027825000275460816, 0.002742268806389404, 0.0027763401764580226, 0.0028374862523062516, 0.0029470485084115783, 0.0030577006814071083, 0.003197301556395376, 0.0033599385853162254, 0.0035478215772289518, 0.0037578490385663317, 0.003994587610861953, 0.004357102613948599, 0.004626781789456469, 0.004924363810098714, 0.005207002655330747, 0.005561738776146451, 0.006038473994789886, 0.00642364428426884, 0.006834978175718241, 0.007285702738970435, 0.00774337392720185, 0.008199723705043968, 0.008705481405544852, 0.009230689625188592, 0.009835595947021542, 0.010389667977266684, 0.011010799316131347, 0.01159921659212925, 0.012208754149704527, 0.012852752792567073, 0.01349887743397716, 0.014158497517479681, 0.014840907115057155, 0.015539344347007166, 0.016299343248551517, 0.017021475686870517, 0.01780627836506665, 0.018554076261001806, 0.019318799506118305, 0.02007969961895418, 0.020877220147478285, 0.02176052881421318, 0.0225731399056202, 0.023401014903309536, 0.024267381630484305, 0.025119257780989866, 0.026038282202476257, 0.026909185342329917, 0.02779455623057795, 0.02867359846057651, 0.029586727875755506, 0.030556244991275978, 0.03148278285273583, 0.0324205642259556, 0.03336621077310322, 0.03432408879205402, 0.0352857009617453, 0.03626081209918453, 0.03724310407298592, 0.038280972319801515, 0.039270195374770805, 0.04032434389079314, 0.0413233194096454, 0.04233293449958953, 0.04333512722707296, 0.044365395970745465, 0.0454247708829833, 0.046466029582680646, 0.04751473674210043, 0.04857524273082577, 0.04963671095111368, 0.05064593611360478, 0.051727168661560345, 0.05281081711323432, 0.05398745289410141, 0.05506519606386942, 0.05617306770144194, 0.05726382049674999, 0.05836300414897187, 0.05944810597934571, 0.060565405223143715, 0.06170808124040078, 0.0628344807973144, 0.06396762933459324, 0.06509756971688667, 0.06624493453002567, 0.06738099774677349, 0.06854214148607843, 0.06970822368352868, 0.07093319506963408, 0.07210307633289942, 0.073232808764076, 0.07442605898801008, 0.0756249678486052, 0.07688114513825212, 0.0780858970751317, 0.0793221720918263, 0.08054317200686788, 0.08177486632911327, 0.08298536975619679, 0.08424210028742052, 0.08551727203911172, 0.08679041093367419, 0.08807337881817014, 0.08934933538395089, 0.09065490089438333, 0.09197748862603536, 0.09330198147163858, 0.09463750293712171, 0.09599666644541066, 0.09735392772799167, 0.09874612337822145, 0.10012686205854154, 0.10152248725374573, 0.10291854917841252, 0.10434643927211752, 0.10580131744109456, 0.10725765069112161, 0.10873031814460284, 0.1101806121923607, 0.11169198751597213, 0.11325283515227336, 0.11479120849361792, 0.11634825119345922, 0.11789753302028495, 0.11949661073750328, 0.12117522522653522, 0.12280426943188141, 0.12445660583819716, 0.1260713695243193, 0.1277785847636227, 0.12950633762625882, 0.1312554290297114, 0.13302663499370368, 0.13485489147365304, 0.13666824351953805, 0.13847852808562225, 0.14034846968967868, 0.1422438589240775, 0.14414341139274267, 0.14609452946724935, 0.1481280446409478, 0.15012536571406884, 0.15215369155901298, 0.15418891276745023, 0.15628328293145974, 0.15838387028210765, 0.16054316977829944, 0.1627328771708477, 0.1649781681456136, 0.16722785198011814, 0.16946511181460203, 0.17178907228752993, 0.17419662458081125, 0.17657958631321138, 0.1789993926941255, 0.18141732191276028, 0.18391679956290277, 0.1864764066450685, 0.189044906712775, 0.19165182247178905, 0.19432443288508336, 0.1970060422828301, 0.19965313128914008, 0.20242683797227434, 0.20523786099487265, 0.20814563088165136, 0.2110263103039179, 0.21391084227004367, 0.21688248617972683, 0.21989524137983685, 0.22289346838171142, 0.22599706549497955, 0.22916204856949612, 0.23234256084499072, 0.23556537381778012, 0.23879927612938454, 0.24211224208704285, 0.24552820815298762, 0.24891801822023812, 0.2523544265612843, 0.2557690804131964, 0.2593073661882067, 0.262895771925325, 0.2665192770105073, 0.2701870259137933, 0.2739506489887141, 0.27770141671527865, 0.2815173059259626, 0.2853617646481701, 0.289254803516066, 0.2931765565844534, 0.29716824689669863, 0.3011381142043357, 0.305231407540812, 0.30936714551903555, 0.3135970059835031, 0.3178122821552652, 0.3220274683829353, 0.32634098174801585, 0.3306977196308598, 0.3351246567880194, 0.3395647386270074, 0.34402042755065726, 0.3485537595794962, 0.35312979648434745, 0.35776555321022663, 0.36242455878589763, 0.3671366162729176, 0.37188060073290063, 0.3766676794050115, 0.381458301184363, 0.3863350380594026, 0.39126582806397286, 0.396219304566328, 0.40121252254231443, 0.40627190209159963, 0.41133986098829495, 0.41640126715126136, 0.42155401935078696, 0.4267425069479226, 0.4319443734936314, 0.4372059130474323, 0.44253239841738107, 0.4478559832997447, 0.45321378790585826, 0.45855869073948996, 0.46398858403852555, 0.46945271273210765, 0.47494026454844107, 0.48045651746984136, 0.48601796364169353, 0.4915876065772438, 0.49714833092986827, 0.5027771298492506, 0.5084297806847746, 0.5140983159789112, 0.5197976089321181, 0.5254913814649689, 0.5312359945523358, 0.5369988819795057, 0.5427671958593251, 0.5485661829282289, 0.5544050425650097, 0.5602311121111337, 0.5660724540603408, 0.5719450904704332, 0.5778115763866323, 0.5836641349881169, 0.5895585831097412, 0.595461857568126, 0.6013460070133344, 0.6072670157884481, 0.6131528989044869, 0.619085757154698, 0.6250183694928332, 0.6309524203460845, 0.6368818781136518, 0.6428038326964961, 0.6487276668361897, 0.654646546402575, 0.6605667237701724, 0.6664714987981136, 0.6723805711086117, 0.6782667101998637, 0.6841430528012722, 0.6899788753224038, 0.6958350464875628, 0.7016534996016391, 0.7074797464937964, 0.7132865497521539, 0.7190728035751439, 0.7248373527580294, 0.7305912064395084, 0.7363071672882082, 0.7419984007506947, 0.7476146753469203, 0.7532584176604529, 0.7588558070155523, 0.764436954942358, 0.7699834413690232, 0.7755528381048673, 0.7810194537301326, 0.786409942591931, 0.7918109183112233, 0.7971716665361182, 0.8024713788258161, 0.8077502937741254, 0.8129913224576341, 0.8181777167382327, 0.8233169357670109, 0.828407691890138, 0.8334486833405345, 0.8384410392188215, 0.8433782473766201, 0.8482618701418927, 0.8530978854895783, 0.8578693732594895, 0.8625323816316735, 0.8671945490770764, 0.8717938633176866, 0.8763464658400655, 0.8808150283640079, 0.8851796827335704, 0.8895223250810894, 0.8937955801186204, 0.8980205593360103, 0.9021496359817165, 0.9062396084104483, 0.9102218514368373, 0.9141327740156313, 0.917941700395791, 0.9217095973387542, 0.9254029600371062, 0.9290155717108081, 0.9325493026525776, 0.9359738265077521, 0.9393504339645432, 0.9426312713373196, 0.945841553572644, 0.9489660879563552, 0.9520066512718828, 0.9549573711906041, 0.957830210267235, 0.960603683077605, 0.9632886211236686, 0.9659062055938379, 0.9684089313565438, 0.9707951670245789, 0.9731211070596284, 0.9753541161965718, 0.9775057861713616, 0.9795495554056646, 0.981511483601781, 0.9833649460473495, 0.9851237468731451, 0.9867749797173456, 0.9883439510839436, 0.9898204981437706, 0.9911937689723014, 0.9924691004122504, 0.9936094214704176, 0.9946922004435008, 0.9956786345001538, 0.9965582936756199, 0.9973369051828793, 0.998021709091927, 0.9985970547190147, 0.9990959580015213, 0.9994663928460192, 0.999737150423931, 0.9999323935514007, 1.0, 0.9999662484470231, 0.9998360293042472, 0.9996062247892316, 0.9992815749421856, 0.9988516145366318, 0.9982317558719128, 0.9976140957546793, 0.9969260373507532, 0.9960957279302665, 0.9951643883298408, 0.9940910034855427, 0.9929643385676755, 0.9917895375725869, 0.9904532381173603, 0.989019796844302, 0.9874676217451961, 0.9858438613606799, 0.9841205465406583, 0.9823035418559024, 0.9803906473848824, 0.9783825866367925, 0.9762800985803346, 0.9740766142918292, 0.9717884839012338, 0.9694078390948707, 0.9668818372814728, 0.9643255885160309, 0.9617326305909699, 0.9589848995422173, 0.9561501202507853, 0.9532242444648491, 0.9502185235957349, 0.9471427324091581, 0.9439666901472403, 0.9407087187327442, 0.9372989178361083, 0.9338888020370919, 0.9304761988779532, 0.9268913687651151, 0.9232311560589515, 0.9194280810463602, 0.9156284613441029, 0.911835462719061, 0.9078741558656883, 0.903844288317815, 0.8997174545354927, 0.8955569221350292, 0.891302214301272, 0.8870117679883684, 0.8826551746525146, 0.8782560030557347, 0.8737691177331002, 0.8691708224334929, 0.8645715637998136, 0.8599121463931335, 0.8552359515694459, 0.8504565601903685, 0.8455540686445986, 0.8406805058590886, 0.8357536225078376, 0.8308292083968105, 0.8257950637683418, 0.8206702979405597, 0.8155550645528391, 0.8103960284539674, 0.8052781198309937, 0.8000266976247259, 0.7946636596573784, 0.7893563177625391, 0.784013508162248, 0.7786078480997657, 0.7732035314661758, 0.7677775432067075, 0.7623111965929921, 0.7568180739071059, 0.7513342687570479, 0.7457889753400008, 0.7402195887366855, 0.7346380496812597, 0.7290401529978131, 0.7233884529023896, 0.7177676460042562, 0.7121160727068359, 0.7064720235894282, 0.7008171974919452, 0.6951853497134989, 0.6895109511467995, 0.6837699776777645, 0.6780990468962911, 0.6724247083674602, 0.6668418691231505, 0.6611552910163305, 0.6554107628677508, 0.6497496565124531, 0.6440952413064512, 0.6384273349603756, 0.6327944214595943, 0.6272064199662454, 0.6215925107992053, 0.6159949329975476, 0.6103932051057323, 0.6048355371368335, 0.5993169471196242, 0.5937975358545293, 0.5883020048662114, 0.5828097929765351, 0.5773690298700516, 0.5719624442172324, 0.5665760141455948, 0.5612199204569243, 0.5559444217050015, 0.5506470798485508, 0.545328419631447, 0.5401140075129115, 0.5349355307130246, 0.5298115552738882, 0.524707169273179, 0.5196464164518106, 0.5146253184214019, 0.5096479548841135, 0.5046153701627969, 0.4997415651239752, 0.49494589190788646, 0.49015236370173815, 0.4854060612404472, 0.48074253009224915, 0.476090377582716, 0.47141556703480514, 0.4668799442568866, 0.46239487286758124, 0.45801796681820506, 0.45363116851773705, 0.4492655281772414, 0.4449996531992496, 0.4407909372542164, 0.4366305882240667, 0.4325402875074612, 0.42853131643910247, 0.4245578278202743, 0.42064662712696976, 0.41681050739685616, 0.413024061219823, 0.4092485301802365, 0.4055985282486259, 0.40201090559354374, 0.39851330439441657, 0.3950493236866847, 0.3916562490488392, 0.3883240570243971, 0.3850588483588656, 0.38182913509304445, 0.37870263768613804, 0.37563957585564833, 0.37264556584364517, 0.3697180851246344, 0.3668599034873553, 0.3640661013047288, 0.36137396809854533, 0.35871096615939674, 0.3561176230142987, 0.3535912835531466, 0.35113691896009613, 0.34876362030002767, 0.34644520732165807, 0.34419588213109126, 0.34192739803114586, 0.33982631264012053, 0.33782250411986875, 0.33584362340609253, 0.3339303338411498, 0.3320947179872376, 0.3303106399635412, 0.3285996374293431, 0.3269457668948921, 0.32535729177106104, 0.32383372434997465, 0.3223745549057921, 0.32096948525832814, 0.31963872963368994, 0.31837016315356076, 0.3171583838981393, 0.3160132257261313, 0.31492833355607275, 0.3139031369970893, 0.31293703247712573, 0.3119561358208919, 0.3111155393866099, 0.3103743171658805, 0.30963368631780674, 0.30894827071241154, 0.3082856281765357, 0.307712514587008, 0.3072760755783985, 0.3067940389781144, 0.3063668460190453, 0.30590279564016043, 0.30559266118013956, 0.30531610094872946, 0.3050985237609069, 0.3049248724636875, 0.30484583534005716, 0.30475172522150384, 0.3047293144288621, 0.3047203009508669, 0.30475525348774624, 0.30478148784213027, 0.3049066495612213, 0.30507606521622294, 0.30527322672362456, 0.30549606343390256, 0.3057642869465696, 0.3060652705183005, 0.30634672194797835, 0.3067166266932798, 0.3071401374011876, 0.30755946150609464, 0.3080056074964357, 0.30848975077862406, 0.3089848678846949, 0.30956778672929725, 0.3101023032440586, 0.31066226690486437, 0.31115803986899265, 0.3117748504277217, 0.31244130654009883, 0.3130838455894636, 0.3137419717475509, 0.3144193358272455, 0.31510432129985, 0.31580147095138184, 0.3165095150924837, 0.31722719118294657, 0.3179654522419113, 0.3186970911592422, 0.3193669399282394, 0.320119043864461, 0.3208712477661012, 0.32160327846408115, 0.32235588173627255, 0.3230978001259263, 0.32384389441825717, 0.3245847346219202, 0.325331773595225, 0.32605824888933604, 0.3268217028766108, 0.3275277035876836, 0.32822722944865335, 0.32886032057582143, 0.32955025653320225, 0.330287486318652, 0.330941418777261, 0.3315834180848989, 0.33222191754676894, 0.33283485886023073, 0.3334227754142431, 0.3340051461958187, 0.33456918034108296, 0.3351210848661276, 0.33564419922153366, 0.33613636643988193, 0.3366172740489632, 0.33707432986152125, 0.33753834683721684, 0.3379409264977883, 0.33825768566671993, 0.33861731413469104, 0.3389465743856064, 0.3392547223818996, 0.33952046820689047, 0.339737739437914, 0.33994226522539067, 0.3401132263851239, 0.34029655199724795, 0.3403931262104142, 0.3403865291869863, 0.34042648076822246, 0.3404284479146811, 0.3404288697298484, 0.3403496542979982, 0.3402778265325874, 0.34011938479235887, 0.33992577873608454, 0.3396424404751186, 0.339382808804544, 0.33907531652766365, 0.3387353110185377, 0.33835390481817773, 0.33794558636978145, 0.3374790424816767, 0.336983646323989, 0.33643316589382505, 0.3358417871217554, 0.3351457005138181, 0.33447960371782426, 0.33378281500559215, 0.3330244651632005, 0.3322221291435007, 0.3314223045996057, 0.3305264447168156, 0.3296334557896203, 0.32864960686985617, 0.32762664366472477, 0.32653229184535043, 0.32543360221404277, 0.3242731438539382, 0.32309242194181403, 0.3218683467813631, 0.3206475133463477, 0.31933149553884854, 0.31794609213302844, 0.31655348966309765, 0.31511898689447615, 0.31362573477728983, 0.3121103457614931, 0.310569994036554, 0.3089687924963987, 0.30732741634612243, 0.3056486415682328, 0.3039276365512907, 0.30214814109225263, 0.3003520808129373, 0.2985167725757714, 0.2966550220446617, 0.29474147139209683, 0.29275454040072363, 0.2907726237632426, 0.2887529454687145, 0.28670856098987185, 0.2846143394921879, 0.282514830948264, 0.28034843510454927, 0.27815050597105556, 0.27591663407724426, 0.27365771094196417, 0.27133431853270357, 0.2690197527388052, 0.26667422214986347, 0.26430109672427243, 0.26189609953458826, 0.25949232141655504, 0.25702833434312594, 0.2545396574757921, 0.2520440143180967, 0.24950572066618618, 0.24686998272488614, 0.24429832234652435, 0.24170184144777432, 0.2391233018625452, 0.23647565195352924, 0.23380182560541143, 0.2311182048221091, 0.22841694499112897, 0.22565010065346905, 0.2229224005157621, 0.22021117229460982, 0.21744501607207886, 0.2146655964366008, 0.21191534657609887, 0.20910692614308157, 0.20626836648635283, 0.2034469807121335, 0.2006174081144684, 0.19777072063210197, 0.19492853530062657, 0.1920630700852131, 0.18921161431796996, 0.18635489960126758, 0.1834744707921489, 0.18061292144267008, 0.17781411599205663, 0.17493905125113132, 0.17206683053169783, 0.16912967085070138, 0.16627356543474353, 0.16341831847281163, 0.16056515783136163, 0.1577152677109645, 0.15491862454552255, 0.15207249617294263, 0.1491819868444351, 0.14636196797022105, 0.14354958501162532, 0.14078990273129263, 0.13799054186913928, 0.13516300654362345, 0.1323962116879458, 0.12964173566110485, 0.1269176766152496, 0.12418866391034747, 0.12145631751032339, 0.11876294732076441, 0.11608621764507195, 0.11340017957713551, 0.11076282259527874, 0.10821648316819944, 0.10560643978863511, 0.10302029775503205, 0.10042422117079364, 0.09789127185877229, 0.09540584110813843, 0.09291670232430152, 0.09045340473835344, 0.087991994274837, 0.08558485984643338, 0.08322313507876844, 0.08086595765605074, 0.07853707633080688, 0.07617347872546554, 0.07391062223364511, 0.07176667893724253, 0.06954532070896288, 0.06731077228941362, 0.06516176547040259, 0.06304355661286049, 0.060966428115906315, 0.05891010418507027, 0.05683777030552841, 0.05485363229219896, 0.05290029628610929, 0.05101023531102038, 0.04911662269740499, 0.0472795786362947, 0.045452675367718146, 0.04366217935700189, 0.04189840827430849, 0.04018221676453958, 0.03846307684102454, 0.036824224384772314, 0.035219613346530954, 0.03363992946651366, 0.03210633972689131, 0.03060520239066106, 0.02914209042426623, 0.027714443689188562, 0.02638604106947659, 0.025022139244580913, 0.02363941230748392, 0.022362115555340477, 0.021120623594664156, 0.019905331456364934, 0.018737125869961135, 0.017624069259499307, 0.016524745782858972, 0.015462329053582392, 0.014475760738900353, 0.01348182558585103, 0.012541208258972767, 0.011622261943666227, 0.010741837084184996, 0.009904243564907817, 0.009098553861724229, 0.008337349557252278, 0.007604519327467506, 0.0069082129877267905, 0.006260087046723153, 0.005633653647686619, 0.005042841309371771, 0.0044870599830991315, 0.003965745047150446, 0.0034832365494359215, 0.0030286251711471473, 0.0025827584473591117, 0.0021970171087270026, 0.0018420022055176503, 0.00155157800371145, 0.0012527224210155082, 0.0010563148661414316, 0.0008111474759640241, 0.0006003313515286431, 0.00041780745993680584, 0.00027286751849669755, 0.00023440930072153864, 0.00014056969467465073, 7.999804038932982e-05, 0.0, 8.302767593716587e-06, 9.190393529211412e-05, 0.00014626830957562072, 0.00022847744593791703, 0.0003179658940799163, 0.0004553070115601814, 0.0007385826469456921, 0.0009075061791778149, 0.0011057852958739978, 0.001322036042730395, 0.0015755508992083974, 0.0018827314725785584, 0.0021801174874995595, 0.0025012912697580957, 0.002852356459713144, 0.003216615957789873, 0.0036602982228067607, 0.0040577833222239235, 0.004477431458314051, 0.004949643707173235, 0.005405702390396327, 0.005850284550089187, 0.006349605671314908, 0.006864963708037772, 0.0074492640255695, 0.007987531049250452, 0.008569442612552469, 0.009136797579141709, 0.009720359198555115, 0.010326320261987463, 0.010938071787973392, 0.011621929738470382, 0.012252361482076682, 0.012897814725687535, 0.013561920747742814, 0.014233162286292136, 0.014911403360647342, 0.015606055529415148, 0.016310460515448766, 0.017055594097813438, 0.017773260855898764, 0.018588252969813722, 0.019312814601199713, 0.02005012288919387, 0.020789006205707058, 0.021548976655114304, 0.022312479980003328, 0.0230889773112649, 0.023871869108012464, 0.02473614777608763, 0.025520238394978204, 0.02631309068116934, 0.02711359646866065, 0.027920775431884304, 0.028741086949148453, 0.02955819271397451, 0.03034834359685186, 0.031178388603727087, 0.03201022670896354, 0.0329339604419769, 0.03375728351550388, 0.03454046344940315, 0.035381273748530145, 0.03622409452190045, 0.03711259025883398, 0.03795306708632177, 0.03878753373733897, 0.03963624467337407, 0.04048721436120537, 0.04136945446481251, 0.04222042701590872, 0.04312342659838895, 0.04397423620923303, 0.044830294242152964, 0.045644571021349334, 0.04651518007985815, 0.047374614869817845, 0.048248855351773395, 0.049123516159209714, 0.050030516233871, 0.05090255151237543, 0.051706554285312505, 0.052593050923848854, 0.05347830941912699, 0.05447525326458564, 0.05534562590322732, 0.05614709761180346, 0.05704023025452956, 0.0579352141950413, 0.05887394363842673, 0.05976853917898407, 0.06069776755114727, 0.06159937304174128, 0.06250809335653698, 0.06339452127444821, 0.06432091714037036, 0.06519404949080028, 0.06613883028969805, 0.06708628757563642, 0.06807385970472292, 0.06902444000280453, 0.06997230829491119, 0.07093864132775646, 0.0719123063647722, 0.07288892314623106, 0.0738793765831346, 0.07489548327749307, 0.07590143861346339, 0.07691798898704684, 0.07796506186828345, 0.07900153125494772, 0.08005824505308162, 0.08111990839243247, 0.0821954970557124, 0.08322669698550944, 0.08433843484444176, 0.08549838985502281, 0.08662953440325295, 0.08777599886335034, 0.08896269663923927, 0.0901382165832472, 0.09132706796101558, 0.09253996705018924, 0.09377150482306745, 0.09498793368102183, 0.09626239844248649, 0.09752565396660264, 0.09884077362261239, 0.10017386058346762, 0.10157227583494138, 0.10293829773023236, 0.10432278789082501, 0.10573660553070337, 0.10717446403841163, 0.10860271934770845, 0.11009460242309184, 0.11163465405527379, 0.11317178031535237, 0.11473564883871394, 0.11636345273630894, 0.11797787919809224, 0.11957885342781335, 0.12126009728590796, 0.12297970456966074, 0.12471758976325263, 0.12648596638178516, 0.12828540261639254, 0.13011645977617878, 0.13199434176060273, 0.1338884435892407, 0.13581662849528178, 0.1377426853754474, 0.13974491290046057, 0.14181460700207416, 0.1438798010191811, 0.14598160340985333, 0.148100858577778, 0.15027948222978268, 0.15245080726108967, 0.15470882614601036, 0.15700208188484266, 0.15940467079426357, 0.16176161753497276, 0.16410410939729186, 0.16655164097622305, 0.16903790402422522, 0.17153416933318674, 0.1741032690319512, 0.17677208480587708, 0.17941150581023138, 0.18209434008404557, 0.18478159556424356, 0.1875564229754903, 0.19032143315475722, 0.1931860550028318, 0.1960900119303775, 0.19906577739470405, 0.2020465013376188, 0.20510446732522156, 0.2081672239888002, 0.21127539372339443, 0.21441177509408163, 0.21761260294109278, 0.22086976453077944, 0.2241573261133901, 0.22748972997046762, 0.23085465500552818, 0.23427794001627686, 0.23772304349743353, 0.24123665090574264, 0.24479271048527879, 0.24840107678117743, 0.25204102529731015, 0.2557265480612153, 0.25945233535184736, 0.2632211282379964, 0.26700587520250657, 0.27086346944196715, 0.2747472576088617, 0.2786883406696695, 0.28266929316368633, 0.2867096169151917, 0.29076768558419425, 0.2948176191728048, 0.2989629010126977, 0.3031453983382107, 0.30741880518632897, 0.3116688006222578, 0.31590258074497535, 0.3202388946492676, 0.3246106597084648, 0.3290200872676378, 0.3334616898820741, 0.3379355572363872, 0.3424464492998207, 0.3469909967573961, 0.35157113228598685, 0.35618110900082794, 0.3608305412788248, 0.36550319565574246, 0.37020704149897316, 0.3749168779176512, 0.37968381587913186, 0.3844854751015472, 0.38930562242144506, 0.3941522171112785, 0.39901224696569654, 0.4039108354149758, 0.40884732870931045, 0.41378977803301425, 0.41875467142351724, 0.42368486120291193, 0.42869875243630046, 0.43374111516286934, 0.4387853941325049, 0.44384535728188507, 0.44886645450143525, 0.45396202462099705, 0.45911156483554494, 0.4642210795095487, 0.4693419084658723, 0.47446809859407346, 0.47960893149865164, 0.48470622630174265, 0.48986789386959384, 0.4950321493583701, 0.5001811357673148, 0.5053503547972267, 0.5105284501959609, 0.515693817673225, 0.5208570965949632, 0.5260074654802952, 0.5311645871015542, 0.5363597113156199, 0.5414982715012225, 0.546631083433967, 0.5517688049113002, 0.5568839339181487, 0.5619234490899293, 0.5670259083220975, 0.5721117474044478, 0.5771042184033012, 0.582163165018703, 0.5872394355230327, 0.5922441846350263, 0.5972258051656495, 0.6021441062541473, 0.6070809871716147, 0.6120451939692635, 0.6169163760317138, 0.6217599368116525, 0.6265523823932749, 0.6313389224667489, 0.6360896140325754, 0.6408083146202281, 0.645490785758973, 0.6501063829458149, 0.6547160514760877, 0.6592569166327024, 0.6637849491079386, 0.6682672124414412, 0.6727027174044772, 0.6770904229962272, 0.6814048270396735, 0.685696724435333, 0.6899360839393486, 0.6941707490487871, 0.6982958447690216, 0.70232653482542, 0.7063495802053252, 0.7103144140503128, 0.7142418839868542, 0.7180841156645797, 0.7218244256403077, 0.7255497270213085, 0.7292095986587458, 0.7328079368058148, 0.7363333456813731, 0.7398369592444586, 0.743219044541116, 0.7465333699436326, 0.7497980018680416, 0.7529699854097647, 0.7559953555034596, 0.7590335760216642, 0.7619937137978615, 0.7649311682130703, 0.767725746655414, 0.7704235328426936, 0.7730648076749835, 0.7756252666646162, 0.7780672841086498, 0.7804677639199957, 0.782782446424792, 0.7850107031898188, 0.7871518959517961, 0.7892468880856308, 0.7912067698168109, 0.7930189401100015, 0.7948122223759351, 0.7965135048672676, 0.7982005288106042, 0.7997067452397879, 0.8010972745950734, 0.802428176479167, 0.8036667132230354, 0.8047609210992587, 0.8058191821061012, 0.8068681508537393, 0.8077207592171342, 0.8084807822761685, 0.8090814118882991, 0.809662030201818, 0.8101341900072626, 0.8105185412407312, 0.8108034208687351, 0.8110181002422929, 0.8111002474938959, 0.8110356529895839, 0.8109279005138509, 0.8107190249996601, 0.810414121451711, 0.8100030057407379, 0.8095185026951723, 0.8089036503945036, 0.8081976895192317, 0.8073849913680373, 0.8064742028872565, 0.8054286631892887, 0.8043262595499286, 0.8031334994802014, 0.8018300036078663, 0.8004277151045268, 0.798966023264184, 0.7973622005972522, 0.7956481608325219, 0.79385513045176, 0.7919659231214755, 0.789951555146457, 0.7878746886124856, 0.7857474664248287, 0.7834719182340926, 0.7811035915323667, 0.7785768898980069, 0.7760323840105451, 0.7734682508192126, 0.7707245699394016, 0.7678918666285555, 0.764948565776824, 0.7619418644245811, 0.7588121288668274, 0.7556328203611904, 0.7523643262181974, 0.7489784673839036, 0.7455386677784044, 0.7420284931525281, 0.7384129624221252, 0.7347136267706939, 0.7309731777162977, 0.7271045388928504, 0.7231311295750458, 0.719110926558832, 0.7150130841088465, 0.7107826233147668, 0.7065401554985251, 0.7022449020667713, 0.6978466277477882, 0.6933758530319232, 0.688794930631274, 0.6841883478365623, 0.6795796878469483, 0.6748253071154244, 0.6700077475553514, 0.6650695263295716, 0.6601364091626584, 0.6551158821497175, 0.650061572755528, 0.6449462925353141, 0.6397670205443863, 0.6345359627710792, 0.6292418067475017, 0.6239019245279861, 0.6185094194606827, 0.6131271301385812, 0.6076270262020308, 0.6020317609387896, 0.5964515966083815, 0.5908271724748004, 0.5851650975104536, 0.5794566993477119, 0.5737460767952568, 0.5679570013476521, 0.5621344313287049, 0.5562284442493872, 0.5503494581084534, 0.5444260494790492, 0.5384860391011985, 0.5325168268840356, 0.5265789249445746, 0.5205496080286096, 0.5144243358269334, 0.5083654155341726, 0.5022847305242644, 0.49617942897049155, 0.4900618788096712, 0.4839502207748064, 0.477799668031365, 0.47163810684662205, 0.4654916396664821, 0.45931002114214303, 0.45308228018122804, 0.4468981357816633, 0.4407099723520452, 0.4345684373267654, 0.4283714751045865