0.021631106028945774, 0.021241613623015916, 0.020988689212520308, 0.020758161036373044, 0.020548096358459177, 0.020352792857020272, 0.020172721607468965, 0.020002904748567422, 0.019843122277115027, 0.019765695809294468, 0.019612285957142754, 0.019364432277748363, 0.01924341783970037, 0.019124176189061752, 0.019065660156742995, 0.018942184455330066, 0.018838434460748305, 0.018722632845099466, 0.018508596867632777, 0.018415938564757928, 0.01832221530521386, 0.018229526216199898, 0.018135745081520327, 0.018052561472013798, 0.017960648272221304, 0.01787175575750507, 0.017854901563198036, 0.017764964282680328, 0.017608225528654223, 0.017544519730951183, 0.017484888161346537, 0.017416519683719007, 0.01736854839085191, 0.017411579960715327, 0.017363473175290415, 0.017326431299539997, 0.017260003137188888, 0.01724973716211014, 0.017170027391531176, 0.01718677855868967, 0.017208157899874392, 0.01733443001512486, 0.017355088874217217, 0.017299746595914486, 0.01735672825443335, 0.01742111637704248, 0.017486833733758003, 0.017568735486827778, 0.017761464252695126, 0.017848526931535772, 0.017951094514687037, 0.018048639238569524, 0.018183672607197915, 0.018340166667392986, 0.018500937621622048, 0.0186754909760718, 0.018827506757418202, 0.01903405430403447, 0.019230768104176277, 0.01946365221834748, 0.019707600545909965, 0.01990264720953163, 0.020177724725911377, 0.02047520398406726, 0.020767393425171688, 0.02107095442797899, 0.02142677195345468, 0.02174972417097478, 0.02211077871276615, 0.02246152240908755, 0.02282908610767283, 0.023216109570990535, 0.023616862162635557, 0.023967380655760238, 0.02441044884492695, 0.02486669377346122, 0.025319247904660485, 0.025805775856833368, 0.026347762078028244, 0.02685728572926621, 0.027384125883986282, 0.027896222130192688, 0.028462276616635588, 0.029043002388865573, 0.029641683372166962, 0.030257128351321796, 0.030891059535819082, 0.031540973995509904, 0.03220207404903827, 0.03288893396347113, 0.03359389213696448, 0.034319950918586306, 0.03506169476448341, 0.03583600534697714, 0.03661456534575952, 0.0374134809828764, 0.038243602060696685, 0.03908219420237031, 0.03991118849081775, 0.040796292148183706, 0.04170102244735838, 0.04272371201165676, 0.04365618666794682, 0.04453003472211387, 0.045524614460445374, 0.04653941920282754, 0.047627114899411016, 0.04867660982983636, 0.04969100853844885, 0.05079577632925585, 0.05192089686197185, 0.05307344937441151, 0.054239490481178175, 0.055439352491507776, 0.05664756123596947, 0.05787861712977459, 0.059125899811898766, 0.06040377722177645, 0.06172185253345329, 0.06304313873657182, 0.06438840406473657, 0.06578985002286657, 0.06717892214372445, 0.06856014554794224, 0.07000463842212276, 0.07147246380212466, 0.07293548552259324, 0.07445372782322791, 0.07599523489756531, 0.07755742034416879, 0.07914210529255171, 0.08075216423236634, 0.0823820448350257, 0.0840551973580217, 0.0857288717363949, 0.08742695035083502, 0.08911708355264393, 0.0908676852985593, 0.09267140957669494, 0.09446271751111654, 0.09627823957338641, 0.09815540295092764, 0.1000140806935174, 0.10181933779325744, 0.10373918047690246, 0.10567947948338194, 0.10769418472261202, 0.10966925797511609, 0.11167641610827826, 0.11369818950553992, 0.1157437847034726, 0.11774568335462131, 0.11984630765503487, 0.12201425936364203, 0.12414695134677463, 0.1263017104552807, 0.12849974068377068, 0.13069507239465578, 0.13289537672599774, 0.13513732315773191, 0.13739983498050154, 0.13969472419159637, 0.14199601480766041, 0.14432980668164686, 0.14667002113638566, 0.14903058047154055, 0.15132910832350005, 0.15373935063170135, 0.1562029519383784, 0.1586373429963526, 0.1610887474321532, 0.16360127248849934, 0.16608045585502293, 0.16849519557216455, 0.17102191322015114, 0.17356155384685643, 0.1762068727923314, 0.1787608704641087, 0.18123238240679615, 0.18383475583714537, 0.1864481125935528, 0.1891007274140392, 0.19173264263880452, 0.19433552737561188, 0.19699757275538624, 0.19966919691968757, 0.20238393431691676, 0.20507029872907936, 0.20775575393840895, 0.2104655298732261, 0.21318485313708868, 0.2159146727725962, 0.21865171825824425, 0.2213904290856259, 0.22414462074974337, 0.22690587631658277, 0.2297382185436164, 0.23250412660447967, 0.23518535402857146, 0.23798078637412787, 0.24077830769202166, 0.24357373721855857, 0.24637543663975392, 0.24927776252250772, 0.2520691400092839, 0.2548667779910681, 0.25756344521189944, 0.2603836517445193, 0.2632304646689185, 0.2660409454432806, 0.2688498560372083, 0.2716688168921901, 0.274471643871406, 0.27730972934542375, 0.2801025048393452, 0.2828938214684631, 0.28558875994515187, 0.2883863284715945, 0.29123360299795864, 0.29400487596855773, 0.2967242331532779, 0.29948809810869303, 0.3022418161123192, 0.3050374692107694, 0.30776335835862, 0.3105011907979786, 0.313207309190939, 0.31590473270025926, 0.3185576036660786, 0.3212392630611186, 0.32389278203875055, 0.3265490165854467, 0.32918993755825915, 0.33178152595295207, 0.3343947047973688, 0.33705643438422467, 0.339623708693696, 0.34217565521392274, 0.344695303575795, 0.34721609468783476, 0.34965774391133325, 0.35214810778398115, 0.35461508782477236, 0.35703168199966095, 0.3594548032042698, 0.3619007879216152, 0.36426676236939626, 0.3666097575759076, 0.3688821878082232, 0.37118340973747893, 0.37353245377578664, 0.3757691961570598, 0.37798230862827853, 0.38008360010130193, 0.3822578176755072, 0.3844573122200357, 0.38656205838819685, 0.3886386071022031, 0.39068899556062714, 0.3927068777742799, 0.39474315257376197, 0.39669439096812675, 0.3986171501655004, 0.40047284484749845, 0.40234051025911705, 0.4041976490049984, 0.40599521204683814, 0.40775970444173504, 0.40945957734800653, 0.41115988127328007, 0.41274695199788347, 0.41438323989837095, 0.4159779072077548, 0.4175567626618898, 0.419065767462873, 0.42051509927403585, 0.4219474736456992, 0.42333892374777676, 0.4246961554055752, 0.42600484164317487, 0.4272567236915289, 0.42848589971500034, 0.4296731256730257, 0.4308210138168371, 0.4319237511805616, 0.4330663043249962, 0.43407431772478877, 0.43504448281275265, 0.4359665525902623, 0.4368597444264876, 0.4376236098689893, 0.4384460542730355, 0.43922175587318407, 0.439948277222824, 0.4406315332890124, 0.44126179863401893, 0.44185350416020125, 0.44239883134176444, 0.44291941526364215, 0.44336968682177214, 0.4437590354051168, 0.4441216300650588, 0.4444383215355149, 0.444797783396644, 0.4450115837353014, 0.44517113410740505, 0.4453043047019042, 0.44539461754982146, 0.4454255496246736, 0.44543102091962744, 0.4453164838213352, 0.4452417425086076, 0.4451177924421401, 0.44495593776130915, 0.44473384916246855, 0.44450902119570473, 0.4441875742297358, 0.4438222481803507, 0.44340226247402703, 0.4429504554404172, 0.4423870020483055, 0.4418548182397138, 0.4412746558111287, 0.4407291399508467, 0.4400447394463395, 0.439308194774468, 0.438542266100773, 0.4377342127903225, 0.43688010112231457, 0.43598862400317034, 0.43498668591726414, 0.4340201362987282, 0.4330082231168772, 0.43203501497501795, 0.4309242291184364, 0.42967029892668246, 0.4284959718074137, 0.4272774450799881, 0.42608953087631307, 0.4247760662720196, 0.42346149086614854, 0.42206890362062055, 0.42064141359729973, 0.4191467632254285, 0.4176535231536115, 0.41614919288545454, 0.4145799292459898, 0.4129763367396827, 0.4113024024301393, 0.4096355141497702, 0.40794520788305216, 0.40620643843110543, 0.4044341502956151, 0.4026369539775361, 0.40079828037091614, 0.398832887571565, 0.39694403997162764, 0.3950195234715065, 0.393154659100599, 0.3911507967390893, 0.38911758086621806, 0.38706107047227695, 0.3849784740449945, 0.3828729174560067, 0.38073915838907074, 0.3784855232746182, 0.3763152545479396, 0.3741161237100843, 0.37198210122850295, 0.3697173908083261, 0.3674206521562107, 0.3651179519309641, 0.36279540359257473, 0.36037431571685624, 0.3580237256512362, 0.3556934894515261, 0.3532934614091084, 0.3508756278586533, 0.3484608989407991, 0.3460072000393956, 0.34346524479931745, 0.34099267254685833, 0.33850273912590984, 0.33607722272506735, 0.33354593361327123, 0.3309461560034245, 0.3284039259834501, 0.3258497968956007, 0.3232524738655177, 0.32068139497427905, 0.31815169762601864, 0.3155531278430775, 0.3129486783344903, 0.3103093953695625, 0.30769869952442547, 0.3050876314791802, 0.30246561952162687, 0.2998398432096745, 0.2972204660117312, 0.29458824865875627, 0.2919980170971534, 0.28935904410853397, 0.286722796999907, 0.28399826332741385, 0.2813799664842754, 0.27880193163020156, 0.27617678594638306, 0.27355484653022427, 0.2709757540625223, 0.268357384631334, 0.26572229758441546, 0.2631222492275525, 0.2605290413101913, 0.25791910930771417, 0.25534445987359533, 0.2528268000990475, 0.2502612715509795, 0.24770740225715032, 0.2451534524373134, 0.24262549442954157, 0.24001428585183948, 0.2375230824744257, 0.23503964832602087, 0.23259615324607197, 0.2301281085956694, 0.22769731420883405, 0.22525314583246087, 0.22282492265043596, 0.22041314663362185, 0.21801830852803258, 0.21568251763651056, 0.21331772093609136, 0.21088229038110423, 0.2085705177888994, 0.2062745610645874, 0.20398995406993636, 0.20172895640805524, 0.19949941951200403, 0.19727354807772485, 0.19506792439788467, 0.1929556046565198, 0.19078289337051335, 0.1885420144796332, 0.18643271520703103, 0.18434373427098286, 0.18232276815976792, 0.18027050786697513, 0.17826191573857703, 0.17625716613705505, 0.17427864419081007, 0.17233575106552468, 0.1704085162728679, 0.16853226136247781, 0.16665555659902523, 0.1648069767861127, 0.16295544807397028, 0.16116649881332873, 0.15934171472990977, 0.15761261133714707, 0.15590629157052513, 0.15426502634106765, 0.15260086466728373, 0.15095548511440898, 0.14934613323062113, 0.14776337915993082, 0.14623288723495212, 0.14470052987144846, 0.1431495863155921, 0.141679883669924, 0.14023572929414824, 0.1387932222037583, 0.13740398923184735, 0.13613229046973294, 0.1347814343967673, 0.1334612786725864, 0.1320679047283247, 0.13082071624355704, 0.12966682669310556, 0.12845817314970132, 0.1272776852025139, 0.12610359843607694, 0.12498133037491664, 0.12388252043824385, 0.12281279012393553, 0.1217688548596219, 0.12077612464545122, 0.11978021936913504, 0.1188004256724998, 0.11785922233049925, 0.11694354809115313, 0.11599405246915917, 0.11513611121228767, 0.11434926271965797, 0.11352804572775659, 0.11273134718788705, 0.11191049382730145, 0.11116795140328595, 0.11052006969038963, 0.10980983703268979, 0.10912458664502055, 0.10848112499984774, 0.10784170843192596, 0.10714178465110309, 0.10656054171050734, 0.1059972585480271, 0.10544391672209198, 0.10491763357715002, 0.10443298659866056, 0.10393852846374735, 0.10346274686069618, 0.10299456208921433, 0.10255646493872544, 0.10219446884517368, 0.10178263239085565, 0.10139050929803667, 0.10092596727979733, 0.10058240790190195, 0.10024438906765193, 0.09992621351657748, 0.09961990351359812, 0.09937913436126265, 0.09908958590123954, 0.09878508654274341, 0.09852783034294336, 0.09828226370521959, 0.09813396291415079, 0.09789978473640774, 0.09763933016476946, 0.09744001187840388, 0.09725156375522374, 0.09705320636493948, 0.09688715538558187, 0.09678001904100368, 0.09662286276866296, 0.09647560312484392, 0.09632262435988527, 0.0961945403357089, 0.09605835598794366, 0.09594488476792895, 0.09583608063368078, 0.09570061655525894, 0.09560373143139625, 0.09548429093499933, 0.09539350727677183, 0.0953025783307715, 0.09524771238198575, 0.0951517119943619, 0.09509760087131228, 0.09499924298938468, 0.09490381297245552, 0.09471517852633982, 0.09463534018459063, 0.09465290183914567, 0.09455093943011239, 0.09445018126836799, 0.09432830348861904, 0.09423021049794028, 0.09407201373421796, 0.09397598362581758, 0.09387333510274332, 0.09374122182293658, 0.0936281300739373, 0.09352979757841053, 0.09339773649517198, 0.09325894915129863, 0.09310246937974298, 0.09295090141887535, 0.09282620131455048, 0.09265394439763054, 0.09247521942635532, 0.09224521319759743, 0.09205768170193324, 0.09190273420901461, 0.0916889104108341, 0.09146691956042988, 0.09129134470153535, 0.09104465725157924, 0.09075393905872589, 0.09049829881710034, 0.09023250093594205, 0.08999374830980514, 0.08970171461733481, 0.08940589158615074, 0.08909423409259148, 0.08877253185253339, 0.08834488978209394, 0.08801355832009276, 0.08769488688789118, 0.08732642311988027, 0.08694342162730055, 0.08660231737310244, 0.08618319900443747, 0.08577292012225055, 0.08532819904584925, 0.08487245851247764, 0.0843232691511147, 0.08385436937370493, 0.08340341027620565, 0.0828964646991868, 0.0823751054191575, 0.08182587687619175, 0.08127731651318232, 0.0808196223325231, 0.08022731241719226, 0.07962594493261475, 0.07897985217709208, 0.07836262998041124, 0.07773243530267802, 0.07708908104065695, 0.07643242374829681, 0.07574893100842013, 0.07506709125769671, 0.07438576193369838, 0.07367363635044563, 0.07294830187692825, 0.07228228803620913, 0.0715214358683119, 0.07068845052453583, 0.06991705017238467, 0.06913219726091727, 0.06840391427685168, 0.06758391862821082, 0.06672949303977366, 0.06589456317465389, 0.06504870680234617, 0.06418926663067748, 0.06332202267901452, 0.062458676026049154, 0.06156797552208692, 0.060679662712628125, 0.059768130467669454, 0.05884780089843961, 0.05796708379951609, 0.05702328719500204, 0.05617175770279418, 0.055203832415342276, 0.05423531123426699, 0.053284151969370905, 0.052309697367172205, 0.051263817658006486, 0.050294450788673735, 0.049318604927037164, 0.04845069625602169, 0.0474483143072707, 0.0463863610303888, 0.04539279915561631, 0.04439577072545218, 0.04348680818765797, 0.04247200295672648, 0.04143951491169373, 0.040431801069688564, 0.03942479144794076, 0.038409111784299434, 0.03740485783437359, 0.036495093829376865, 0.035480248218310265, 0.03447184812226146, 0.03346148571534901, 0.03246607292356194, 0.031457174745339024, 0.030474829660913857, 0.029496948302615362, 0.028644757597201743, 0.02766167012825852, 0.026621232073711344, 0.02567144765896385, 0.02472940331135374, 0.0238276872709949, 0.022898173960245752, 0.022081485874049775, 0.02116082840831609, 0.02025718426270158, 0.01932039380330755, 0.01845579015699753, 0.017597712656708432, 0.016760768536991495, 0.01593740264662486, 0.015224789923861093, 0.014417852229682775, 0.013595222334163014, 0.012833799679516457, 0.012090623231287533, 0.01137540411904645, 0.010668519592883084, 0.010019100738036168, 0.009347571585764576, 0.00869882160374383, 0.008079725672163428, 0.007476236603213857, 0.00700267472627859, 0.006433743040847955, 0.0058952426843557545, 0.0054001425298297635, 0.004919573234391995, 0.004416859049718527, 0.0040031905419645976, 0.0036165730846278205, 0.003334012818948904, 0.002993242015233535, 0.00271485322439859, 0.002435966003564417, 0.0021915569971326576, 0.001934513606326444, 0.0017647735267139677, 0.0015986398651053498, 0.001496622668657874, 0.0014259394308832414, 0.001510946930478738, 0.0014897312446385412, 0.001486345923870621, 0.0015491098572689868, 0.0016509077603139818, 0.0017301262297425785, 0.0019183404025651255, 0.002173658014158328, 0.0024312133952219075, 0.0027283198810018005, 0.003078922673468664, 0.003454989637218037, 0.003944101994797807, 0.004395337241041657, 0.004893297225126689, 0.0053962265059742205, 0.005992599795701607, 0.006645295019961764, 0.007329028166540364, 0.008058518468700397, 0.008776359223869832, 0.009605693575393537, 0.01050680343186926, 0.011420562916928877, 0.012381110936523741, 0.013465507625619775, 0.014511485207806573, 0.015606015964269892, 0.016757517545551145, 0.01796113677334817, 0.019144353686863392, 0.020461405910951403, 0.02188167071753511, 0.02328875676401707, 0.02474841388192441, 0.026275567789116737, 0.027838975155030917, 0.029471054936331155, 0.031140464359202914, 0.03286476093364812, 0.03465467517793357, 0.036487378629787307, 0.03835412960490112, 0.040300590916418924, 0.04230135482263244, 0.04431230226670886, 0.04642785984319269, 0.04861461107305909, 0.05083311670046972, 0.05310609636814739, 0.05541369441967368, 0.057799005177173034, 0.06026127224797343, 0.06275232335857892, 0.06529948340295211, 0.06784511167442556, 0.07051208437844622, 0.07332484596533607, 0.07608688238430293, 0.07890821505706637, 0.08176162103302673, 0.08470387679764074, 0.08763711174068244, 0.09070117799536495, 0.09381818313248523, 0.09706779909411663, 0.100281914887154, 0.10349812198256986, 0.10683595189410938, 0.11022832539973336, 0.11364847385495144, 0.11715355554176364, 0.12073061794120228, 0.12433987039317902, 0.12800367165259946, 0.1316977686257678, 0.13547344704602565, 0.1393946360508168, 0.1432643224880139, 0.14719205092278267, 0.15109642656853817, 0.15514801051178398, 0.15924944835235139, 0.16340355227575498, 0.1676086437665283, 0.17192368644408818, 0.17622287063471975, 0.18058258087958462, 0.18498782500975536, 0.18944585453878868, 0.1939008906904613, 0.19846931645971527, 0.20312563569743589, 0.20778396975450603, 0.21249170874276938, 0.2171542389599201, 0.22197084324224453, 0.226876756927053, 0.23177219009319336, 0.23671278557872366, 0.2416712838301864, 0.24670436263705353, 0.25175696911165096, 0.25687737273325856, 0.2620382487615432, 0.2672984907989303, 0.27253219332681605, 0.2778277079678248, 0.2831442031778537, 0.288503065417236, 0.2938455596729379, 0.29929350772146057, 0.30483676419753036, 0.3103492201363697, 0.31590024309882203, 0.32147269877678214, 0.32709985757534715, 0.33269991427726653, 0.33840339550858245, 0.3441364209491019, 0.34992819799752856, 0.3557155039218315, 0.3614428427987584, 0.36730078577267533, 0.3732882503432786, 0.37917957992536666, 0.38510005521225366, 0.3909411208604613, 0.3969301143577835, 0.40300604465011236, 0.40902591864179816, 0.41506882801397066, 0.42112846491040234, 0.42721530408647895, 0.4332481769056586, 0.43938321489174903, 0.44553213720960294, 0.4516959285707198, 0.45787128946802524, 0.464033771521409, 0.4702370277385265, 0.4764502206681909, 0.4827265503058157, 0.48895120343005927, 0.4951104985900391, 0.5013660514108672, 0.5076261912504232, 0.5138997807330731, 0.5201662171338466, 0.526418477063656, 0.5326928639045511, 0.5389678690148031, 0.5452292996031335, 0.5515048943991806, 0.5578222244039139, 0.5640862588799742, 0.5703485561330003, 0.5765863828428729, 0.5828441863021523, 0.5890375780118795, 0.5952882900318939, 0.6015269644708322, 0.6078308678807478, 0.6140336889799654, 0.6202294706806967, 0.626411073215664, 0.6325802745901615, 0.6387316552542432, 0.6448724207209862, 0.6509964735482274, 0.6571025388716718, 0.6631893622273934, 0.6692382508519411, 0.6752851098265847, 0.6813027228817289, 0.6873014683635231, 0.6932739478907989, 0.6990942684006303, 0.7050269855373641, 0.7110187394492051, 0.7168667679858975, 0.7226836769648941, 0.7283784670518246, 0.7341414269518485, 0.7398463176115158, 0.7455327954078749, 0.7511782133367965, 0.7568157973249263, 0.7623737199112024, 0.767834760493735, 0.7733179896917843, 0.7787558163814831, 0.7842095474016767, 0.789547283565651, 0.794766261532509, 0.8000252247558873, 0.8052340846586754, 0.8103842407173208, 0.8154922197203802, 0.8205787180671674, 0.8255774133414125, 0.8305241371970896, 0.8353749340237349, 0.8402201937662475, 0.8450054234534112, 0.8497356902240459, 0.8544071339397693, 0.8590029435834295, 0.8635566584561034, 0.8681008416047997, 0.8725234822031359, 0.8768858377845495, 0.8811156119418965, 0.8853630564722015, 0.8896329158676817, 0.8937334069271107, 0.8977704262572448, 0.9016715406511046, 0.9055868948388459, 0.9094164078040955, 0.9131909731028663, 0.9168925841433208, 0.9205731776537128, 0.9241209238053658, 0.9275126690075111, 0.9309273890029904, 0.9342641506741133, 0.9375550131923518, 0.9407312239252207, 0.9437688616896682, 0.9467987257204313, 0.9497472114592039, 0.9526182933032415, 0.9554032946124036, 0.9581309935891628, 0.9607497592283455, 0.9632879152102841, 0.9657624392209052, 0.9681357339235515, 0.970356802829997, 0.9725763910036446, 0.9747097606195777, 0.9768509419537819, 0.9788000312631948, 0.9806761982152659, 0.9824614738595994, 0.9841646207472423, 0.9857513022258118, 0.9872922129644667, 0.9887067369300567, 0.9900802440577727, 0.9913648208287645, 0.9925162278129613, 0.9936287580533189, 0.9946648249821115, 0.9955934115193162, 0.9964323299857759, 0.9972542784186439, 0.9979052174490755, 0.998475074140033, 0.9989548308665721, 0.9993488646887986, 0.999636673230265, 0.9998607918129947, 0.9999447866833395, 1.0, 0.9999645043779775, 0.9998938153146666, 0.9996712892731022, 0.9993194795781136, 0.9989297231002534, 0.9984512055028703, 0.9978735739882438, 0.9972200604821976, 0.9964649187959299, 0.995637179550473, 0.9947214303170014, 0.9937813585212665, 0.9926833100083082, 0.9914004095227127, 0.9901497105191782, 0.9888106107615195, 0.9874216747056451, 0.985903860058195, 0.984275644342724, 0.9825946697099871, 0.9808297127061373, 0.978984220408499, 0.9770532258269372, 0.9750715223726711, 0.9729741320998945, 0.9707982764219772, 0.9686115472472974, 0.9662716471253746, 0.9637846320321113, 0.961307561891331, 0.9587531958582809, 0.9561746914440816, 0.9534614764987517, 0.9506494322139222, 0.9477960655644395, 0.9448700758203129, 0.9418211689957977, 0.9387586205948633, 0.9357182215404135, 0.9324984552709282, 0.9292132754053392, 0.9257758092360613, 0.9223721598012496, 0.9190030691317052, 0.9154499887145657, 0.9118365007426003, 0.9080945672584465, 0.9043703545514753, 0.9006143682309359, 0.8967621603940873, 0.8928514819565896, 0.8889141942973455, 0.8848856238392245, 0.8807966127075164, 0.8766622475589261, 0.8724754516198948, 0.8682116773999152, 0.8639261867770389, 0.8596341641160313, 0.8552426557195643, 0.8508053513290236, 0.8462721540427235, 0.8417525563521304, 0.8371496371022621, 0.8325448270056841, 0.8279716655593784, 0.8232691350770334, 0.8185294539336109, 0.8136824897971109, 0.8088806643289477, 0.8040328640665028, 0.7991579342652915, 0.7942480145870627, 0.7893477703722444, 0.7843674730954241, 0.779347464285214, 0.7743146736311727, 0.7692560497794603, 0.7642629148731072, 0.7591452933683454, 0.7539034986449392, 0.7487665964481688, 0.7436082529806556, 0.7385147229043043, 0.7333077240313467, 0.72800563041865, 0.7227863641731503, 0.7175524020222455, 0.7124182028317314, 0.707145520040567, 0.7017847348023561, 0.6965163979759116, 0.6912411982437451, 0.6860170280067359, 0.6807254287684955, 0.6754560441550751, 0.6701641772749327, 0.6648762714427134, 0.6595703973024781, 0.6542960536373834, 0.6490541040526429, 0.6437886660294917, 0.6385327435927493, 0.6331880022733368, 0.6279668281919821, 0.6227528116030827, 0.6175478823471207, 0.6123538927981087, 0.6071551660802736, 0.6019905386086494, 0.5969014482905011, 0.5917611309737943, 0.586642714465985, 0.5815056850392303, 0.5764396813744971, 0.57142344757712, 0.5664013208714864, 0.5614064660378787, 0.5564991167741354, 0.5515547635327008, 0.5465786019929212, 0.5417111908400838, 0.5368753988825307, 0.532071135420357, 0.5273024775541632, 0.5225650007447964, 0.5178684463700972, 0.5132091964396006, 0.5085924306095138, 0.5040107026300823, 0.49952626900295377, 0.49502022711503885, 0.49056028277548525, 0.4860757955316177, 0.4817186766859345, 0.4774805573884574, 0.4732027185989654, 0.4689752321994221, 0.4646938424169015, 0.46058180159868006, 0.4565399575789905, 0.4525183150173615, 0.4485467745211244, 0.44460757471268414, 0.4407416796974906, 0.43692242181668234, 0.43316226372444805, 0.42945583025086015, 0.42584974039938994, 0.4222478053234968, 0.4186565179551314, 0.41517910165397526, 0.4117588056998744, 0.4084152318760818, 0.40510914831989436, 0.4018554242907038, 0.39867168720155577, 0.3955488756214506, 0.3925277812795203, 0.389523208940975, 0.386559067259879, 0.383686840933947, 0.38087804019383464, 0.3781141612811087, 0.37543545920273463, 0.37283204489913174, 0.3702786072094395, 0.36778978871191664, 0.36531208999335046, 0.3629599257663408, 0.36074380198845946, 0.35850724042346355, 0.3563380844871549, 0.35420394151757717, 0.35217318908235123, 0.35019144856302564, 0.34829309701536176, 0.3464591561780625, 0.34476366152198534, 0.34304968821007176, 0.34135766512041715, 0.33978698974207067, 0.33828156815566424, 0.3367956367699404, 0.33542615650441787, 0.3341364408183856, 0.33288956129186714, 0.3317062884575561, 0.3306362315643832, 0.32957361598754537, 0.32851526837342737, 0.3275919496726862, 0.32673002925981964, 0.325903918893743, 0.3251677470937041, 0.32446296297988425, 0.3238495134636672, 0.32329395983629156, 0.3227762306788928, 0.32233914284545845, 0.3220500942048429, 0.32171489652137203, 0.32144143814183324, 0.32114554708438664, 0.3210033719784066, 0.32096928812185377, 0.3209288729472407, 0.3209453750208966, 0.3209777362047534, 0.3211108439858472, 0.3213701288126842, 0.32159806409502584, 0.32188147357212826, 0.32210237017109233, 0.3225080644634705, 0.32303719009530524, 0.32352399491115985, 0.32406036129851007, 0.32458492344018103, 0.32522524469012987, 0.32594518288301, 0.3266671835271554, 0.3274336068488501, 0.32821807271870346, 0.32907395557840885, 0.3299970444250702, 0.330929523563096, 0.3319024112340831, 0.33293082899595666, 0.333979512408256, 0.33503697236185376, 0.336164895324077, 0.33732722062166776, 0.33848412888921187, 0.33971753548047673, 0.3409294431019883, 0.3422277443512291, 0.3435514203561345, 0.34499818915325997, 0.3463591870633015, 0.34764913096105265, 0.34908082877260477, 0.350533846516928, 0.3519915738972973, 0.35348770514418165, 0.3550670009083041, 0.3565918210520536, 0.35813774752863964, 0.3596417824970937, 0.36123406472787056, 0.3628618218588482, 0.36447866127547196, 0.36610923504518744, 0.3678009110624455, 0.36944989371594267, 0.37111905512850724, 0.37279270378446994, 0.3744774036077864, 0.3761489303931439, 0.37785447305746084, 0.3794958860190429, 0.3812205570283902, 0.3829448154431336, 0.3847097683207725, 0.38642631036661085, 0.38808931875501557, 0.38981199706702857, 0.391517718584328, 0.3932315968266118, 0.3949387013619328, 0.39664650330864953, 0.3983372315974161, 0.40001838885367996, 0.4016920440863614, 0.4033557971509137, 0.4050249400668951, 0.40666436480976065, 0.408313757760282, 0.40992643266240963, 0.4115268085430954, 0.4130989602721898, 0.41467317704167533, 0.4161650972663433, 0.41771369927587354, 0.4192402380794559, 0.4208329556295921, 0.42230294524223616, 0.4237075324520399, 0.42514542710257847, 0.4265598688572086, 0.4279903956198729, 0.42935059457371927, 0.4306282782331006, 0.4319480313320345, 0.43323896731712525, 0.43445090588468366, 0.4356889919268222, 0.43688857164102185, 0.4380609309737123, 0.4391995238762156, 0.4403712938553101, 0.44143321382944634, 0.442488567304168, 0.4434850891423412, 0.44445053685180097, 0.4453584106956583, 0.4462620408285302, 0.4471223275969987, 0.4479557924821321, 0.44875231950765154, 0.4495140952880831, 0.45023492501929663, 0.45083022935353684, 0.4514851461263705, 0.452095997950644, 0.4526764792366682, 0.4531982316518641, 0.4537578462965657, 0.4541839675985531, 0.4545718250621659, 0.45492337836095953, 0.45523224993075956, 0.45538820311348327, 0.4556305254865165, 0.4558252942198386, 0.456064253705834, 0.45615358796747185, 0.45614518691513073, 0.45615850424426874, 0.4561264102297724, 0.4560140563655866, 0.45589574023809115, 0.45572887269147666, 0.45551662539135795, 0.455257686976751, 0.45492545358178443, 0.4545772605143272, 0.4542030324957781, 0.45375747564341173, 0.45326635089469214, 0.4527633736310708, 0.45217728910844135, 0.45149689712411223, 0.4508305644692786, 0.45011783403855027, 0.44936843652843916, 0.4485626936092093, 0.4477845321910485, 0.4468799594312655, 0.44593493781857546, 0.44484435065257255, 0.4438306366708244, 0.4428059628732176, 0.44169391338914477, 0.44053800648684194, 0.43936272660601017, 0.43811699041983604, 0.4368189618596105, 0.4354916200501382, 0.43412242702510734, 0.4327479236499434, 0.4312913109997665, 0.42967895410247026, 0.4281593312574731, 0.42659438018506146, 0.42506978764101194, 0.42340666711143776, 0.4217275019290238, 0.41998681807516325, 0.41821027454385434, 0.41639395365716847, 0.41454658583515647, 0.4125561884870912, 0.4106514956750962, 0.4087057903063169, 0.4067713256029237, 0.40474073815532746, 0.4026579961166048, 0.40056083127620556, 0.39842920570415685, 0.3962343210012512, 0.39403972622258976, 0.39189311154107176, 0.3896212232091735, 0.38732182675238885, 0.38491455009232795, 0.3825709780265994, 0.38021089712384737, 0.37780388333390197, 0.3753683505779761, 0.3728742020965798, 0.37038788697380304, 0.36797972347171526, 0.3654251123222503, 0.36285045639054386, 0.3602007548117461, 0.3575932153499426, 0.35495218094877723, 0.35230119411898525, 0.3496282478999006, 0.346918010857462, 0.3442055217418837, 0.3414657716061596, 0.33871392062843525, 0.3359428866764845, 0.33321801841590637, 0.3304031129282916, 0.3275900083498137, 0.32474759488158494, 0.3218936877899127, 0.31898558393916154, 0.31611498212060635, 0.3131857741837941, 0.3102958031595679, 0.3073918236272869, 0.3045461174948807, 0.3016083978418208, 0.2985926688407939, 0.29565067117925403, 0.2926986664626882, 0.2898383992157894, 0.28685668500211803, 0.2837795657778402, 0.2808070238500655, 0.27782805483700734, 0.27484497405850067, 0.2718558567815307, 0.26895181415388597, 0.2659452263049084, 0.26294172046757247, 0.25985005652102966, 0.25686455084096094, 0.2538962109168743, 0.2509060361197958, 0.24791718893938644, 0.24497606276285447, 0.24198628259572047, 0.2389891070903361, 0.23601340027478235, 0.23304361805321658, 0.23003457090643498, 0.22708382404168173, 0.22416875252743354, 0.22122453196752384, 0.218288498275831, 0.2153370028685575, 0.21242196339339126, 0.2095045634139923, 0.20660834646262136, 0.20372127620956632, 0.20095150896517028, 0.19807128810023486, 0.1951733955676999, 0.1923318343413766, 0.18950515142667532, 0.18673113371183242, 0.18393003872135402, 0.1810821097245248, 0.17832436793234277, 0.17558059599875753, 0.17286345430084926, 0.17014779472111516, 0.16741486766989203, 0.16473647408247863, 0.16207331649146547, 0.15946634595924553, 0.15683051751340693, 0.154212711555417, 0.15161600487512467, 0.14903903628603848, 0.14646324702207394, 0.1439288576524384, 0.141378963118461, 0.1388882001463963, 0.13643042231881022, 0.13397484962678402, 0.1315395273150668, 0.12917052146841404, 0.1267711196981211, 0.12444266396681804, 0.12208516346301997, 0.1197541740194872, 0.11736067968198464, 0.11509282379246479, 0.11290595691535134, 0.11067207139490227, 0.10846307623119125, 0.10621980382275593, 0.10406783914516897, 0.10197218167554016, 0.09985903515036677, 0.09777009060662535, 0.09573094139287108, 0.09368740564732858, 0.0916482385527611, 0.08965898693714944, 0.08769411946215766, 0.08572415924059822, 0.08381198768348777, 0.08197106315658197, 0.080098866559815, 0.07825281106349788, 0.07646897524429343, 0.07467009609357578, 0.07288413023984826, 0.07114206075575409, 0.06942603740798065, 0.06770629463319912, 0.06604545397524147, 0.0643936242836207, 0.06278228708591134, 0.06119402775823479, 0.05960214513609725, 0.058063876710360916, 0.05661604694196058, 0.05511331017230793, 0.05363689335306112, 0.05220792245743635, 0.050780374087411075, 0.049380688169167436, 0.04800554500525347, 0.04665610763422393, 0.04530914597924006, 0.04401283559529124, 0.042674037607444426, 0.04143254158933145, 0.040210399123332526, 0.03899591633996188, 0.037815116758048085, 0.03676005684206668, 0.03560544859941151, 0.03447698484958741, 0.03334042073838218, 0.03226652603579468, 0.03124591509518862, 0.030212652329091025, 0.029203010519390407, 0.028220522709360756, 0.027256161485728316, 0.02622160223301916, 0.02531344397545072, 0.024421705533283274, 0.023558836146217642, 0.02269942862386496, 0.021953349094110654, 0.021117926819438717, 0.020305946572756688, 0.01942666632845261, 0.018670702000093763, 0.017929661412250587, 0.017206523121181868, 0.016499777684344085, 0.01580947417103744, 0.015135623764397692, 0.014581605727786773, 0.013927488670926072, 0.013295471340093451, 0.012622845377606502, 0.012040112351762944, 0.011442555583261283, 0.010895635552764628, 0.010362608377903657, 0.00995227571317928, 0.009433333438564688, 0.008847092926789563, 0.008378233066916728, 0.007922683886625034, 0.007530063416564063, 0.007094629898720266, 0.006731440445068078, 0.006320046870039384, 0.005926669553544324, 0.00545909545585898, 0.0051106923912787525, 0.004821085351805997, 0.004487546474723473, 0.004167289875520177, 0.0038787468699543665, 0.0035815958885069455, 0.003281633900133772, 0.003012675912708918, 0.002755250695407402, 0.0025735648164101027, 0.002330313497482067, 0.0021256693381543, 0.0019075003206635323, 0.0017037337921145246, 0.0014665842989832506, 0.0012952964171527572, 0.0011699225707943748, 0.0010131846095019282, 0.0008677959245584119, 0.0008138871080477256, 0.0006797293974604726, 0.0004984797153349621, 0.0004005311768823564, 0.00031198520213037296, 0.0003386799958572973, 0.00025480726297453057, 0.00011848595063660531, 7.14731041380232e-05, 3.347226879609567e-05, 2.3042638347031387e-05, 0.0, 5.757415801891528e-05, 4.4120763720112505e-05, 4.354884126135406e-05, 4.298099723841979e-05, 6.743016046399894e-05, 0.00010603896420686446, 0.00014982775695079778, 0.00020321015709843807, 0.00037866127185446166, 0.0004360404773624654, 0.0004977741946394009, 0.0005856166431080929, 0.000685923076361799, 0.0008758613286859371, 0.0009891994620244498, 0.0010785890094416567, 0.001225791619083352, 0.0013838599988265908, 0.0016329253245009284, 0.001801297696315751, 0.00200546535561897, 0.002198878616735682, 0.0024062250127012395, 0.00264284997913283, 0.0028738500207847882, 0.0030506183674423575, 0.0033153888480858883, 0.003588323565388783, 0.003939452202958928, 0.004220503085543598, 0.004494142617242671, 0.004802885432008552, 0.005122669893158818, 0.005515258218379642, 0.005849324583080426, 0.006244984853185395, 0.006601893365947454, 0.0069753182252881175, 0.007323016807077664, 0.007733014020149441, 0.008206715929541792, 0.008635643296801682, 0.009080213585017623, 0.009560266425523656, 0.010032745502774698, 0.010517291371994222, 0.011022220589221109, 0.011542594617605028, 0.012188455138853834, 0.0127256268867515, 0.013281673033020228, 0.01386149231154299, 0.014461243726517647, 0.015077730107010441, 0.01571626623354948, 0.01633578122924726, 0.01701604902562032, 0.01771250020467241, 0.018516717217744595, 0.019234811000133543, 0.019972390538415895, 0.020734756677580325, 0.021518426819667737, 0.02227486435164439, 0.02310675557576515, 0.02402805979207635, 0.024887838222933042, 0.025770668716750964, 0.026728767289214535, 0.027650683779260873, 0.02851373134012688, 0.02949742743407115, 0.030586046564086703, 0.03160017863052502, 0.03264035665382932, 0.0336902676724013, 0.03478405861182952, 0.035913365828030404, 0.03705548552034276, 0.03822330061234154, 0.0394343936687139, 0.040651806404148824, 0.04192055306995653, 0.04318932027385109, 0.04448682187988208, 0.04574857114600462, 0.04711166254009226, 0.048502632405400176, 0.04991640686861973, 0.0513567719724577, 0.05282294706995937, 0.05431832764075486, 0.055917045819315975, 0.057459699460351704, 0.059035707526171356, 0.06059793381986825, 0.06224624410925626, 0.06399888694707515, 0.06569920010080603, 0.06743491182150753, 0.06919909236383563, 0.07100586998397124, 0.07278812636816694, 0.07467152045972296, 0.07658623137473919, 0.0786013077494282, 0.08057164796661491, 0.08249414429173449, 0.08454862388368246, 0.08663501009488923, 0.08879159129668654, 0.09093904798121966, 0.09307274703371322, 0.09529858619034393, 0.09755804638918548, 0.0999095053062289, 0.10223075334870546, 0.10455434804922038, 0.10695740924751578, 0.10939709493871345, 0.11186434451832802, 0.11437946131841419, 0.11695713474620748, 0.1195434535967097, 0.12216890509799898, 0.12479999865424068, 0.12750820425798887, 0.1303022445690985, 0.13307966735018073, 0.13589795423456197, 0.13869656589479795, 0.14160391040788012, 0.14460350704414465, 0.1475786990826448, 0.15059496782992987, 0.1536803974129807, 0.15677491762803367, 0.1598352402951017, 0.16302382183158776, 0.16624986838339273, 0.16957686578061504, 0.1728709232420074, 0.17614920910340137, 0.17953423686239708, 0.18295746836962737, 0.1864835937351236, 0.18997573716960178, 0.1934162759247244, 0.19700469889615677, 0.2006294739498898, 0.2043313007034224, 0.2080248547777876, 0.21172582551039826, 0.2155026399394211, 0.21931706358844383, 0.2231692192727047, 0.22705918330137417, 0.23103801864829124, 0.23499720772664368, 0.23899705309841707, 0.24295246577476268, 0.2470428777614265, 0.2512228486902283, 0.2553755421379274, 0.2595662362560706, 0.26380399023598206, 0.26806846765174946, 0.2723113434621328, 0.2766578250381112, 0.2810376029892326, 0.2854332594506775, 0.28988189654461244, 0.29441248125947067, 0.2989193722963183, 0.3034612775103452, 0.3080336605479337, 0.3126445761174738, 0.3173115725835721, 0.3219856163767987, 0.3266932059431891, 0.3313315909940891, 0.33611711625141943, 0.34101839707003917, 0.34584427340914903, 0.35070121192153886, 0.35549715474839483, 0.36042554879402217, 0.36536156998215147, 0.37033950284240574, 0.37534022250667554, 0.3804362271630915, 0.385473211128491, 0.3904521412862634, 0.39555207640995926, 0.4006721340894479, 0.4058269347174418, 0.4109848349825535, 0.41621268449604226, 0.42140433664725635, 0.42661801240286756, 0.4317896187721482, 0.43705240136477697, 0.44238448230899124, 0.44767120026698853, 0.4529755829748571, 0.4582402536431753, 0.46358417815068703, 0.46889269693891694, 0.47426525258736457, 0.47964570989553224, 0.4850607033261974, 0.4904528085846154, 0.4958775639295847, 0.5012828853613459, 0.5066966340289284, 0.5120923414700355, 0.5175233014759737, 0.5229288285467074, 0.5283709740546456, 0.5338139985718933, 0.5392371651311648, 0.544682658079186, 0.5501796732602373, 0.5556134064145248, 0.5610467370150576, 0.5664033353664913, 0.5718419893884299, 0.5773518802113106, 0.5827640200407108, 0.5881715231026381, 0.5934898502277584, 0.5988947878450439, 0.6042530671485834, 0.6096355264612352, 0.615001847763848, 0.6203449097136373, 0.6256784960302125, 0.6309793223391861, 0.6362782110403805, 0.6415570353627054, 0.6468527944486493, 0.6520848611698074, 0.6572351943396866, 0.6624340586473914, 0.6676073017696905, 0.672738193852494, 0.6778603174356739, 0.6829672995310266, 0.6880299146671705, 0.693063309785857, 0.6981444748967539, 0.703106854777287, 0.7079932487656351, 0.7129048419417879, 0.7177829056018447, 0.7226316925684394, 0.7274386620675273, 0.7321325046762005, 0.7368748293642001, 0.7415739685235158, 0.7462119394893703, 0.7508252722131193, 0.7553792414560493, 0.759901838724936, 0.76437655600241, 0.7687799885944553, 0.7731600429062031, 0.7774675431103766, 0.7817476207420664, 0.785974245406799, 0.7901522833279754, 0.7942697366539053, 0.7983202344951538, 0.8023287432092229, 0.8062989964754915, 0.8101903048445126, 0.814024148509057, 0.8178157042268759, 0.8215297576070855, 0.8251387529315951, 0.8287386921321622, 0.8322745100254032, 0.8357508894931076, 0.8391556910620809, 0.8424904975230076, 0.845763072814453, 0.848967840791426, 0.8520865582947053, 0.8551555548604297, 0.8581211598915878, 0.8610512488950955, 0.8639070345964887, 0.8667015181525876, 0.8694056753216736, 0.8720979990466448, 0.8746436386623524, 0.877116583225509, 0.8794042111065361, 0.8817424314494586, 0.8840991075962711, 0.8862599765577818, 0.888343985392144, 0.8902520861794926, 0.8921917733634734, 0.8941173844426823, 0.8958775045867288, 0.897556179984924, 0.899143275881161, 0.9006580816478941, 0.9021009015907655, 0.903445479231763, 0.9047055737512691, 0.9057812045935273, 0.906883111280747, 0.9079711282842285, 0.9088799271139222, 0.9097018412899168, 0.9104243280210793, 0.9110726582688091, 0.9116321381812965, 0.9121024908375485, 0.9124834545271521, 0.9126955533905888, 0.9129070365493142, 0.9130897995855524, 0.9131043638113633, 0.9130289270102704, 0.9127733190405207, 0.9125286867708324, 0.9122139923330791, 0.9117755714085775, 0.9112441209275725, 0.9105849868566334, 0.9098726503073796, 0.9091640702566641, 0.9082512747257668, 0.9072506300658677, 0.9061536933840477, 0.9049772798805079, 0.903631033935347, 0.9022861600821638, 0.9008472961130825, 0.899328485870247, 0.8977017536427908, 0.8959419011183014, 0.894137869635147, 0.8922408434340062, 0.8902864833883213, 0.8882012500861145, 0.886037846860644, 0.8837737920515681, 0.8814221654784202, 0.8789953566631129, 0.876467995782965, 0.8737795306699733, 0.8710901593486597, 0.8683112770195754, 0.8655150241629346, 0.8625509854148714, 0.8594357370256137, 0.8563152112106212, 0.8531087660645024, 0.8498562911303108, 0.846475897970543, 0.8429648573297718, 0.8394294018444822, 0.8358113791103345, 0.8321923945928494, 0.8284021252662809, 0.8245475899823328, 0.8206062769199096, 0.8165912940205768, 0.8124224517533882, 0.8082715398168463, 0.8040276846039819, 0.7997263863670516, 0.7953497998378274, 0.7909516197442132, 0.7864217703965215, 0.781811364195612, 0.7771469229259856, 0.7724150099444859, 0.767573638084498, 0.7627151889974461, 0.7578247824081877, 0.7528295591552673, 0.7477721685226445, 0.7426388970222496, 0.7374622309372063, 0.7322177362071085, 0.7269237728388296, 0.7215720403746684, 0.7161611477788812, 0.7106980959761928, 0.705172938012863, 0.6996041132793189, 0.6939833961122903, 0.6883752674480865, 0.6826468726507681, 0.6768097409774819, 0.6710017765214269, 0.6651476495221306, 0.6593361159647186, 0.6533830185365311, 0.6473124485071462, 0.641296468997343, 0.6352406050349007, 0.6291732402442574, 0.6230387733944466, 0.6168637466759849, 0.6106637052664983, 0.6044319919878683, 0.5982102447635247, 0.5919141547075584, 0.5855363257269066, 0.5791977366860853, 0.5728327800651631, 0.5664242392466782, 0.5600136556382758, 0.5536824010663581, 0.5472151325207858, 0.5407341866732918, 0.5341852996371081, 0.5276864172773928, 0.5212123076009928, 0.5146815951849891, 0.5081417670961453, 0.5015348547619173, 0.49498765683107643, 0.48847177142738957, 0.48190321944122266, 0.47533129465362706, 0.4687089491437697, 0.4621402883677724, 0.45554528350945983, 0.4489770410874821, 0.44240863813440157, 0.4359036618956931, 0.42933250854308236, 0.4227940942820763, 0.4162381641258492, 0.40969446090065037, 0.40309412912633963, 0.396586665038491, 0.39009589738457584, 0.3836120246331565, 0.37714297043692424, 0.370688874346714, 0.36425403687902974, 0.3578020217643093, 0.3514113162276679, 0.345040397378019, 0.3387096801085391, 0.3323807354644435, 0.3261430857710633, 0.3198580901596584, 0.3136048114972128, 0.30740005382166474, 0.30121027672238243, 0.29504320914929444, 0.28892520771104474, 0.2828426761936926, 0.27681389958426916, 0.27080260026036784, 0.2647483650003046, 0.25882611101920283, 0.2529397203229612, 0.24712553869595374, 0.24131068650177154, 0.23548806920739046, 0.2297643069914798, 0.22408158697940017, 0.2184680908094749, 0.21286796150180465, 0.20726043353820517, 0.20176064149640122, 0.19630594550591376, 0.19087748618998612, 0.1855192984570033, 0.1802342016057888, 0.17496915608429514, 0.16979575142403366, 0.16462916678256906, 0.1595178416681644, 0.15450652127114953, 0.14950140066339132, 0.14448816658352667, 0.13960966211514947, 0.1347865887487659, 0.13001290805031288, 0.12530353448458775, 0.12071558553652967, 0.11611261183557907, 0.1115714160453226, 0.10704098836791891, 0.10262988708094985, 0.09822277774044234, 0.09393723571524805, 0.08970861168094475, 0.08564117498354482, 0.08151582561654142, 0.07741390882106271, 0.07342373482722335, 0.06949589421687367, 0.06563191122918181, 0.06182909243898662, 0.058071711042487845, 0.05439700145331429, 0.0507844126632174, 0.04725564575883228, 0.04376519017242776, 0.04030636858758993, 0.036947651177953185, 0.03365085047747707, 0.030438967911277617, 0.027263586231173486, 0.024073899192365942, 0.021035389269013795, 0.01805579383610546, 0.015201367383114702, 0.012332546169104692, 0.00954084471962591, 0.006797370109195925