0.051973249235516314, 0.05138103575460475, 0.05058271746108632, 0.04979836766001413, 0.04886703608444192, 0.04812496031800489, 0.04753469029468021, 0.04677289409004448, 0.04601935141711265, 0.04531431756475118, 0.04456858536031313, 0.04381303078073345, 0.0430833163085965, 0.04235810129104013, 0.04151236989583174, 0.04081012578371715, 0.04006930556187742, 0.039364065079568564, 0.03865417655518918, 0.038023435857360274, 0.037296292605071946, 0.03661645531218559, 0.03588839550566496, 0.03516524628886736, 0.03445013486816206, 0.03373544715198516, 0.032990503875580564, 0.032288589262463294, 0.031785651217093924, 0.031063051167308998, 0.03035387537732119, 0.02954960164550184, 0.02887679487789785, 0.028356330876731076, 0.027672249974475607, 0.027000278547213083, 0.02622179309301209, 0.025585644013066244, 0.025017742480274257, 0.024378756913305894, 0.023746603768667794, 0.023117584300664722, 0.0224988707707511, 0.021889716961580676, 0.021282740174485525, 0.02068203385846298, 0.020146355329452678, 0.0195508475477737, 0.018996155788649164, 0.01841578882691542, 0.017846240424257545, 0.01732851562396466, 0.01677407966830102, 0.01629733927546125, 0.01575815425228889, 0.015233734021775105, 0.01480269359163083, 0.01429533279307891, 0.013929456317332964, 0.013439465485390711, 0.012971564498973027, 0.012413453804713908, 0.011998801958861278, 0.01166475088307663, 0.011264249335234596, 0.01087900648856417, 0.010556902821937192, 0.010194711920813164, 0.009877041050531473, 0.009544583754256031, 0.009229643611544961, 0.008980111757744677, 0.008692775424019148, 0.00842461527809883, 0.008175123798220978, 0.007943935381557755, 0.007806827639033078, 0.0076020245740560525, 0.007346827254744232, 0.007194976820298491, 0.007060255655754481, 0.006915327976530336, 0.006819325446956581, 0.006909259054430839, 0.0068257389234563275, 0.006769626385374362, 0.006740196755944373, 0.006736888751569418, 0.006790384816599233, 0.006834270473099452, 0.006905149555532628, 0.006881764522099723, 0.0070210799861211, 0.007283646044247362, 0.007450005447810238, 0.007643674088358866, 0.007830159224443318, 0.00808306477328964, 0.008296064392787092, 0.008609277392806924, 0.008945591441495565, 0.009437368600881886, 0.009806398679134305, 0.01008104868226161, 0.010533011931533276, 0.011011015428049904, 0.011619734609718262, 0.012139694364113794, 0.012697829296925325, 0.01328680053165674, 0.013910757924935428, 0.014452304414776952, 0.015161389032973434, 0.01609275485850577, 0.01683609152128587, 0.01762129353514742, 0.01843743315206195, 0.01930611496483133, 0.020169834002769588, 0.021123964855156527, 0.02211532251783536, 0.023040612719605173, 0.024120646265487836, 0.025295432632874305, 0.026433958229311664, 0.027610922934912453, 0.028878720666183546, 0.030127685496964762, 0.03144382998326147, 0.03277582331447203, 0.034152409328555865, 0.035604666838829735, 0.03706650289820324, 0.03845383940638933, 0.0400237180554649, 0.04163306828926104, 0.04340380489762818, 0.04507967361773187, 0.04665941480023236, 0.04845144759988164, 0.050284042492841914, 0.05216868115876262, 0.05408434503530965, 0.05614789357163222, 0.05813968031118317, 0.06018301148982269, 0.06228808749529062, 0.06443275381649308, 0.0665566427463652, 0.06881394859953543, 0.07111880481613876, 0.07337157372081243, 0.07578586618410041, 0.07840608215949492, 0.08088815611028465, 0.08342527839136557, 0.08588586349951033, 0.08854889118917499, 0.0913625677023835, 0.094107382934101, 0.0969067450455686, 0.09969490702062422, 0.102611402136446, 0.10566147242146536, 0.10866927250719319, 0.1117333166149243, 0.11470130290757437, 0.11789629745488198, 0.12115559266312412, 0.12444350799420381, 0.12778140458019444, 0.13119414515652, 0.1346308829162878, 0.1381276362696533, 0.14166994551432213, 0.14526617397618488, 0.14885076428431684, 0.15256338318024823, 0.15640935541788145, 0.16021287260906236, 0.16407244478738295, 0.16788755927615354, 0.1718709944992909, 0.17600416044236017, 0.1800744894146615, 0.1842008941961462, 0.1882515910061242, 0.19250532508663454, 0.19689621389918904, 0.2012338404498928, 0.205624944062052, 0.21009683470646967, 0.21459038815659526, 0.21918285903767784, 0.22377814219262768, 0.22842878832594024, 0.23306823005391805, 0.23783521224847018, 0.24255108332650976, 0.24742868409594407, 0.2523492485276236, 0.257372027679217, 0.26237249624314174, 0.26740310960265923, 0.27250029473356463, 0.27764327108935694, 0.2828387020456103, 0.2880715937491712, 0.2934085131955749, 0.29872410579221176, 0.30408735653623187, 0.3094005321414204, 0.3148684097749716, 0.3204689410503707, 0.32600360946482926, 0.331582530586417, 0.33713210922141995, 0.34280563779759765, 0.34854051008212367, 0.35428491052721633, 0.3600670028790163, 0.3658757345835234, 0.37173243691155805, 0.3775895624879805, 0.3835199118943687, 0.3894819157822349, 0.3954440150247611, 0.40147181305571844, 0.40760051320140095, 0.41367542845830335, 0.4197818992793495, 0.42592571040517757, 0.4320910454394003, 0.4381329233142251, 0.4443734655153307, 0.45065590386589843, 0.4569288676560983, 0.4632208743193705, 0.46947967877939356, 0.475814981241545, 0.48231001097924847, 0.48865590211010457, 0.4950238805150632, 0.501332801185775, 0.5077500289412042, 0.5140936072113926, 0.5205463069424026, 0.5270050068480151, 0.53351085339613, 0.5399752313391041, 0.5465053568061125, 0.5529753260393767, 0.5594535573886853, 0.565810638422201, 0.5723168819696356, 0.5787470057353563, 0.5852548177950148, 0.5917539026144899, 0.5983581596934827, 0.6048248262736593, 0.6113297680937803, 0.6177833228307739, 0.6242330273233881, 0.6306805028352815, 0.6371166067944151, 0.6433847204631584, 0.6498210789941673, 0.6562359997337515, 0.6627672858275191, 0.6691204939967411, 0.6753996732831776, 0.6817278615362542, 0.6880337680654429, 0.6941433127675463, 0.700422541070106, 0.7067763647988917, 0.7129696828642779, 0.7191330883086071, 0.7253171926127631, 0.7314105249882373, 0.737355605564213, 0.7434005164347959, 0.7494046199325245, 0.7555123026566668, 0.7614141366046976, 0.7671771689187445, 0.7730196780113646, 0.7788170119680998, 0.7845887442182388, 0.7902895971506064, 0.7959221348124492, 0.8015290310134154, 0.8070843576078354, 0.8126214256537422, 0.8180655000536281, 0.8232764911613201, 0.8286349111929706, 0.8339267441044185, 0.8392970476465811, 0.8444370020752242, 0.8495144115021872, 0.8545349761515528, 0.8594929995108013, 0.8642487207579962, 0.8690945270349805, 0.873920771826794, 0.8786095481793388, 0.8832257798572531, 0.8878375788058425, 0.8922969695753216, 0.8966984495616044, 0.9010110079231817, 0.9052494243069972, 0.9092462187205559, 0.9133525154637435, 0.9174570634749877, 0.9213760637150447, 0.9252114489061201, 0.928965660819201, 0.9326303385240914, 0.936246566827946, 0.9397324903177161, 0.9431320364634826, 0.9463436880011413, 0.949579265429036, 0.9528054453918797, 0.9558381839416766, 0.958779227537167, 0.9615479565459859, 0.9643122670225284, 0.9668838311732617, 0.9694606650256091, 0.9719320374264326, 0.9744502986317825, 0.9766923533899168, 0.9787620708840513, 0.9808198831525488, 0.9827747550198932, 0.9847195235222074, 0.9864553392461787, 0.9880298642430203, 0.9895741381360131, 0.9910134907697007, 0.9923577602552526, 0.9935844001148403, 0.9947639313784786, 0.9957709100649035, 0.9966743035039188, 0.9974282604133776, 0.9981274634737014, 0.9987284128179572, 0.9992087652529339, 0.9995805133710591, 0.9998467976446577, 1.0, 0.9999023096690426, 0.9998547632742256, 0.9996896577741499, 0.9994736546060885, 0.9990680591041047, 0.9984960440505599, 0.9978753881142078, 0.9971409299155981, 0.9963555302901452, 0.9953875486696526, 0.9943042005793495, 0.9931202239541645, 0.9918275254067191, 0.9904850168502025, 0.9889679904400037, 0.9872735802654041, 0.9855558765409622, 0.9837289515249295, 0.9818140871456839, 0.9797677557300493, 0.9775597568308443, 0.9753080658343264, 0.9729477535666763, 0.9705073913928963, 0.9679291069108067, 0.9652775805862458, 0.9624873448014951, 0.9595958570855048, 0.9564895457124551, 0.9534113898615346, 0.9502478396111355, 0.9469563368363184, 0.9435628599720728, 0.9400444598043264, 0.9364537799788629, 0.9327806827855804, 0.9289897965520806, 0.925102882043667, 0.9210934579295216, 0.9170214597408123, 0.9129037252415667, 0.908638763272461, 0.9042851310977819, 0.8999301564901976, 0.8953911291333785, 0.8906744670337209, 0.8859862562681642, 0.8812125581697487, 0.8764203864519393, 0.8714715054366853, 0.8664241962453887, 0.861323402452649, 0.8561455414327169, 0.8509574367580053, 0.8456207019912105, 0.8401727705069191, 0.8347025868465721, 0.8291619944896649, 0.8235315670130644, 0.8178567412900758, 0.8120867513119802, 0.8062819771119415, 0.8004113442806138, 0.7945527222795717, 0.7885463029183406, 0.7823905144498097, 0.776284948220642, 0.7701205525038726, 0.7639374221229408, 0.7576567829867124, 0.7513843404069042, 0.7449968680111994, 0.738565525475384, 0.7320086192365253, 0.7255037955428939, 0.7189716308735288, 0.7123774783601303, 0.7057438286920474, 0.6990794855003447, 0.6923716383628145, 0.6855128548209006, 0.6787547667651929, 0.6719775358269041, 0.6651471820025789, 0.65828677605461, 0.651495462268338, 0.6445698240316505, 0.6375746878201146, 0.6306216698959963, 0.6236509190931446, 0.6165537566442729, 0.6095671766894759, 0.6025795514897216, 0.5955568665171028, 0.58852214919691, 0.5815986799170235, 0.5745315504192995, 0.5674244911069648, 0.5603668098934546, 0.5533106670423811, 0.5462161771818169, 0.5391730947871798, 0.5320925089949603, 0.5250645136636982, 0.5180419579118033, 0.5109993781066745, 0.5039976581872232, 0.49700614270101595, 0.4900270237950862, 0.48306240745099055, 0.47613159763817553, 0.46919981167812097, 0.4623446553196833, 0.4554502576997601, 0.448583649815984, 0.4417736477013539, 0.4349626667049951, 0.4282122544620341, 0.42146464048957183, 0.4147535655884006, 0.40796586845573757, 0.4013449423263659, 0.3947292746470242, 0.3881795787530272, 0.38166502073040787, 0.37515996277383434, 0.36872509486690147, 0.36247812851156114, 0.3561050787249596, 0.34978350741049097, 0.34336885725582333, 0.3371703531091316, 0.33113799155948925, 0.32501649572706903, 0.31895066216517454, 0.31291355794076675, 0.3069647019144539, 0.3010307019453407, 0.2952007304559192, 0.28942674093695214, 0.28363056508724577, 0.2779824430179685, 0.27255543960870904, 0.26699864616625496, 0.2615098430764289, 0.2560373918896785, 0.2506917521431603, 0.24529789680043712, 0.24009904254115813, 0.2349610724252595, 0.22995471429617453, 0.22493450101967266, 0.22001115663727494, 0.21512658638587143, 0.21031412595091936, 0.2056259916700175, 0.20095234651697458, 0.19620626805901709, 0.19170363744501978, 0.18726872176361117, 0.18287507377398304, 0.1785825450151565, 0.17446997268070613, 0.17030330448541778, 0.16621424054348521, 0.16216470919440995, 0.15823547269734525, 0.15433660170693178, 0.1505638545045898, 0.14686430699112554, 0.14340433080528245, 0.13983167218096168, 0.13619423739310213, 0.13280691613858145, 0.12949304358430136, 0.12624948244236547, 0.12308382348113686, 0.12005434973948131, 0.11702893954426577, 0.11408121298169864, 0.11108628526112735, 0.10830818058304165, 0.10567187186915808, 0.10302357015181238, 0.10044946685492376, 0.09799761799696541, 0.09556480246949543, 0.09322856895151341, 0.0909440205274664, 0.08873487915931655, 0.08655873199790386, 0.08450283158308516, 0.08256908120163912, 0.08064672817254025, 0.07879650121316938, 0.07689991379828932, 0.0752058060282597, 0.07368140919675416, 0.07209895537167375, 0.07058501943368538, 0.06916619247477385, 0.06778266145973191, 0.06645227749844422, 0.0652032043849377, 0.06401790791865182, 0.06291261791233788, 0.061849562478335646, 0.060747942962440245, 0.059819682600890545, 0.05894514753639939, 0.058099837331496915, 0.057334785478710557, 0.05665200743450645, 0.055985015866154314, 0.055370134715076014, 0.05485495293186946, 0.05433577220924459, 0.05391384352807347, 0.05349234593719344, 0.05312310960026696, 0.052790673177525047, 0.052522841199152494, 0.05228445490835013, 0.05211086898300837, 0.05198029395683676, 0.05188807614202226, 0.051840366345823376, 0.05182497175744986, 0.05185541952245777, 0.05192236554304587, 0.05200741295585445, 0.05214616873629716, 0.052223766531425145, 0.052437578855627866, 0.05267624097172447, 0.052942895273646116, 0.05322976623616052, 0.053592238589758576, 0.05391944603850467, 0.05427194822733446, 0.05463470307856213, 0.055035868343646925, 0.055506232185253766, 0.05594179017661429, 0.05639859110849341, 0.05676104630027556, 0.05727009851206257, 0.05792071343737064, 0.058433136290776906, 0.05896201017370749, 0.05938118201861869, 0.05995346910818764, 0.06070635756177623, 0.061264542004180945, 0.06183576625497808, 0.06239371404507302, 0.06298781071958036, 0.06345279790101027, 0.06407363037431858, 0.06468941613265472, 0.0654759925945601, 0.06605817262737662, 0.06667837670343928, 0.06726112795468647, 0.06784541225460129, 0.06843955756743078, 0.06901962351451853, 0.06939568884792377, 0.06999217695470088, 0.07057047123187375, 0.07121359720506149, 0.07174520715451092, 0.07239457444431323, 0.07288164583713129, 0.0733608611483608, 0.07369212893551916, 0.07416761797394836, 0.07465683208632685, 0.07508592250906013, 0.07549534950251575, 0.07597424914363501, 0.07633089597671613, 0.07678833868649386, 0.07709538041167033, 0.07725146326933692, 0.07754837051442987, 0.0778207429394773, 0.07803341309367541, 0.0782592762019376, 0.07858476956867604, 0.0787377914488662, 0.07886928241756624, 0.07894686602370135, 0.07903551788960854, 0.07911470195301289, 0.07914699837272275, 0.07915222170590684, 0.07929207931492982, 0.07922061520331043, 0.07908786335370828, 0.07898020206912652, 0.07884702580096375, 0.07880823445878986, 0.0786057673484743, 0.0782954899181997, 0.0780594709810319, 0.07779416352762898, 0.07763037821313692, 0.07728851542863441, 0.07681643317486445, 0.07644063396131458, 0.07603338056525683, 0.07575705525663134, 0.0752663647631553, 0.07470853796833593, 0.07417793833843593, 0.07362049899519948, 0.07313948289392841, 0.0725141907777021, 0.07190160246744341, 0.07122735351979106, 0.0705316130255396, 0.06973757016721974, 0.06900627236697715, 0.06823012261592619, 0.06744620162197947, 0.06663448630908807, 0.06584741124353162, 0.06497540138427008, 0.0640804180609097, 0.0631627406724604, 0.06222272421985545, 0.06148193436775796, 0.06047061154126539, 0.05928149904349873, 0.058273442826780916, 0.05724530174251499, 0.05638434587045907, 0.055294535256926514, 0.05414546436912628, 0.05304665821896013, 0.051936356376477685, 0.05078360786563573, 0.04965481511809479, 0.04856542117327755, 0.04740595262660068, 0.04623850244388035, 0.04504968694590391, 0.04386943334633649, 0.042799504655545044, 0.041590899723877556, 0.040383421801945596, 0.03906302519166423, 0.0378723228879692, 0.03670785817534183, 0.0355048375906489, 0.03430137377398818, 0.033167662104783995, 0.03195787040890069, 0.030751412838684197, 0.02955625143548209, 0.028369003661154253, 0.027218123307584458, 0.026045708264690742, 0.024799002365893517, 0.02366246389485445, 0.02253478160187614, 0.021459021877408044, 0.020348587587738932, 0.01922296127047989, 0.018149459062298645, 0.017092510502216107, 0.01616415603616342, 0.015130723694039724, 0.01395854618381796, 0.013000833559550073, 0.01206206988166222, 0.011296326143308626, 0.01038225347414243, 0.009404754137733532, 0.008570123309046399, 0.007764593294313297, 0.006975837635992249, 0.006234709668531629, 0.0054710120824500285, 0.0048038215381221, 0.004169234097623495, 0.0037107999970781525, 0.0031290593188358965, 0.002655449392120169, 0.002158209311410475, 0.0017114586884862156, 0.0013256981860690332, 0.0009791402013248833, 0.0005461919399651386, 0.00032113132306776926, 0.00014098153984395205, 0.00011452206941550173, 1.5577301870730734e-05, 0.0, 9.631599626664864e-06, 7.783746331554182e-05, 2.543992691460089e-05, 0.0002350803841674133, 0.0005501893934240017, 0.0008553241194905883, 0.0012178440338203621, 0.0015527749993953742, 0.0020451534655624927, 0.002552649001460976, 0.0031653579563755076, 0.003836032017931384, 0.004611580630048905, 0.005398315139838473, 0.006403074343356648, 0.007303753476562806, 0.008281254568188656, 0.009290476008531567, 0.010426839757507177, 0.011543910225218883, 0.012840477749786404, 0.014206634203255426, 0.015750672011570887, 0.01724590547755932, 0.018775093718629655, 0.020433826285817594, 0.02216908996552742, 0.023860444944446738, 0.025765532799910337, 0.02777634596085794, 0.029820812140505217, 0.03194105223738034, 0.034189745141412084, 0.03645743758287257, 0.038702439420151426, 0.0411453622542422, 0.043663784952153145, 0.04623449520260561, 0.048909775645151456, 0.05173777447941126, 0.05455766585421704, 0.05746004287032411, 0.06042414670334391, 0.06349400718867135, 0.0666726663353095, 0.06990139866244904, 0.07321290073905681, 0.07658618018699098, 0.08006504636706374, 0.08354867177657836, 0.08719855902451276, 0.09092462913872973, 0.09473763721006812, 0.09861581647947058, 0.10255431987787543, 0.10658987602180062, 0.11070196497794506, 0.11508060643561847, 0.11932157314061542, 0.12349737812926588, 0.12792952321117707, 0.13243654629515392, 0.137035381181723, 0.14168888917177427, 0.146379036510979, 0.15118599981807762, 0.15606415214526453, 0.16098198960402313, 0.1660051652383728, 0.1711170953536297, 0.17627334265359226, 0.1814979834386569, 0.18686289042438448, 0.192213019175511, 0.19766793498124313, 0.20315273255808883, 0.2087068703669842, 0.21418010940083526, 0.21988678826282287, 0.2256738268619673, 0.23148946104246937, 0.23736184619320114, 0.24332824143361056, 0.24930699848615528, 0.2553352595380168, 0.2614264544491486, 0.267571123012117, 0.2736574393771159, 0.27991924227179993, 0.2863695876726632, 0.2926994275414144, 0.29901068778421785, 0.3054484438083596, 0.311929127589567, 0.3184894855006456, 0.3250473861431172, 0.33149093592233964, 0.33814907982211023, 0.34483624525625306, 0.351500154968878, 0.3582504182185588, 0.3650284502397278, 0.37182644177960306, 0.3786478471776311, 0.38556095989077604, 0.3924178793582468, 0.3993407219003208, 0.40623958071950056, 0.41316172460880213, 0.41991152988707836, 0.4268983550705066, 0.4340605989015349, 0.44103771285298454, 0.44802922398199213, 0.45501218566872986, 0.46202849489116704, 0.4688925245991495, 0.47594028861447923, 0.48298184951587714, 0.4901616364050151, 0.4971701993422931, 0.5041367011503789, 0.5111470299926385, 0.5181499026221881, 0.5251434346548248, 0.5321257306163983, 0.5389324848647503, 0.5459071224507801, 0.5528556779072468, 0.559960670643585, 0.5668319020741566, 0.5735640788419113, 0.5804118424892933, 0.587229721524206, 0.5939575539435125, 0.6007187657119784, 0.6073801590056005, 0.6140728783878503, 0.6207221621487842, 0.6275103456546572, 0.6340470713724479, 0.6403647143579828, 0.6468500594410901, 0.653283992081909, 0.6596689738829121, 0.6659965584926617, 0.6723145608646404, 0.6785261640516145, 0.6846831241582859, 0.6908043926487104, 0.6968441014286368, 0.7027800669533643, 0.7087058651270592, 0.7145664618892721, 0.7202601281025702, 0.7259984039943405, 0.7317130709500862, 0.7372931638065754, 0.7427991210097307, 0.7482606813223567, 0.7536103322246039, 0.7588212496964158, 0.7640240237538387, 0.7691434599092696, 0.7741577064097315, 0.7791096925520609, 0.7841257515743952, 0.7888815495169205, 0.7935558004063528, 0.798059793241591, 0.8025750199579083, 0.8070076164177695, 0.8113342711112307, 0.8155659935910806, 0.8196911070955375, 0.8237303769538571, 0.8277566848072463, 0.8315852152182174, 0.835317020490056, 0.8389468752462758, 0.8424804701535218, 0.8458188733508479, 0.8491590445269215, 0.8523893213104726, 0.8555299326045228, 0.8585362749536111, 0.8614807119805715, 0.8642596768928232, 0.8669296938988682, 0.8693342216570499, 0.8718029199049673, 0.8741371746799292, 0.8763667726431648, 0.8784756697898067, 0.8805782212036364, 0.8824322002617884, 0.8841104241691112, 0.8857443412003823, 0.887259654098654, 0.8888185777473243, 0.8900755863143279, 0.891060139388426, 0.8921160849263157, 0.8930500561765501, 0.8938380115435233, 0.8945315145397336, 0.8951988322462315, 0.8956345421977084, 0.8959533418208643, 0.8960959794888202, 0.8961869373068806, 0.8961322162606586, 0.895983450406684, 0.8957122513611192, 0.8953052228613684, 0.8947921744128444, 0.8941571789460028, 0.8934007673719575, 0.8925234626857024, 0.8915776148958158, 0.8904535312323691, 0.8893028692011674, 0.8879347103605285, 0.8864554774078343, 0.8848163180945304, 0.8831197705991419, 0.8812980734939624, 0.8793735978204166, 0.8773344847428809, 0.8751951061601384, 0.8729266760265849, 0.8706153018782941, 0.8681146268222967, 0.865507030431987, 0.8625888066218723, 0.859793745880469, 0.8569122607158619, 0.8538803640454562, 0.8507368661638819, 0.8475421992143344, 0.8441730943607771, 0.8408008178460266, 0.837213378013025, 0.8335303902413284, 0.8296105255246843, 0.8257555031790337, 0.8219365919420196, 0.8178617240291204, 0.813696141146295, 0.8092988248022234, 0.8049717855835379, 0.8005690835556146, 0.7960487246256669, 0.7914372610419244, 0.7866224857833908, 0.7818486660034543, 0.777117495740217, 0.7721450995846301, 0.7670933925758097, 0.7620362981412051, 0.7568209148292423, 0.7513997261376253, 0.7460601708767484, 0.7406438766923458, 0.735097724513436, 0.7295413955189564, 0.7238977688615456, 0.7181987224476447, 0.7124303130884997, 0.7067297356269597, 0.7008127899049164, 0.6946925398921927, 0.688686069233993, 0.6826188898775731, 0.6766869849910067, 0.6704812933834042, 0.6640291059626259, 0.6577646431449867, 0.6514476718641314, 0.6450980818650501, 0.6386816582200423, 0.6322834703798476, 0.6257734936213695, 0.6192274636409607, 0.612750684804528, 0.6061243996917004, 0.5994936195403009, 0.592815143415997, 0.5861144977565159, 0.5791680407348987, 0.5724544429373599, 0.5657473008146202, 0.5589688818991906, 0.5522258294959431, 0.5453957600300047, 0.5385505885371694, 0.5315851090198462, 0.5247290018987882, 0.517964612989172, 0.511066924064405, 0.5041652505173526, 0.49712651516756484, 0.49023896821040663, 0.4833449550656019, 0.476447272738649, 0.4695485902734737, 0.46280004012007014, 0.4558881228547759, 0.44884922357920043, 0.44198566023689884, 0.4351310349930173, 0.42846390368190285, 0.4216117850328842, 0.4146366576504531, 0.4078551417698052, 0.401092314566924, 0.394457363562308, 0.3877245225136981, 0.38089801962295156, 0.37424340179691556, 0.3676146567197702, 0.3610553853953094, 0.35447947082212894, 0.34781698635313835, 0.34132666844283815, 0.3348670465623658, 0.32848898631792534, 0.32209196590050904, 0.31573540125996824, 0.3094209898191049, 0.3031503636148385, 0.2970322096875429, 0.2908402677962622, 0.2847372242144131, 0.2786501550696432, 0.2726205344627638, 0.2665796430726385, 0.26067489996308646, 0.25474564599422544, 0.24896202762460842, 0.2432311974376115, 0.2376620247954113, 0.23202838874880902, 0.22633758378492388, 0.2208473878877066, 0.21541542322936935, 0.2100225865145235, 0.20471448555503718, 0.1995751423648982, 0.1943782793473404, 0.18925195772078593, 0.18421733993633913, 0.17923078553452867, 0.17426889213791927, 0.16943482150432698, 0.16467168693520975, 0.15988692057092344, 0.15527959848876097, 0.15072622945617212, 0.14625757475489484, 0.14185853257318223, 0.137564891298316, 0.13330428577766046, 0.12908747487054203, 0.12498119766796092, 0.12094922488730712, 0.11706830924640511, 0.11317745063053283, 0.10922889465069836, 0.10551642050758299, 0.10187646161331931, 0.09832728574875267, 0.09483300627989229, 0.09152880320296108, 0.08817267221590347, 0.08489983087848248, 0.0817787600473672, 0.07866191814722866, 0.07562010316962725, 0.0726742695296351, 0.06981116098064578, 0.06687445170119413, 0.06419400608222779, 0.06176144354260603, 0.059202603692360176, 0.05672632756645903, 0.05427279495765961, 0.05196590894918511, 0.04972144150970419, 0.047568367777507586, 0.04548991591803869, 0.043554863064177746, 0.04161589893459266, 0.039681796667768776, 0.03790588338034876, 0.03620141769549483, 0.03457844994732449, 0.033014576570642495, 0.03157348200213945, 0.030144423263403292, 0.028788133568736177, 0.027479420499107534, 0.026268734936515038, 0.0250124831772773, 0.023952379186782894, 0.022952809279526917, 0.022141751773341326, 0.021247346998170265, 0.020323914363961044, 0.01957593027894377, 0.01888775319044642, 0.01819330200985007, 0.017631672997466742, 0.017290506105316083, 0.016816999166317556, 0.016407043004936096, 0.01600020428310558, 0.01571976027558883, 0.015356454864233149, 0.015203133317887616, 0.015095274820227605, 0.015043265299930544, 0.015024928376277502, 0.015173186800093476, 0.015230393148243928, 0.015338977259773144, 0.015507654534596271, 0.015712768472021844, 0.015895890434410247, 0.016202339114256014, 0.016548796646015378, 0.01696881174030329, 0.01738786638874701, 0.017755907074361272, 0.018262586657704704, 0.018800287998835798, 0.019482389276065933, 0.020065689204646114, 0.02057019875284973, 0.021236599179126056, 0.021928312511346974, 0.02282770348078761, 0.02354451407136733, 0.024104369655002802, 0.024908964812151244, 0.02573127364935495, 0.026722694318867205, 0.027559218779790784, 0.028233265211555426, 0.029139535299537896, 0.030055405665090306, 0.031039233899900015, 0.03196562233860416, 0.032841256094317296, 0.033797251999856025, 0.034758903391451386, 0.0359121300484659, 0.03685942191820113, 0.03763749391576803, 0.03863340873116709, 0.039628378915484826, 0.04076345065772559, 0.04173668364793801, 0.042597380417625105, 0.04359342108783869, 0.04458403584361959, 0.045710087275573304, 0.04666948398521201, 0.047680719349967496, 0.048631548514527945, 0.04958135505175652, 0.05051064974211025, 0.05145411360234917, 0.05237212458517966, 0.053299775041413935, 0.054215090383928695, 0.05513058022769139, 0.056015610652395076, 0.05674367585616549, 0.05761479148711826, 0.05846025628345359, 0.059515064531914554, 0.06027952678206293, 0.06087933684338051, 0.06163570377005867, 0.062366927899757334, 0.06318996434638145, 0.06385446353018981, 0.0644158911888264, 0.06504910837625293, 0.06565468385605275, 0.0663149565606906, 0.06685301137279046, 0.06748384110939204, 0.06795642183004105, 0.06840857654931402, 0.06884525791556298, 0.06925001519470152, 0.06966400327068648, 0.07001228828670888, 0.07027223765903302, 0.07057467794686158, 0.07084479542377745, 0.07106815705237775, 0.07127361682050692, 0.07152038011865818, 0.0716465064071031, 0.07174164092815488, 0.07193281093760855, 0.07194744893946531, 0.07204671063338834, 0.07199393812649212, 0.07191856779456572, 0.0718047641514518, 0.07168019071181528, 0.07149248252571035, 0.07131399450167668, 0.07110294243830677, 0.07097288677478181, 0.0706810183385407, 0.07037232162679928, 0.07002371592668889, 0.06964662819453968, 0.06926797252468615, 0.06882841754921618, 0.06833952973609535, 0.06784492549734245, 0.06731977541152687, 0.0668400919083146, 0.06624432863938273, 0.06556383496216056, 0.06492318807437097, 0.064252742861912, 0.06351146228695734, 0.06278800723042713, 0.06216864832545353, 0.06136775917577942, 0.06054563236326255, 0.059595004136323404, 0.05874363759047589, 0.05801009749143636, 0.05708686813439063, 0.05614664373920562, 0.05509603282405722, 0.05413346153906389, 0.053318082624174507, 0.05229089475536704, 0.051253159035628854, 0.05021838439067424, 0.04915704494500134, 0.04810278645983293, 0.047018928852903936, 0.04592610483574462, 0.04468629317414888, 0.04359372316220004, 0.042575233627580776, 0.04144145174914639, 0.0403002402307593, 0.039269943556831846, 0.03810166168327197, 0.036855817785175715, 0.03570147300213182, 0.034544869091507495, 0.03342847310207406, 0.032265164334787176, 0.031129256465810544, 0.02997011301893925, 0.028817208147615403, 0.027640186937708033, 0.026506004182445645, 0.02540297294642199, 0.02428087743467168, 0.02316956588493461, 0.021928443694291085, 0.02085988054363758, 0.01994262656302551, 0.018870413983117566, 0.017817080392747313, 0.016666094932518888, 0.015668277947252948, 0.014827418107993718, 0.013844298394328634, 0.012888403909207969, 0.011770430533433346, 0.010895308230142219, 0.010032265833748714, 0.00919846122062821, 0.008388045785833464, 0.007782950424844932, 0.007003232216928033, 0.006087169026690353, 0.005409963285462491, 0.00476378465398031, 0.004167968162701985, 0.003587728588763424, 0.003218120894745629, 0.0026933972392168878, 0.0022194350243259237, 0.0016926991246068764, 0.001333863487635569, 0.0010828953045969075, 0.0008088244409399371, 0.0005864717187038733, 0.00033711826554494976, 0.0002305585175787317, 0.00023930270872951889, 0.00022526030363955056, 0.000267531957866041, 0.0002978999362037, 0.0004642261527639016, 0.0005785988543400319, 0.0008702881852604185, 0.0012140585664688996, 0.001729631397555636, 0.0021692685568469997, 0.002635823346225984, 0.003210973339215183, 0.0038506188111868856, 0.00464574492630087, 0.005406414523698115, 0.006112075822424879, 0.007034881537823939, 0.00802398588288664, 0.009191372115658774, 0.010303238761342273, 0.011349909739815157, 0.012632904188470384, 0.01398499432149867, 0.015355822930129081, 0.01685695955669559, 0.018414537613685094, 0.02005951004020521, 0.021776949170925246, 0.023564793501858278, 0.025431647010236726, 0.027350365980581385, 0.029373424546460542, 0.03147314979472967, 0.03379223354962612, 0.03603032974607504, 0.0382382852134795, 0.040665475640953304, 0.04317257906300504, 0.04589840367042177, 0.048549560336583863, 0.051276113471566735, 0.05410671307875523, 0.05702434760365898, 0.059904132548863356, 0.06301012997795123, 0.06626047360732978, 0.06951617104631364, 0.07285536929631242, 0.07617084005242855, 0.0796902221726008, 0.08326595214148284, 0.08694279016504801, 0.09069676090848962, 0.09454918122162526, 0.09845641520120757, 0.10241566152274068, 0.10648574298980452, 0.11063392599448019, 0.11501234319003764, 0.11929769613985301, 0.12362821195016124, 0.12809065268242123, 0.1326346460869579, 0.1371383110795232, 0.14185788029438964, 0.14672888624377478, 0.15158238562085818, 0.15651229142978274, 0.16155579467095968, 0.1666312310833133, 0.17162373791139784, 0.17687010972785253, 0.1821812026209463, 0.18757094370391852, 0.19300989528413184, 0.19865588313231242, 0.20420722808630096, 0.2098309291407358, 0.21554594995723922, 0.2213064890390904, 0.22697990194056095, 0.23289503102238363, 0.23886625386239882, 0.2448309238437992, 0.2509207303742228, 0.2571754743977894, 0.2633524114978602, 0.2695859567215213, 0.2759057232323692, 0.2822440832051211, 0.28845316403408355, 0.29492060757261573, 0.3014280831480946, 0.3081066136093979, 0.3146765376917408, 0.32120959002160127, 0.32788030272992913, 0.33464408421795855, 0.34138222975892923, 0.34815889047800763, 0.35481337192161233, 0.3616818990100788, 0.36867148016282114, 0.3755758686338455, 0.3825087907474574, 0.3893718777309338, 0.39636919837639734, 0.40333971699180715, 0.4103779889961598, 0.4174298013522397, 0.4245461349675375, 0.43161577644439003, 0.438729981274954, 0.4458209484545394, 0.45292372374625356, 0.4599464381954676, 0.467078085438595, 0.47428293331631466, 0.4814053414908371, 0.48852968177615236, 0.4956158390459191, 0.5027425266327041, 0.5098039437766791, 0.5169231919440712, 0.5240289618338414, 0.5311060270077629, 0.5381822861477277, 0.5452018173020579, 0.5522439184283218, 0.5592620428235077, 0.5663032071687619, 0.5732630928614382, 0.5802837543766218, 0.5871795057217292, 0.5940504897172121, 0.6009561870092857, 0.6077617051787099, 0.6143479891121271, 0.621116163134344, 0.6278386226144439, 0.6344830465084466, 0.6411142568801104, 0.6478875985258243, 0.6543904139470664, 0.6608502486458133, 0.6670948808788201, 0.6734815594030498, 0.6797728435750797, 0.6860410120295168, 0.6922439364917549, 0.698339102820961, 0.7044135445783748, 0.7104135584891041, 0.716345544507345, 0.722204369861252, 0.7280960451790673, 0.7337916123540127, 0.7393404743092756, 0.7449021096542376, 0.7503845137764859, 0.7557413256552282, 0.7610666013006043, 0.7663161087907666, 0.771466678118292, 0.7765293900702821, 0.7815236740696481, 0.7864041186528828, 0.7911317013717021, 0.7958371574205882, 0.8004454291250647, 0.80499699073002, 0.8094026390196748, 0.8137621719447239, 0.8179639504170588, 0.822067863760255, 0.8261135815583234, 0.830011217198545, 0.8337943433713637, 0.8374904504264836, 0.8410814054897857, 0.844531083002223, 0.8479114718539442, 0.8512148580249566, 0.8543667145318301, 0.8574068907587487, 0.8602926716967709, 0.8631110508909147, 0.8658982710029476, 0.8684699359507805, 0.8709275163251373, 0.873134900708561, 0.8753774037404513, 0.8776085557432335, 0.8795859318708401, 0.881444378599557, 0.8830343685016656, 0.884670985982975, 0.8861535585529365, 0.8875340095240039, 0.8887841504409508, 0.8899390790165627, 0.8909257848504397, 0.8919030097214813, 0.8926210006741224, 0.8932187402314143, 0.8935674837663374, 0.8939383112223671, 0.8942830244770199, 0.8943816563579988, 0.8943572221660996, 0.8941781990158999, 0.8939103779383506, 0.893413069179231, 0.8929067752716409, 0.8922690311505128, 0.8915457530551795, 0.8906423595950289, 0.8896681438277354, 0.8885060304622681, 0.8872218965748889, 0.8857156070410068, 0.8842003850673359, 0.882516481805864, 0.8807531548181474, 0.8788624217551954, 0.8768663716327642, 0.8747222134429896, 0.8725697329728195, 0.8701674933559521, 0.8676513577602245, 0.8649454047478763, 0.8622114885840367, 0.8593116512110083, 0.8563497803279873, 0.8532697082277146, 0.8500348720979487, 0.8467275135497019, 0.8434215636214322, 0.8398688916025855, 0.836210065764253, 0.832338625517756, 0.8284830859199636, 0.8246869089091411, 0.8205918212480419, 0.8163997686349408, 0.8120834444857813, 0.8077021133093426, 0.8031822421459552, 0.7986129707684221, 0.7939463231975414, 0.7891146662663253, 0.7842664607105889, 0.7794113657002308, 0.7743604756528579, 0.7692221248463222, 0.7640356628286571, 0.7587216701685977, 0.7531503345251577, 0.7476975941296169, 0.7421563551998267, 0.7367021828170699, 0.7309703949772685, 0.7251886389530957, 0.7193139690851389, 0.7133721445898887, 0.707353969251482, 0.7012827627087799, 0.6951234537593002, 0.6889290226307733, 0.6826724842665798, 0.6761829477902098, 0.6698297022920651, 0.66352095170026, 0.657024929941506, 0.6504756028962267, 0.6438371487790172, 0.6371925680091823, 0.6305889203529627, 0.6238376352742231, 0.6170473751201762, 0.610174881041238, 0.603317386219805, 0.5963336949651138, 0.5894170124135543, 0.582463260939422, 0.5755167835864826, 0.568492193312457, 0.561482685998137, 0.5544023774270186, 0.5473025590619118, 0.5402611466677142, 0.5331184092862569, 0.5258383258455978, 0.5186940907871833, 0.511535937784702, 0.5043387509230599, 0.49716377954384183, 0.4899427404732332, 0.4827590442102978, 0.4755287919981576, 0.468342905144295, 0.46115499931733117, 0.45397142029136767, 0.44678758500239685, 0.4396516935718023, 0.4324780925853545, 0.4253182416867656, 0.41829163186709567, 0.4111504201948332, 0.40383852384814467, 0.39677572335794764, 0.3897301652166741, 0.38283241647817506, 0.3758132095872526, 0.3687190936270435, 0.3617791870790063, 0.35486819272296205, 0.34815422749882585, 0.3412867830156311, 0.3343016902966981, 0.32754497679034594, 0.32082538217510187, 0.31430057767155656, 0.30764201701615007, 0.30091811031882937, 0.2943793661356701, 0.28788763144878055, 0.2814308797846958, 0.2750402437108469, 0.2687529006715647, 0.2624603915574758, 0.25622570295907937, 0.24992911784511243, 0.243829018064062, 0.23793908929915572, 0.23193086440251662, 0.22599026298356656, 0.2200488494367234, 0.2142542887361939, 0.20858780241511074, 0.20291846625427715, 0.19732111673858851, 0.1917964943632667, 0.18634535728991328, 0.18096847618125925, 0.17566662942335382, 0.17044059871177913, 0.16519787039293748, 0.16013760488669668, 0.15506040398380538, 0.15015880917242064, 0.14532797628444713, 0.1407219563885465, 0.13601928623153897, 0.1313841388952935, 0.12685353142825473, 0.12240731789677761, 0.11807702216242895, 0.11379692321498824, 0.1094521480695095, 0.1053661052156037, 0.10135912633983224, 0.09761223727390564, 0.09374455988133484, 0.08990052278274455, 0.0862265590514766, 0.08264048575379343, 0.07900768950292823, 0.07561484338801744, 0.07236832802571765, 0.06912968231230732, 0.06597752197840476, 0.06302271807791253, 0.06003037412062262, 0.057010466299267704, 0.054219361899518675, 0.05151329554322277, 0.04890289573876935, 0.046366295256883384, 0.043905480522123556, 0.041542428492062966, 0.039264753424795774, 0.03702052279598025, 0.03491978219702283, 0.03303576797001063, 0.031082053119304995, 0.029218019962610656, 0.027325027629585646, 0.02565177802538368, 0.024158468210571542, 0.022631915105411814, 0.02119042285319854, 0.019784532435453993, 0.01851604721992819, 0.017316349428886386, 0.01620683827878279, 0.01517457328661098, 0.014256927636707398, 0.013372396557108453, 0.01250300661090955, 0.011779942504180062, 0.011128580237295465, 0.010562164509195086, 0.010050661355191243, 0.00955442372353079, 0.009190137387329975, 0.008891507729164971, 0.008661479875191396, 0.008492104651555749, 0.008431702260729024, 0.008383964017989772, 0.008401152730657788, 0.008395604873376095, 0.00854971819498681, 0.00883259787776465, 0.009089324614196957, 0.00940499063465636, 0.009671091699980717, 0.010114006204345667, 0.010626391018496394, 0.011163609469101275, 0.011749513116016227, 0.012473005751901613, 0.013142042587314742, 0.013803049649433283, 0.014579081889661352, 0.015398857570163162, 0.016388913347137744, 0.017276050198372812, 0.018116798536767433, 0.01910713106037652, 0.020134418133034782, 0.021179927643465532, 0.022278938081645647, 0.023354270109024942, 0.024522157645954376, 0.02571587489198518, 0.026948322393377362, 0.02818911808435949, 0.02952265834561579, 0.030800768832371976, 0.03210391356344714, 0.03337841601294225, 0.03473268468987121, 0.03621423163809325, 0.03758662009761384, 0.03897927487598972, 0.04036577285329498, 0.041795409449322786, 0.04315114988080684, 0.044614911847120124, 0.04608282034440771, 0.047685198482525094, 0.049141815448413034, 0.05062070636543944, 0.052090333215920465, 0.05356499613946975, 0.05495625041746601, 0.05644582480121296, 0.05787786603272357, 0.05936149638058446, 0.06083432222982442, 0.06238548999505632, 0.0638232124460864, 0.06519418779662088, 0.06662175759716207, 0.06803494099037585, 0.06937745591821427, 0.07076585313599455, 0.072344509256501, 0.07366463784202862, 0.07497485083650106, 0.07609999194353471, 0.07740521700720443, 0.07873252204108994, 0.07997849760742227, 0.08119976202177119, 0.08241257717446629, 0.08357920617437269, 0.08475710626419647, 0.08586435030447656, 0.08694481763778125, 0.0880731867106532, 0.08908654343534894, 0.09017033335385653, 0.09111707779611358, 0.09203957908308262, 0.09280772744743311, 0.09369133352008306, 0.09459954971446705, 0.09539946773908203, 0.0961640203726594, 0.0969370415786973, 0.09762202024174049, 0.09828844629882336, 0.09889839329160184, 0.09947122153118765, 0.10020278528803828, 0.10067328959405714, 0.10099383307544868, 0.10141922221717162, 0.10180437022035119, 0.10213461704908161, 0.10243863026865482, 0.10288603710788723, 0.10307965924705634, 0.10316379697880948, 0.10329833146577327, 0.10339185049120574, 0.10351623610487092, 0.1035166376506892, 0.10357172436193796, 0.10348220061965088, 0.10335765096831964, 0.10327275544000125, 0.10306476233294573, 0.10268100319364977, 0.1024214131676824, 0.10211739143753304, 0.10194890929622893, 0.10153424601419528, 0.10110702129866914, 0.10062216217859678, 0.10010342146609327, 0.09937384703681781, 0.09880763783775046, 0.09828243771354259, 0.0976157907688447, 0.09691105542874072, 0.09615489369652333, 0.09537724059511495, 0.09457271731321394, 0.09372004144959657, 0.0928322625790443, 0.09208979471918552, 0.09111133600104415, 0.08998577932408906, 0.08897702918691268, 0.0879375826049306, 0.08699607320591202, 0.08588147210842037, 0.084787304575341, 0.08362528389607432, 0.08244449083018429, 0.0812586078744159, 0.0800382806732724, 0.07871366402418808, 0.07746867257092678, 0.07620151960511681, 0.07485810856149193, 0.07355721805555489, 0.07240402420979307, 0.07104020506048112, 0.06966765664017074, 0.06811734867307241, 0.06674973379192274, 0.06556900320083263, 0.06414367148496602, 0.06271677729854624, 0.06130585464239399, 0.05987457214370191, 0.05833333055696146, 0.05691777573378401, 0.05549779996827728, 0.05414761649072189, 0.05271456819481908, 0.05129646364581561, 0.04987230160890899, 0.048455445970330434, 0.046874208151021765, 0.04549710622407093, 0.04427651577476633, 0.042884424342274685, 0.04150720711680941, 0.04007688702435134, 0.0387415924927978, 0.03736553323956144, 0.0360680807799137, 0.034785629878758495, 0.03354800643122295, 0.03229852576480641, 0.031061527453714936, 0.02986077583284841, 0.028685695339080376, 0.027548382677577084, 0.026428482753242444, 0.025270795141971083, 0.024223799679324698, 0.023207278142513457, 0.022358027735153198, 0.0213914426552429, 0.020351269934222666, 0.019488039246659275, 0.018663600327032983, 0.017948843151268507, 0.01719853530240822, 0.0164960604655486, 0.015842470055061387, 0.015238834889437823, 0.014751894047279277, 0.014243145060888803, 0.013729141573206885, 0.013342734231997848, 0.013011038383192139, 0.012686908207373119, 0.012474431696242324, 0.012276151596767348, 0.012181830322808762, 0.012143965369007671, 0.012330221541669276, 0.01238962876988489, 0.0124819399860803, 0.012688190943256015, 0.012963736432221417, 0.013205602907670895, 0.013634935249664686, 0.014095337499121037, 0.014661879767079831, 0.015295205432584237, 0.016017745222018716, 0.016786998852304134, 0.017777543183183333, 0.018674648103681746, 0.019655164078557746, 0.02070861110993233, 0.021857004276224484, 0.02306740059854889, 0.024384081412225474, 0.025782770827664236, 0.02714988722325772, 0.028728354662240593, 0.030494359672905872, 0.03221415504319122, 0.0340197559759504, 0.03578011919384312, 0.03777471986572355, 0.039983312760702855, 0.042120666648342936, 0.044347330449357146, 0.04662181985655705, 0.04903230266959191, 0.05154011975245209, 0.0541235773547017, 0.05679524430354421, 0.059534576943634, 0.06238582088925715, 0.06528658116277754, 0.06831794816464348, 0.0714351893121358, 0.07464568521641955, 0.07793512325644503, 0.08133270784870501, 0.08479451999314719, 0.08834517613146814, 0.09190507219858327, 0.0956430308644159, 0.09963071589333562, 0.10351583199178178, 0.10749478582136249, 0.11131416601207264, 0.11550923806476265, 0.11980484609026879, 0.12415057518549506, 0.1285758321599317, 0.13316395778298573, 0.13773886596788326, 0.14246438789639698, 0.1472002327163514, 0.15202331166198563, 0.15681139687335632, 0.16182039226645864, 0.167033893306903, 0.17217979434524305, 0.17740893294381363, 0.18258853099093686, 0.18799635872988898, 0.19344118205426392, 0.19899615057480927, 0.20461996581687936, 0.2104471247158446, 0.21619068102212455, 0.22199911951917123, 0.22789278186559908, 0.23385774287600494, 0.23989590384653864, 0.24599837756696313, 0.2520986146470044, 0.25834201820110114, 0.2646453251436358, 0.2710006456769682, 0.27742162976252666, 0.2837849713810967, 0.2903320306084588, 0.29692679256230897, 0.30358276543947693, 0.3102700779382998, 0.31710464576519387, 0.3238725047397567, 0.3306911560149918, 0.3374688550192967, 0.34439473947213056, 0.3514677909011885, 0.3584590662806236, 0.36549398201412325, 0.37239412138323646, 0.37953205182750865, 0.3867041618629271, 0.3938950713097055, 0.4012641509962941, 0.40848707783008714, 0.41574249588055934, 0.4230521184879536, 0.4303620952451538, 0.437477520850355, 0.4448661258463483, 0.4522639471850608, 0.4596738269489484, 0.467087636345725, 0.47468820682758184, 0.48209236737806077, 0.4895113821978637, 0.496728253023647, 0.5041958462820776, 0.5117065877003137, 0.5191567945275817, 0.5266027057578833, 0.5340359194875456, 0.5414695666823398, 0.5489836853089761, 0.5563856083074404, 0.5637798891653356, 0.5710707754673786, 0.5784542402893164, 0.5859385269129281, 0.5932648936166983, 0.6005747256298222, 0.6077167939278033, 0.6150044750657221, 0.6222630239978677, 0.6294838594439772