0.023772747470890344, 0.022739745329059122, 0.021747280613345833, 0.020870643939876747, 0.020051340027562484, 0.019245822467479454, 0.018521224444632386, 0.01788234011936437, 0.017212311235096485, 0.016568966594484435, 0.015870432373479473, 0.015278922353837104, 0.014728847011241282, 0.014156576131896156, 0.013595486524405178, 0.013019247507959566, 0.012480969726501376, 0.011936709366259582, 0.011415495135858773, 0.010901466636562088, 0.010354275292997582, 0.009861479805669104, 0.009389118160180178, 0.00890937711924033, 0.008439548540525855, 0.007957359956883315, 0.007513574192669167, 0.007073891877726108, 0.00665615853301352, 0.006252426553476946, 0.005885391133098263, 0.005510767284440864, 0.0051239256562896655, 0.004792059360122664, 0.004479291454864933, 0.004167330762811087, 0.0038986763424679323, 0.0036143881052838342, 0.0033942583671340933, 0.0031956434019456857, 0.0030529481401145083, 0.0028970351888003365, 0.0027175583701932507, 0.002622905158488966, 0.002553974303185036, 0.002502143628449575, 0.002489131031740255, 0.0024985378924681527, 0.0025437383048722557, 0.002618714824340208, 0.002683466641002308, 0.002825715414862614, 0.0030290234106056897, 0.0032282081732786768, 0.0034610494889146803, 0.0037184473210874376, 0.004021693959957896, 0.004326765963795028, 0.004704647563599965, 0.005116809979905271, 0.005544630999786873, 0.006030285485760828, 0.0065339834434979625, 0.00709383278267532, 0.007689926100619377, 0.008305648755221915, 0.008979093756271131, 0.009713697671151126, 0.010460690067478021, 0.011248529655846981, 0.012070036035485244, 0.012942351358476304, 0.013864628062947498, 0.014820937005869457, 0.015821094278315583, 0.016774158270143225, 0.017875177534275824, 0.019034022977876604, 0.020214711127339312, 0.02143913024419496, 0.0227179637221054, 0.024031415244959657, 0.02534123740375299, 0.026755761961566343, 0.028215844635455876, 0.029714778737720677, 0.03127012418557749, 0.03292032513642946, 0.03456699691873942, 0.03626626091737724, 0.0379854833325564, 0.039795472426097024, 0.041678959231391866, 0.043591131874650434, 0.04555798697934847, 0.047537181608438006, 0.04962023447266311, 0.051753078529857936, 0.0539447889932535, 0.056191510711056755, 0.058478406880604225, 0.06083927423898956, 0.06323104295029507, 0.06570824611418509, 0.06824164105581024, 0.07084763141884479, 0.07349387134062867, 0.0762130970525789, 0.07897685316443233, 0.0818017274424388, 0.08464133976175205, 0.08759532865580415, 0.09060485388373361, 0.09367883990965792, 0.09681326534343071, 0.10002036061260972, 0.10327578652250603, 0.10659184371980221, 0.10997296278154303, 0.1134170976783416, 0.1168602576069757, 0.12043922069702286, 0.12412102161943421, 0.12781526383089228, 0.13157314283068658, 0.13533250678169187, 0.139225885299543, 0.1432516969743853, 0.1472573356639088, 0.15132839165542325, 0.1554276514043743, 0.1596335080174067, 0.16388835699811205, 0.16822120700288348, 0.17261593783465978, 0.1771056928984915, 0.1816201162630262, 0.18613989637194372, 0.19078882888314708, 0.19549748887589685, 0.20028541877929582, 0.20511123970700504, 0.20994730522600233, 0.21490094322708797, 0.21991199602651815, 0.22495326964664988, 0.23008267409026834, 0.23531264137482186, 0.2405480180837243, 0.24584168250456603, 0.2511658812162076, 0.2565780148315156, 0.26204917934493016, 0.26757071067504223, 0.2731467680797182, 0.2787651454159685, 0.28445010068261556, 0.2902164020347336, 0.29600140691160665, 0.30177674637256624, 0.30767396550233217, 0.3136185068156068, 0.31962357475045583, 0.32565970274524564, 0.33173465054948886, 0.33786423195141563, 0.34403845307734493, 0.35026627709261804, 0.3565261940884849, 0.36276462284831923, 0.3691171573812155, 0.37550683294285775, 0.38197983672888397, 0.3884362261438874, 0.3949227566890038, 0.401454833407735, 0.4080220767964568, 0.41459610596412777, 0.42123370038969277, 0.42786252246895695, 0.4345643491795064, 0.44129210015010173, 0.4480664011225552, 0.45484086001696494, 0.46166709964909525, 0.4684859940702631, 0.4753285388298356, 0.4821543231814787, 0.489044626681566, 0.49596943132981897, 0.502890290796321, 0.5098266737915886, 0.5167537946853694, 0.5237198646453598, 0.5307113607145704, 0.537693867427227, 0.5446844496518211, 0.5517185754888106, 0.5587160792864706, 0.5656412906307416, 0.5726578925837569, 0.5796719781309216, 0.5867348983024584, 0.5937336486683745, 0.6007018079125739, 0.6076955273256779, 0.6146808002979026, 0.6216327111895801, 0.6285993408677364, 0.6355553584690863, 0.6424910509374377, 0.6494095449171383, 0.6562645307734304, 0.6631496231619994, 0.6700063910032743, 0.6768418455582682, 0.6836500511115977, 0.6904744114736644, 0.6972183191486296, 0.7038592825445378, 0.7105526960044731, 0.7172092274982815, 0.7238392824616933, 0.7304166875311598, 0.7370025068860032, 0.7434917230173371, 0.7499402891393967, 0.7563286794414628, 0.7626921544819661, 0.7690450131003681, 0.7753068158664393, 0.7815194913029451, 0.7876225554604713, 0.7937381150268583, 0.7997853763674947, 0.8057835249575508, 0.8117195214420165, 0.8176424966675525, 0.8234433468831428, 0.8291609310533363, 0.8348346917919958, 0.8404397056042875, 0.8459158676613546, 0.851385635856908, 0.856817200366172, 0.8621265848666609, 0.867358576111951, 0.8725018483774588, 0.87757550927646, 0.8825781529743374, 0.8874834618126358, 0.8923037631792743, 0.897016077440728, 0.9016643789014783, 0.9062159802141492, 0.9106819596117978, 0.915054074902928, 0.9192960055207681, 0.9234809599797437, 0.9275564932103991, 0.9315423008689683, 0.935425850349734, 0.939198388986408, 0.9428754784457395, 0.9464877719036296, 0.9499473934281792, 0.9533016961495122, 0.9565551987048209, 0.9596941994723688, 0.9627360306773994, 0.9656545989574333, 0.9684624948645376, 0.9710961662336697, 0.9736868330705921, 0.976155786297874, 0.9785106896510504, 0.9807463141092079, 0.9828815209678627, 0.9848743157058729, 0.9867373735403251, 0.9884906248168459, 0.9901218247274927, 0.9916634296963718, 0.9930444719043096, 0.9942801351381358, 0.9954192541783158, 0.9964334402709025, 0.9973046533240651, 0.998069651577573, 0.9987169970732178, 0.9992257180697333, 0.9996070633983515, 0.99987628775627, 1.0, 0.9999418698938735, 0.9998174438720403, 0.9995619929716422, 0.9992360577881101, 0.9987115419486849, 0.998046374944588, 0.9972692521289985, 0.9963638569030493, 0.9952853962847403, 0.9941290830966698, 0.9928731956792756, 0.9914520002206066, 0.9899028125075661, 0.9881713851305806, 0.9863738927831772, 0.9845104535889774, 0.9824453085462108, 0.9802552169215998, 0.9779287856983446, 0.975491195119693, 0.9729796491520049, 0.9702871065031822, 0.9674740199160826, 0.9644744662853325, 0.9614295074842351, 0.9582418641501776, 0.9549539787190091, 0.951543906020525, 0.9480051053694392, 0.9443553755536046, 0.9406003815753442, 0.9367124692861829, 0.9327090682373775, 0.9286089091759496, 0.9243759803010377, 0.9199972225477756, 0.9155482756671912, 0.9109888978958139, 0.9063342246205014, 0.9015568035390104, 0.8966723276653494, 0.8916863663532034, 0.8865980765266857, 0.8814050681803325, 0.8761171481315769, 0.8707254311964355, 0.8652439493638248, 0.8596674380130798, 0.8539664683019402, 0.8482089899485001, 0.8423754987523556, 0.836434907630918, 0.8304076420352234, 0.8242994758824834, 0.8181040256990884, 0.8117927690367444, 0.8054420929150278, 0.7990124788977373, 0.7925723127841308, 0.7859830771066149, 0.7792785014688355, 0.7725595599955112, 0.7657727209828719, 0.7589356937143924, 0.7520175142122713, 0.7450757276980832, 0.7380337356277877, 0.7308808867191742, 0.7237389892269398, 0.7165431427634384, 0.7092957016443097, 0.7019990140203342, 0.6946612621152094, 0.6872723696491214, 0.6798415785149534, 0.6723536603785569, 0.6648481561016268, 0.6573241652474109, 0.6497468823817856, 0.6421394512363852, 0.634519718823374, 0.6268568593858408, 0.6191287570753407, 0.61142863247404, 0.6037080402213156, 0.5959870487264498, 0.5882309345750022, 0.5804687505280354, 0.5726904159141046, 0.564905166583797, 0.5570880338633761, 0.549299239124304, 0.5415321950218156, 0.5337397347376757, 0.525951945064195, 0.5181399370601575, 0.5103721776122107, 0.5026335475779086, 0.49488514851692367, 0.487152446901013, 0.4794415934775981, 0.47174655438361324, 0.4640274501219555, 0.45638578994601486, 0.44876850414517766, 0.4411995327659827, 0.43363582043736926, 0.4261148290016227, 0.4186180518464711, 0.41115915406249254, 0.4037674335254267, 0.39638697982937715, 0.38903061765397695, 0.3817456445543134, 0.3745085213604816, 0.3672958996612187, 0.3601635137294942, 0.35309113676191844, 0.3460643027067769, 0.3390942568315997, 0.332182927221839, 0.325332202924408, 0.31862178623818543, 0.3118879433153063, 0.30522451378721593, 0.29854113445037267, 0.2920334755080856, 0.28560817123752996, 0.27923819762689506, 0.2729415406653343, 0.2667471447740434, 0.26059871236694515, 0.2545047563716194, 0.2485204021638037, 0.24261702907210725, 0.2368272569598669, 0.23108629510509504, 0.22540509861352684, 0.2198426863161083, 0.21436789519894353, 0.20902869429402035, 0.2037269638962393, 0.19849185356373017, 0.1933820396408718, 0.18836603299360402, 0.1834895449119601, 0.17865829602315977, 0.1739299883752115, 0.16929681927958568, 0.16476387242063936, 0.160273208962652, 0.15594943866810573, 0.15178040087720754, 0.14764697968806667, 0.14361675616008915, 0.13970950542625568, 0.13588414275474608, 0.13218148895686535, 0.12856441075847433, 0.12505373682776952, 0.12163581148343494, 0.11833958194320257, 0.11520535877593807, 0.11211320742704471, 0.10912994110754543, 0.1062006537477785, 0.10344084883915561, 0.1007487455830912, 0.09820307595530521, 0.09576016155048105, 0.093503996552951, 0.09125683920531899, 0.08912363901419453, 0.08709137295033717, 0.0851663492908052, 0.08333625202565433, 0.08162528111767275, 0.08000147956071282, 0.07850155526485851, 0.07710423484353485, 0.07582464918567437, 0.0746292086418884, 0.07351244915655004, 0.07252334699929204, 0.07163356951808879, 0.07086008061313456, 0.07016502808172792, 0.06958988124273219, 0.06908827087615317, 0.06868464076924034, 0.06839543127186976, 0.06818230888744428, 0.06807851518845032, 0.06805382847939163, 0.068123111410182, 0.06828111258160491, 0.0685347605222534, 0.0688683779071844, 0.06930134937756577, 0.06982085393322884, 0.07046846867883189, 0.07115188345293885, 0.07188542180681605, 0.07274193739432733, 0.07367838146159124, 0.0747401447454928, 0.07582655816395496, 0.07693310933881445, 0.07818219946509654, 0.07950304691736265, 0.08093917316349601, 0.08239410452720566, 0.08392140100137191, 0.08551520423529287, 0.08717610619003513, 0.0888478930150673, 0.09064473703725982, 0.09252968269681908, 0.09443938662398582, 0.09640705734776028, 0.0984116336221227, 0.10049288853477903, 0.10260282241867306, 0.10478961376830431, 0.10702412538988196, 0.10935560103580805, 0.11167502539972762, 0.11404273124630342, 0.1164526772295494, 0.11890527627739132, 0.12139085195380432, 0.12392408183081773, 0.12647248645252576, 0.12907980237273026, 0.13171892723986336, 0.13438241386661245, 0.1370810531993603, 0.13985495845012613, 0.14259905885574822, 0.14536927514573028, 0.14812465839221434, 0.15094599716669657, 0.15376779388721287, 0.15662569424864398, 0.15949737445103196, 0.16239887760242547, 0.16529146180158966, 0.16819043823386504, 0.17110241937693846, 0.17402114439452435, 0.1769702972683676, 0.1798944634453921, 0.18279860385329078, 0.18573058357741512, 0.18866101991292505, 0.19156112328263447, 0.1944873033657426, 0.19743695792520466, 0.20034257941727723, 0.20323969129256536, 0.20609169822179713, 0.20897155907440387, 0.21185968854577705, 0.214705217796065, 0.21753455211283443, 0.22038326401107644, 0.22317133328568828, 0.22589830885085146, 0.22865360416866734, 0.23136554457965877, 0.23407434228138327, 0.23675581922867117, 0.23941871554491612, 0.24204134304997235, 0.24462059077516404, 0.2471843592559954, 0.24971548277275965, 0.25221108742501724, 0.2546743896667544, 0.2571547238669023, 0.25953945881953605, 0.261889862239038, 0.2641521002284756, 0.2664367011981908, 0.2686881566735343, 0.27088924640089723, 0.2730485185095099, 0.27514969172193204, 0.2772251844938822, 0.27926564609645926, 0.2812498618636248, 0.2831888270575534, 0.2850975322656917, 0.28694231178554924, 0.2887040671133955, 0.29046080157546955, 0.2921681954183241, 0.29382794429757914, 0.29543566282679984, 0.2970011979900636, 0.2985077493802152, 0.29996429180634193, 0.3013841713642494, 0.3027381653515626, 0.3040616227831058, 0.30531285014744153, 0.3065145987772182, 0.30764702602367633, 0.30875119890354924, 0.30980967808386556, 0.31080999689722494, 0.31175904287530914, 0.3126198053371994, 0.31347092633445733, 0.3142687203654954, 0.3150135663511042, 0.31570584221507486, 0.31638874617688667, 0.31697161190520357, 0.3175171437111467, 0.31800056579152247, 0.3184357976633175, 0.31874505475802256, 0.31909401099008605, 0.3193732694171021, 0.31962094093852017, 0.3198171466410234, 0.3200114975891534, 0.32010144533969875, 0.3200909221305249, 0.3200962829542892, 0.32005358344350876, 0.31998130650223205, 0.31984314326677776, 0.31963153048768134, 0.3194093058216727, 0.3191427058989135, 0.3188697104555311, 0.31851266238850406, 0.31814155319489806, 0.317703227741737, 0.3172282802792259, 0.31666660248322576, 0.31612634466562495, 0.3155949676971589, 0.31497418560473706, 0.31432026941622443, 0.3136105134465686, 0.31289527275690704, 0.3121009464711485, 0.31132781517645464, 0.31052160251133426, 0.3097303664899917, 0.30885608885575944, 0.3079611238065201, 0.3070339277115204, 0.3060822988324984, 0.30507985522919484, 0.30408542837124347, 0.3030540838866296, 0.3020159436516726, 0.30095603871937676, 0.29987561285418024, 0.29877588897953994, 0.29766585632328635, 0.2965301471778428, 0.2953791393625975, 0.29423728304416874, 0.293056003724775, 0.2918581663994501, 0.29065707925056333, 0.28944674830061107, 0.28821063103742806, 0.2869869578887465, 0.2857170777225545, 0.2844848989423619, 0.28324551072356097, 0.28201395775757315, 0.2807626380066369, 0.2795011981065769, 0.27824735931737743, 0.2769930541655235, 0.27570442479765356, 0.2744571100377014, 0.27324777280004797, 0.27199914351021504, 0.27075625568679973, 0.2695103264308449, 0.2682829815947859, 0.2670110799874752, 0.26580734480701457, 0.2646105865571314, 0.26346692180535164, 0.26228243731084816, 0.26112684658575014, 0.25996782238594957, 0.25882454478606315, 0.2576587152029506, 0.25655373479524823, 0.2554486278537214, 0.25437744055755607, 0.25332265384534636, 0.2522949773829246, 0.25127464194513605, 0.2502701364030278, 0.2492904857263009, 0.2483317992676081, 0.2474298207049201, 0.2465107286780335, 0.24555431116011237, 0.24469333144469052, 0.2438544673974108, 0.24306969045885826, 0.24227354954257657, 0.2414996862164072, 0.2407567806249801, 0.24004061143221997, 0.23935935609393436, 0.23869682751923557, 0.23805479018371756, 0.23745005534827315, 0.23687365714195863, 0.23631420431146474, 0.2357967904066632, 0.2353195204096948, 0.23485786858525065, 0.23442591493016696, 0.23401990878086443, 0.233648247628679, 0.2333122654978947, 0.23299965420113697, 0.23271740061672572, 0.23244410522632458, 0.23222528368626605, 0.23207256860632675, 0.23190744833971078, 0.2317737351094586, 0.23165755001911323, 0.23158760812710139, 0.23153780838925, 0.23152869071338186, 0.23154857384012853, 0.23159150388000002, 0.23166975197626832, 0.23177040057495404, 0.2319057105230504, 0.23206858857946128, 0.23224912979813297, 0.23246781741882241, 0.23274209287139752, 0.23300967632180822, 0.23330485075513843, 0.23358817570864382, 0.23394190223959824, 0.23435839343287376, 0.23475464918262456, 0.2351764264867538, 0.23559195166974314, 0.23606680714702039, 0.2365693656621421, 0.23708681599654713, 0.23762563091128946, 0.23816972662040692, 0.23875167255275245, 0.23937000767932926, 0.23998702089091892, 0.2406229259474063, 0.24129067070756674, 0.24196059375117054, 0.24263642399600982, 0.2433421662840928, 0.24406318502211494, 0.2447812319882121, 0.24553281184540973, 0.24630813347873876, 0.24708174082237014, 0.24787068477610366, 0.24866591793995596, 0.24947126239888434, 0.25025280858098276, 0.25108008567175344, 0.2519520590314542, 0.25278538355139685, 0.25362548255936956, 0.25443052896294166, 0.25528648860512854, 0.2561966397723622, 0.25704863693757335, 0.25790398864494607, 0.2587557692911272, 0.25961533434927114, 0.2604474945801784, 0.26130922423627506, 0.26216734863298624, 0.2629939003674878, 0.2638460873158033, 0.2647434913189173, 0.26557383166622284, 0.2663986794832656, 0.2671994924249074, 0.2680125179955194, 0.26884720580734417, 0.2696365240813991, 0.27041648956474845, 0.27117826280198937, 0.27193738084516417, 0.27265251325095174, 0.2733889899309645, 0.27410911873610083, 0.2748473380513571, 0.27552854648843983, 0.2761215463974274, 0.2767785667308476, 0.277413576814205, 0.27803020549842283, 0.27861986725244603, 0.2792179590756286, 0.27975785085499516, 0.2802759323874333, 0.2807384102662225, 0.28121494993351787, 0.28170661947670833, 0.28212611178810043, 0.2825213487176255, 0.2828974157777395, 0.2832411747792818, 0.2835510535136368, 0.2838428974136784, 0.28410682548502375, 0.28434420545348094, 0.2845503446463982, 0.28472701495663716, 0.28487369508371063, 0.2849898895054405, 0.285045933658932, 0.28510346225499783, 0.28516840266720495, 0.2851536812506382, 0.28510746512613583, 0.2849689217636378, 0.28486589293342957, 0.2847713755173958, 0.2845902842635563, 0.2843756357603509, 0.28412129113330764, 0.283839395254101, 0.2834838745762155, 0.2831373340497737, 0.28275359439363984, 0.2823406276969736, 0.28188204871713196, 0.2814319844342269, 0.2808953288772836, 0.28032510346998807, 0.27969573451439916, 0.27906080274067774, 0.27835517944237204, 0.27765343423907285, 0.27691422921654374, 0.2761515786860733, 0.2753368853963532, 0.2745352782361919, 0.27364353187972534, 0.2727194350242171, 0.2717433910188987, 0.27075671139667634, 0.2697305211443129, 0.2686774243225961, 0.2675907334132499, 0.2664999353379709, 0.26534326430589655, 0.2641049763173711, 0.2628927984617208, 0.26164706038256164, 0.2603625476572505, 0.2590522936502839, 0.25771584485575916, 0.25634144167035255, 0.2549366382958991, 0.25347283792128716, 0.25201272091524896, 0.2505243138212656, 0.24900432191497077, 0.24745586751865997, 0.24586027316489165, 0.24425969653260807, 0.2426124179608624, 0.2409607305790536, 0.2392824983414504, 0.23760792953248625, 0.23587591974149297, 0.23415696876336484, 0.23237726007525758, 0.2305789070715192, 0.22873312430103254, 0.2269024423627995, 0.22502557854808075, 0.2231612344166429, 0.2212779522209323, 0.21939812986748966, 0.21747720894612696, 0.21554145521195806, 0.21359162852962715, 0.21162849631134031, 0.20962169280939869, 0.2076382189740237, 0.2056634478531944, 0.20365290098094452, 0.20163291866649058, 0.1995790282012571, 0.19754586357258228, 0.1954926597724266, 0.19344528800713004, 0.19139095478846668, 0.18932101789406755, 0.18725722953893606, 0.1852397168821611, 0.18316195993893353, 0.18108485410152747, 0.17896230671661556, 0.17689428866866055, 0.17483401155615413, 0.1727659808058391, 0.17070043385899927, 0.16864999031801226, 0.16659074342435995, 0.1645062719249138, 0.16246359592356743, 0.16042668918172698, 0.15842384714306168, 0.15639814206689792, 0.15438083257748414, 0.15237679200328652, 0.15038445388502794, 0.14837732057643008, 0.146414080699462, 0.14444768492880436, 0.14251220057606895, 0.1405901404589622, 0.1387389676297638, 0.13683963758877685, 0.1348839276557351, 0.13303369037470197, 0.13119962849525257, 0.12947625714300598, 0.12766595272756937, 0.12581204837021728, 0.12405957086385773, 0.12232818243964927, 0.12059533270862366, 0.11891145675428082, 0.11730417037519797, 0.11565848702761049, 0.11403969550981478, 0.11241506603436556, 0.110855321941007, 0.10935479543471048, 0.10784377202912067, 0.10636199124482067, 0.10488446828974216, 0.10346532763844597, 0.10208275803812845, 0.10072073324059946, 0.09938896160186751, 0.09807423266259108, 0.0968059132636045, 0.09555270037618688, 0.09434817349780618, 0.09317435828532004, 0.09203762672056215, 0.09092605090785759, 0.08988006826603444, 0.08882968009321186, 0.087814340185551, 0.08683797100393313, 0.08589232865274186, 0.08492171611448189, 0.08405443487823269, 0.08323470968257929, 0.08242991954665083, 0.08165890288896897, 0.08092190152740815, 0.08021911801121659, 0.0795390398578136, 0.07890662887277504, 0.07830817145895883, 0.07774187899181197, 0.0772120053739354, 0.07675135758940868, 0.07628549309608296, 0.07585585693234627, 0.07545047077761938, 0.0750938677980013, 0.07474469152481858, 0.07446067691184613, 0.07420938058490896, 0.07401219521366542, 0.07382353707394894, 0.07369782061212932, 0.07357265947991905, 0.07348225832841372, 0.07339296301537084, 0.07337457959757594, 0.07340301290737883, 0.0734448917830276, 0.0735183423364545, 0.07358011036087603, 0.0737208032093474, 0.07388738778948493, 0.07408388665105264, 0.07430783012445756, 0.0745882120261585, 0.07486270529225734, 0.07515581242948145, 0.07548766218145293, 0.07584617417140596, 0.07621916863150645, 0.07663095786532134, 0.07710612167230806, 0.07756142841949325, 0.0780424253846358, 0.07848406258651038, 0.07902210943003321, 0.07959344397391316, 0.08016883033043302, 0.08076406027867827, 0.08139811823529694, 0.08202910743537156, 0.082669773453201, 0.08334008774400385, 0.08402781568635159, 0.08471284147141804, 0.08543588485902472, 0.08621801484732965, 0.0869635073439616, 0.08772473469532245, 0.08848128274793586, 0.089273607347751, 0.09009918942512174, 0.09091176479724114, 0.09173590831732324, 0.09254734616150305, 0.09339484235075439, 0.09427324991621135, 0.09513222472922393, 0.0959986967323193, 0.096827016052085, 0.09771150295179869, 0.0986470235993225, 0.09952963070106179, 0.10041635195827364, 0.1012439741457222, 0.10214402588907494, 0.1030789480977433, 0.10396973928013424, 0.10485971949012977, 0.10579290708495107, 0.10667336914408053, 0.1074793431378472, 0.1083670018649972, 0.1092478364657202, 0.11012533078334372, 0.11099076613608405, 0.11186968497356502, 0.11271603581732936, 0.11355459260827212, 0.11440408776915705, 0.11522241343903528, 0.11597543156613159, 0.11678230515593852, 0.11757545871830834, 0.11835843724199091, 0.11912258574760919, 0.11993438535489177, 0.12066094226628013, 0.12137543716255096, 0.12201849872913019, 0.12271335775830443, 0.12343290511461923, 0.12408572658072861, 0.12472207928901456, 0.1253509607407772, 0.12595097744822686, 0.12647458057399036, 0.12704521415940134, 0.12759315268039095, 0.12813963356009334, 0.1286389357398592, 0.12916871100609145, 0.1296168112140624, 0.13004498391342995, 0.13043490367545493, 0.13082307227903198, 0.13116667806862725, 0.13151075333334125, 0.13182952039088064, 0.1320760115156848, 0.1323493061962123, 0.13264063731231412, 0.13285082229328152, 0.13303520875031846, 0.13315651954828026, 0.13329311169209043, 0.13344576149088608, 0.1335193385509351, 0.13356682134776687, 0.13359371664838107, 0.13358731028407614, 0.1335561876976525, 0.13349592880502925, 0.13340858954828305, 0.13328226487924952, 0.13314159381517512, 0.13296676748027086, 0.13277016638603037, 0.13254486815564667, 0.13226367173262302, 0.13198457703859115, 0.1316871098591604, 0.13134673994123658, 0.13097756403271765, 0.13062842107817066, 0.13019602891403442, 0.12970892197819422, 0.12922898326617596, 0.12872154666388866, 0.12822373557410577, 0.12765707796198997, 0.12704991503818486, 0.12643525803923042, 0.12579465061674824, 0.12510097690579033, 0.12441234179240815, 0.12367919912834907, 0.1229392364267921, 0.12217217749397233, 0.12138249380366303, 0.12056247033315656, 0.11976396975749061, 0.11888816996339865, 0.11799081023141282, 0.1169922143624804, 0.11606223373612017, 0.11512811881197928, 0.11414523063044935, 0.1131397288171002, 0.11210445886077862, 0.11105659289029703, 0.11001088652608076, 0.10891833603801791, 0.10780720621349267, 0.10666821108532816, 0.10552250260349409, 0.1043356886169579, 0.1031579950580943, 0.10196236684279161, 0.10078264565984732, 0.09954920901660318, 0.09830384815655063, 0.09704286144537642, 0.0957690080039287, 0.09446717857695007, 0.09317096347461067, 0.09189748268092002, 0.09057288229594553, 0.08923923398270436, 0.08787549075464032, 0.08652757634624104, 0.08516281927534258, 0.08379840751520248, 0.08242577368251673, 0.08104367827017858, 0.07965696360343773, 0.07827959920472977, 0.07687918953758827, 0.07547485681913009, 0.07406718117368657, 0.07265675438173304, 0.07120525263967514, 0.06979606018939788, 0.06840906530399364, 0.06699140330246371, 0.06557389970948599, 0.06419031232168433, 0.06277095203347272, 0.061297222771587445, 0.05989368087153481, 0.05849170411171505, 0.057123354509726776, 0.05572329953126688, 0.05430586296455569, 0.05292128205042323, 0.051542513960080485, 0.05015670093817441, 0.048793557797022914, 0.0474688373800841, 0.04611713449606321, 0.04477605642736141, 0.04343248091273857, 0.04211588399796466, 0.04084569561640117, 0.039548038751088366, 0.03826494830504233, 0.03697532693156846, 0.035725034460509314, 0.034531925715155426, 0.03330549291331561, 0.03209690701675005, 0.030836285309128228, 0.029672837966706004, 0.02857261251921318, 0.027432979128370474, 0.02631226670565619, 0.025152439345854642, 0.024078016360369797, 0.02305534660828682, 0.022010769735407318, 0.020986492964927446, 0.019998530244711262, 0.019014201465918392, 0.018003677005087995, 0.01707069876573954, 0.01615800291501795, 0.015305182226457452, 0.014430080077402723, 0.013579298558219452, 0.012753051323272828, 0.011951550311453346, 0.011159434299610938, 0.010410017850470788, 0.009679249623031788, 0.008979865363352778, 0.00830525787559481, 0.007642126256659048, 0.007019737729298845, 0.006406681843365813, 0.005836424143199648, 0.0052908709792841655, 0.004776270764301651, 0.004280568778572, 0.003816825153299411, 0.003372851712277797, 0.0029557481106557136, 0.0025753628331835554, 0.002211096436863642, 0.0018784214771861533, 0.0015690335038378645, 0.0012874984469906218, 0.001062931960868915, 0.0008331690751320287, 0.0005937163385779759, 0.0004270135504029986, 0.0002867165581040258, 0.00015338143630249277, 6.839018795642248e-05, 6.124944817922143e-05, 2.032302512562633e-05, 7.822205351606803e-06, 0.0, 4.614673048728304e-05, 8.714374645145063e-05, 0.0001890509931505662, 0.0003148706674365888, 0.00048607684545010326, 0.0006571648754408804, 0.0008534320812689109, 0.0010746479925932146, 0.0013205681278403636, 0.001600665894342522, 0.0018939767655671348, 0.002196154460876084, 0.0025399336799508563, 0.0029065245303190055, 0.0033073498167340504, 0.003717303502557965, 0.004169366077728918, 0.004621747969186602, 0.005097057907572938, 0.005577210818249697, 0.0060989006734261525, 0.006673958326308311, 0.00723163609364065, 0.007810662275417461, 0.008437611642626346, 0.009053894390404733, 0.00963466379270359, 0.010299114292999408, 0.010979715878595038, 0.011707317849703237, 0.012415387893278677, 0.013130685685780442, 0.013873300147203102, 0.014631131548636737, 0.015417301329056533, 0.01620233578667275, 0.01698821810780566, 0.017803304016256606, 0.01863087910131101, 0.019499654249906847, 0.020347061207108875, 0.021199345925367808, 0.02207233088102707, 0.02295610211839545, 0.02384809035710453, 0.024751823068313823, 0.025683860778292905, 0.02660224088176918, 0.027529409673883655, 0.02850746490875538, 0.029444659653911517, 0.0303617605403622, 0.03131984887061889, 0.03228346232268519, 0.03323443511847268, 0.03420938597535888, 0.035206451868989075, 0.03618379136462435, 0.03716396257676135, 0.038130777866268936, 0.03911674596151603, 0.0401573647905617, 0.041136305370219714, 0.04211756358763952, 0.04310608906920336, 0.0440886292264558, 0.045040159432865705, 0.04602610602043701, 0.047008896149343074, 0.04805619424677043, 0.04902269763536818, 0.049937915604525256, 0.050908468390253675, 0.051873602537245586, 0.05286596660479338, 0.053814774918161244, 0.054772359888614654, 0.05570907493706986, 0.0566403968764739, 0.057592867857041326, 0.05850788903681551, 0.05937814369437717, 0.06028561304418576, 0.06118353674867887, 0.06207350375127717, 0.06295103196164455, 0.06385507207904627, 0.06470665555517466, 0.06554919247321317, 0.06641127236871851, 0.0672302594943435, 0.06804989865446491, 0.06884879248434249, 0.06963781206490717, 0.07042798121816636, 0.07119387961722506, 0.07194100317307944, 0.0726853386074688, 0.07341717283501226, 0.07411860085819577, 0.07482652519703478, 0.07551408610750518, 0.07619356953004304, 0.07685795558655689, 0.07756947150017209, 0.07819563327121787, 0.07876334181672964, 0.07937139217134416, 0.07996408189147935, 0.08054333169321347, 0.08110498812560916, 0.08163772421527185, 0.08217050023441465, 0.08268720591371381, 0.0832113181419797, 0.08369329132186602, 0.084195894496859, 0.0846445597268766, 0.08508066749474438, 0.08545914524460402, 0.0858749301840383, 0.08627099182057382, 0.08665581318652603, 0.08702499521282206, 0.08741769853476278, 0.08775138104364459, 0.08808787407079753, 0.08839398319479895, 0.08866277308104006, 0.08894791071303945, 0.08921938829269195, 0.08949683002280877, 0.08973902662318012, 0.08997891830942358, 0.09019586265632416, 0.09040145198102074, 0.09057042141635566, 0.09075664873758545, 0.09090696772724173, 0.09107138800514245, 0.09122264017199565, 0.09136321236593392, 0.09148948880501753, 0.091631525483509, 0.09173185737899471, 0.0918231728828008, 0.09187456947133162, 0.09195252376571933, 0.0920185402272491, 0.09207730146493662, 0.09212703484328005, 0.09217216455345552, 0.09220493172708857, 0.0922538022705396, 0.09226957855626808, 0.09228034210429883, 0.09227663289325193, 0.09227943673971237, 0.09227755765114021, 0.09227140400990656, 0.09226139130541, 0.09228102885725814, 0.09226038835525492, 0.0922293010381022, 0.09220863583084794, 0.09218709909622094, 0.09216112610776622, 0.0921393443203121, 0.0921564467212236, 0.09213008002488757, 0.0921067091425856, 0.0920670025923322, 0.09205252751888736, 0.09201324431326681, 0.09200751465357387, 0.09200355214036741, 0.09202343477678182, 0.0920222907733625, 0.09199299001706292, 0.09200634339950446, 0.092023685719066, 0.09204185949847545, 0.09206984997316688, 0.09209789775681289, 0.09213910945632457, 0.09218724528305036, 0.09223131574606235, 0.09229681329779661, 0.09239197234272294, 0.09247197261109626, 0.09256280337181151, 0.09268245016774346, 0.09279412721720194, 0.09287229363240021, 0.09301658580448335, 0.09317208463501085, 0.09335895726050888, 0.09353648252418079, 0.09372830639256836, 0.09393486960978502, 0.0941566021628269, 0.09441338668755454, 0.0946642464069406, 0.09490924223597734, 0.09519827281572091, 0.09550396382459962, 0.09586373606772304, 0.09619937993806564, 0.09651805597510359, 0.09689849636246206, 0.09729709069010999, 0.09776098679006232, 0.09819127341219529, 0.09860076825067367, 0.09908052577615303, 0.0995799434239797, 0.10008579904101288, 0.10062744385826976, 0.10124362298412988, 0.1018189039479767, 0.10241814960560904, 0.1030276855792284, 0.10367645808785503, 0.10436197776110036, 0.10505540019194273, 0.10577296514629175, 0.10651274611992283, 0.10727891449992884, 0.10804585616638676, 0.10886330153158202, 0.10970370133588855, 0.11053812056033378, 0.11142887511799036, 0.11234360035825734, 0.11327858322633919, 0.11423650026608864, 0.11522155609994376, 0.11622574327729882, 0.11725778805056224, 0.11830957536315911, 0.11938584000997875, 0.1205216866826076, 0.1216426675693881, 0.12279802285146604, 0.1239709214632503, 0.1251703083932014, 0.12633553693829633, 0.1275946117162707, 0.12887590353883133, 0.13017962974155187, 0.13150595683599994, 0.13288030593176536, 0.13424894986933064, 0.13563211283314983, 0.13705028168968056, 0.13849173189957417, 0.13994463728218462, 0.14143366149205677, 0.14289615013333895, 0.14443545779763914, 0.14599390285702227, 0.1476476127278023, 0.14923532727906322, 0.150778768848107, 0.15242219844014201, 0.15408448629228624, 0.15579870950888586, 0.15749444698078538, 0.15920098135593305, 0.16093858161525265, 0.16269530693400913, 0.16446884825578945, 0.16626296384120362, 0.1680885792697178, 0.16991632731154183, 0.17176190634610863, 0.1735994769875675, 0.17548230358195702, 0.17738771094602004, 0.17929880671426524, 0.1812244324435945, 0.18317192084811854, 0.18512424953426773, 0.18707457261629495, 0.1890554415725857, 0.19104788103059017, 0.19303977119070825, 0.19505548183677568, 0.19709045398291894, 0.1991235901980019, 0.20116596697229894, 0.20317228470720977, 0.20523718447262984, 0.20733636315218998, 0.20940752864067178, 0.2114849378891976, 0.21352911343010084, 0.21562226089056152, 0.2177605844079099, 0.21985275102559654, 0.2219490633585625, 0.2239943029558352, 0.22610363192397195, 0.22825470499162975, 0.23035619266066373, 0.2324583990814738, 0.23454308536656382, 0.23664677788004662, 0.2387850211334013, 0.2408786021293855, 0.24297065739448673, 0.2450408191958375, 0.24712959441841442, 0.24922478810763013, 0.2513008894125362, 0.25337102947264284, 0.25542470524530997, 0.25748185124650746, 0.2594737700390051, 0.2615198251939689, 0.2635526129334293, 0.2656069637752747, 0.267608123963875, 0.2695777524983409, 0.2715566036325654, 0.2735210248992534, 0.2755230834178683, 0.2774505314734179, 0.27932022589417316, 0.28122639639468894, 0.2831074006096717, 0.28497926911509985, 0.2868322605160792, 0.28868341009901327, 0.29049497365382043, 0.29232219029502066, 0.29408990463734824, 0.295838895755846, 0.2975117995239834, 0.2992277603076868, 0.3009542293070462, 0.30261636716346463, 0.3042552389247378, 0.305879913195246, 0.30746905407957575, 0.30903938538931935, 0.310577808560236, 0.3120905736053188, 0.31353613278752596, 0.31500075288568796, 0.31643937601201244, 0.31784346324630225, 0.3192173405461321, 0.32054511587704343, 0.3218595698944547, 0.3231536336525781, 0.32440226293945457, 0.325619037708323, 0.3268542236138832, 0.32799987752531456, 0.3290532235218791, 0.3301459585799017, 0.33120374523601714, 0.3322770519862587, 0.333258123346897, 0.33418912205754986, 0.33510671745022497, 0.33598965968175537, 0.33683954098490265, 0.3376518892344441, 0.3383722500180561, 0.339120334664976, 0.3398291071726723, 0.3405337848464223, 0.3411600187931622, 0.3417590845105307, 0.3423100949068032, 0.3428243760634877, 0.343338659726583, 0.3437740860254643, 0.3441372027180657, 0.34450616549380414, 0.3448368226508444, 0.3451388353309262, 0.3453914529456212, 0.3456061394661592, 0.3457827859549798, 0.34592130661671144, 0.34598855092059094, 0.3460548339638929, 0.3460810067718352, 0.3460673333875095, 0.3460140640046677, 0.345970094966467, 0.34583219005660004, 0.3456503283546026, 0.34544089333668226, 0.3451945535502463, 0.34489571930447716, 0.34457751307568396, 0.344235189878892, 0.34383997698634444, 0.3434081954634067, 0.342879622435216, 0.3423826940216136, 0.3418520606895182, 0.3412759753026598, 0.3406619727952629, 0.34004174313115937, 0.33934959335635384, 0.3386481566424888, 0.33788386903107187, 0.33708690741475994, 0.33618922112480576, 0.3353357745953138, 0.33449481878057713, 0.3335636204896512, 0.33260041912505084, 0.3316016005050089, 0.3305757430599631, 0.32947574777638833, 0.328393039572131, 0.32727737280089303, 0.32613338863553953, 0.324953529849707, 0.3237547726641006, 0.32251292754291944, 0.3212424319782045, 0.31990682813405236, 0.3185852737634327, 0.31726765059730994, 0.315884426686596, 0.3144755213506633, 0.3130414314865236, 0.3115826615210259, 0.31012307914332266, 0.30861354049643713, 0.3070821930451126, 0.3055138150366292, 0.3039418957093212, 0.30234648480296383, 0.3007322817425396, 0.2990975548258939, 0.29741954276243976, 0.29574850998236146, 0.29409247691178425, 0.29237774750539286, 0.29064653289014913, 0.2888662310243768, 0.28710770506002137, 0.2853070507578384, 0.28351887876246623, 0.2817140587589571, 0.27990719296051697, 0.2780702494705776, 0.2762319205261782, 0.2743681359224403, 0.27249345193546104, 0.2705968300387099, 0.2687037409307127, 0.26677181883907475, 0.2648638753652902, 0.2629461058778468, 0.2610252922559746, 0.25908992229143685, 0.2571828023997319, 0.25523022603407614, 0.2532743885096488, 0.25129629096549677, 0.24933780021786023, 0.247349146685761, 0.24538893544580279, 0.2434255996112321, 0.24146779123638967, 0.2394997880944222, 0.23759971793584722, 0.23562343758048737, 0.2336521953019266, 0.23159075075573807, 0.22964207892394992, 0.22772866158951366, 0.22577703818877798, 0.22382961501756085, 0.22188703482191083, 0.21994992669234412, 0.21804810120446114, 0.21612008237417665, 0.21420098669947554, 0.2122794831175719, 0.21038076872914716, 0.2084622204881716, 0.2065864066529536, 0.2047192909912751, 0.20289273537157668, 0.20104121117258839, 0.1991846883973161, 0.19736079848249297, 0.19554921594497643, 0.1937543671594078, 0.19196849379646488, 0.19021616666823873, 0.18845645862913418, 0.18671283562369959, 0.18500504440336527, 0.1832919919010456, 0.18155806968375968, 0.17988620185611223, 0.17823053060775332, 0.1765662612472175, 0.17494768139706235, 0.17333754861019557, 0.1717530638227434, 0.17018562165611384, 0.16863778987371617, 0.1671060042293948, 0.16558336560133616, 0.16409104180564874, 0.16261796347552873, 0.1612093788737023, 0.15977054155299206, 0.15830419002070764, 0.15691793995977102, 0.155551972041634, 0.15419699382733557, 0.15287409514751182, 0.1515974269044978, 0.15031358534286288, 0.14905284675886163, 0.14780948425137658, 0.14659601399332498, 0.1454425995102882, 0.1442707309004541, 0.1431242469696419, 0.1419718024972635, 0.14087943348101598, 0.1398490763932976, 0.13879806084367294, 0.13772968619556988, 0.13673475931945828, 0.13576242390392074, 0.13484007077210314, 0.13390987535084029, 0.1329827431298403, 0.1321040494633655, 0.13124833190490123, 0.13043703064826176, 0.12962463238340236, 0.1287994690653454, 0.12803997964480066, 0.1273022424398198, 0.12658247394398164, 0.1258890254152825, 0.12525820701638207, 0.12460314893925499, 0.12397219498592682, 0.12335721183739579, 0.12277441914253523, 0.12219871622972349, 0.12166296029824787, 0.12114848611636288, 0.12063375611763327, 0.1201641498615005, 0.11973754288287342, 0.11930426525201217, 0.11889189404996289, 0.11852157522100264, 0.11814751275685877, 0.11779280011158896, 0.11746111891587195, 0.1171497249837686, 0.11688545204936004, 0.11660995340398102, 0.11632780561580738, 0.11609633944914566, 0.11588275410462255, 0.11565168544532167, 0.11547729636676488, 0.11535674806760683, 0.11520721007297434, 0.11507461915993435, 0.11491571365781131, 0.11482110753583717, 0.11473584162345565, 0.11466811050065473, 0.1146131889951756, 0.11458846725235057, 0.11455653429351627, 0.11453790840623178, 0.11453222255247875, 0.1145390999099204, 0.11455426220971113, 0.1145855930932479, 0.11464755141337785, 0.11469837458261847, 0.11476069323762839, 0.11477946084486618, 0.1148700214144483, 0.11498102605834547, 0.11508342383349247, 0.11519320023462327, 0.11531786429054677, 0.11544056210032298, 0.1155701803118122, 0.1157063184078329, 0.11584856763538537, 0.11600819002675072, 0.11615993208334346, 0.11637167351358521, 0.11652700827496097, 0.11668986715336103, 0.11678729408565912, 0.11697153925733253, 0.11717024402639706, 0.11735424522564698, 0.11753943708566032, 0.11773520276625825, 0.11792049493951436, 0.1181123018209003, 0.11829776677039322, 0.11848336079810635, 0.1186647172840553, 0.11884965191846027, 0.11902338009425804, 0.11920618756109908, 0.119386165337399, 0.1196136008668415, 0.11978056962811119, 0.11988820320766534, 0.12005993203452453, 0.12022602809363836, 0.1203843799376428, 0.12053894439018431, 0.12067943825143639, 0.12082222276241499, 0.12095788531143059, 0.12109989545326699, 0.12121911118575103, 0.12132367277128513, 0.12142982729315153, 0.12152806407616278, 0.12162787677758148, 0.12170833091042853, 0.12179626159332756, 0.12185823713852693, 0.12191235790310116, 0.12192510914564376, 0.12196644570725218, 0.12203384115902385, 0.12204857054343955, 0.1220542622941619, 0.12203299079021103, 0.122021624030034, 0.12204775206363491, 0.12200772181416696, 0.12195889362112466, 0.12185983137413695, 0.12179693862461072, 0.12170974642028372, 0.12162300446811689, 0.12152282293072912, 0.12143841240368417, 0.12130770053276772, 0.1211613194519848, 0.12100730695177624, 0.12084084518086384, 0.12059365372728467, 0.12041044331280101, 0.12023388719073319, 0.12001475836882484, 0.11978105992105954, 0.11949206840677293, 0.11923482564749589, 0.11902144667224687, 0.11872406143957911, 0.1184143963327005, 0.11808061940592258, 0.11774742827450108, 0.11740479054799433, 0.11704442571258696, 0.11667093976328285, 0.11632129025466617, 0.1159168314463611, 0.11547209927924437, 0.115048887193948, 0.11461243218302897, 0.11419196831272867, 0.11372546681844493, 0.1132066420795159, 0.11272224470377118, 0.1122238191829826, 0.11168630677409866, 0.11116374579826194, 0.11064980043436545, 0.11009523466281616, 0.10952806665720205, 0.10893291164014224, 0.10834306525027418, 0.1077656041280779, 0.10714704040822128, 0.10651759670884023, 0.10585011220873675, 0.10520263129121386, 0.10452358646511811, 0.10385471521622452, 0.10317333823366481, 0.1025130234870277, 0.10180386489078763, 0.10108736100804486, 0.10035950918098052, 0.09962275986911828, 0.09885584929975275, 0.09810446177650088, 0.0973239884111633, 0.0965561715237103, 0.09577834052286191, 0.09502602178642332, 0.09422518562275195, 0.09341964978109245, 0.09260541566945013, 0.09178494151485912, 0.0909583837364534, 0.0901259150778806, 0.0892955085948926, 0.08845081154676837, 0.08760124525897688, 0.08672361849852901, 0.0858677782074496, 0.08497321801606837, 0.08411069803296801, 0.08324148413954685, 0.08238179701966497, 0.08149913677485889, 0.08063389796052682, 0.07974096936115643, 0.07884606836486457, 0.07793189312557615, 0.07703591620700487, 0.07615517329226526, 0.07525279881518025, 0.07436155734527315, 0.0734568394295352, 0.07255268655744683, 0.07164535254380389, 0.0707432802776432, 0.06983231781474689, 0.06893338780129234, 0.06803522122147541, 0.0671420363563982, 0.06624587921251832, 0.06531469425507226, 0.06442740289805658, 0.06354056232717295, 0.06265865039049884, 0.06177393801840532, 0.060891542811201856, 0.06001191687163705, 0.05913548781066242, 0.058243197817512395, 0.05737681795101899, 0.05656235487957257, 0.055696846462546926, 0.05483830207058625, 0.05394978820903751, 0.05311000478606441, 0.05228892766749686, 0.05145798082520215, 0.05063364654060861, 0.04979086282862761, 0.048983665657603016, 0.04819209263510016, 0.04739587469461334, 0.0466069129539759, 0.04582744000786367, 0.0450535869900608, 0.04428596372106483, 0.043528933529698687, 0.04278040819562521, 0.04205033764197382, 0.04131823514589911, 0.04055493203755737, 0.039847446912064724, 0.039147552267976296, 0.03848876894787664, 0.03780113158294149, 0.03711244334148945, 0.036447588883509886, 0.03579281217942181, 0.035122959295271046, 0.03449196897360709, 0.033932326748844284, 0.03331191345246785, 0.03270466375775925, 0.03210643601461078, 0.031525291516749473, 0.030956440481425294, 0.030399753789281395, 0.029855121557610043, 0.029304934040056022, 0.028786360572305433, 0.02823969448054994, 0.027747793695015188, 0.027264701606212905, 0.02679858263565068, 0.026333213522925673, 0.02590922881950969, 0.02546059445248191, 0.0250242914822983, 0.024561272191601837, 0.02415419409318886, 0.02376275305265115, 0.023374738858248485, 0.02299722617683639, 0.022661445630153983, 0.022301244124507336, 0.021963221956755437, 0.02162645808186612, 0.02130224492880226, 0.020933856715243667, 0.020641050067225688, 0.0204093799855896, 0.02012732213967176, 0.019857195744723468, 0.01959676803890637, 0.019349907087572577, 0.019080967608363773, 0.01886007787767492, 0.018647889953888067, 0.01847365058471527, 0.018275305121326735, 0.01808153924526638, 0.01790451192304951, 0.017737069377779833, 0.017547875771070965, 0.017402954502208575, 0.017278908159389865, 0.017146819719722286, 0.017022821831588465, 0.016939883966039255, 0.016827518130481174, 0.01671497738842976, 0.01662253526985271, 0.016538286731836455, 0.01642495375582432, 0.0163608808654405, 0.016337087961514177, 0.01627909976867228, 0.01622833455086306