0.04965949098195179, 0.04908928614814893, 0.048650333135696826, 0.048094167655236476, 0.04755581496125663, 0.0469979271145956, 0.046492119601301764, 0.046024305514440915, 0.04553152305541696, 0.0450468283692981, 0.04456320905080949, 0.044091956694911706, 0.0435008860516255, 0.04305408925198373, 0.04260383990007474, 0.04223760957524843, 0.041771297192197895, 0.04121843700728326, 0.04076973357800718, 0.0403189659257418, 0.03996526418252591, 0.03949995699726056, 0.0391298149206664, 0.038663766826757574, 0.03820779288753104, 0.037726326642108586, 0.03729255963441004, 0.03669112800029885, 0.03629124471176004, 0.03588736531058157, 0.035530039171599206, 0.03511580786433671, 0.03484003626299802, 0.034413950314830584, 0.033999001185737496, 0.033464298771182115, 0.033086375649725344, 0.03262677360403308, 0.03226472681336036, 0.031901577342221724, 0.03155015404253549, 0.031186941447250725, 0.030910582400982285, 0.030543318553491666, 0.030185130295508674, 0.029899648091094022, 0.029551375723289645, 0.02919822341654871, 0.028876587797869897, 0.028565457841594644, 0.02809954410620001, 0.027829550014010773, 0.02763252227429441, 0.027355731412748246, 0.027085823240679856, 0.026941852916651684, 0.026671719774548276, 0.02638713279982219, 0.026148963122060994, 0.025922374293281928, 0.025646287342782053, 0.025449759851971124, 0.025327298967717266, 0.025137651231949644, 0.02495988717264099, 0.024689546573201916, 0.02454807986871309, 0.02433970929050153, 0.024219082947506305, 0.02413891023551817, 0.02402034127340292, 0.0239089411001152, 0.023776394497900765, 0.023684836308849655, 0.02372792817125329, 0.02363547184898081, 0.023558725628069346, 0.02346825728078477, 0.023425218288424574, 0.023290789461138932, 0.023286539788401988, 0.023289168629444017, 0.02332554518878338, 0.023340986500705624, 0.023390116198558557, 0.02342405057574526, 0.023470511498125176, 0.023616468696928322, 0.023677333989099558, 0.023657485742022442, 0.023765646436487403, 0.02388489201145822, 0.02397504029925151, 0.024122603488882538, 0.024277047103706782, 0.02444512224200378, 0.024623936750248362, 0.024944274052600315, 0.025129535374372923, 0.025380510780687045, 0.025598002483975132, 0.025836189113539403, 0.02596968477187791, 0.026262449502725157, 0.026572390021202288, 0.026887630323038987, 0.027215418430343058, 0.027703731319531855, 0.028038882189376113, 0.028204671130721153, 0.028606492175398786, 0.02901756660327934, 0.02943583901582786, 0.029868216626069796, 0.030352477988869878, 0.03080304979507293, 0.031268411966753305, 0.03179504486846069, 0.0322845827118015, 0.03275139434917774, 0.03328140460412888, 0.03382644574696282, 0.03450244606351922, 0.03506324903118002, 0.0356748484041901, 0.03627482603238659, 0.03689667059077413, 0.037481589146386184, 0.0381519361911816, 0.03870248518194136, 0.03942247183955989, 0.04015087949891468, 0.041056643986101614, 0.04178357963221536, 0.0425368386421018, 0.04330344122338834, 0.04408964482591698, 0.04476170072148147, 0.04560230679480357, 0.04655775453242223, 0.047407089079827096, 0.04827415960805721, 0.049019671251170016, 0.049938843738842977, 0.05095392637725681, 0.05188109775826282, 0.05282382692696495, 0.053718368649090534, 0.05470010437407457, 0.055771809096281176, 0.05676768526859227, 0.057780529899055494, 0.058873698208789384, 0.059911424826014366, 0.060965831613908145, 0.06204227146674604, 0.06313659323416891, 0.06412945686063037, 0.06527270189190054, 0.0665557129190975, 0.0677019213185234, 0.0688657946372553, 0.06985263252978646, 0.0710742665935076, 0.07234123976144023, 0.07356837401547149, 0.07480446746170388, 0.07605861071407148, 0.0773126574767104, 0.07872768027489684, 0.07998365326426517, 0.08125867471559686, 0.08240099843326733, 0.08372967712744012, 0.08512069519780031, 0.08645738838153212, 0.08780504711286787, 0.0891112893686502, 0.09048666071774261, 0.09199375267270263, 0.09336797544983505, 0.09475663714312843, 0.09611244967141547, 0.09753303217349124, 0.09884119083666489, 0.10029512163967545, 0.10175065895806414, 0.10335897423828734, 0.1048004351623935, 0.10624479670698683, 0.10770963018000165, 0.10918383265168809, 0.11052194095642433, 0.11203112416230235, 0.11359169094351489, 0.11509340682163131, 0.11659837025391989, 0.1182136545887474, 0.11971137886871319, 0.12118335449085828, 0.1227024408254552, 0.12422661154269674, 0.12565683734185193, 0.12720187664188193, 0.12886348767555206, 0.13038952972787612, 0.13192057664650744, 0.13329367024457667, 0.13485280429568472, 0.1364779055422506, 0.13801568554341276, 0.13955224084356282, 0.1411916094557098, 0.14271193921206157, 0.14414359671696444, 0.1456824886387504, 0.14721803635501474, 0.14875004281773357, 0.15027828730839843, 0.15191833698694415, 0.15342367043336794, 0.15493096134619647, 0.15624790149776693, 0.15777969939161757, 0.15928198424704987, 0.16079228305164375, 0.1622905242881435, 0.16391328879876177, 0.16537161296973973, 0.16688171522506404, 0.16832572904474286, 0.16976786814473244, 0.17112004554954777, 0.1725658270656314, 0.1740796320277983, 0.17549497689686788, 0.17690403456425816, 0.17830010701468949, 0.17969466866735379, 0.18110036243585292, 0.18247341970892475, 0.18383717933636518, 0.18508087299473347, 0.1864377552935735, 0.18776839473314932, 0.18909154820488833, 0.19039716256211914, 0.19160150120100608, 0.19288326205846124, 0.1943632923070268, 0.19557441773801992, 0.1967774354047412, 0.1977539067221666, 0.1989643869657279, 0.20029577347527108, 0.20144099840576454, 0.20257187716255623, 0.20364432618156572, 0.20475007626798628, 0.20591246513738568, 0.20697122379420713, 0.20801515823227515, 0.20900001217446335, 0.21001737168984674, 0.2110643979014008, 0.21203613351647557, 0.21299049381526125, 0.2138023067769963, 0.21473568129540938, 0.2156949386057074, 0.2165697379535203, 0.21735261646476453, 0.21819123248948585, 0.2190033030364437, 0.21993402351622898, 0.22067592299210245, 0.22124992275146096, 0.22197521936882247, 0.22267292237319758, 0.22345348719472338, 0.22408332705400177, 0.22462624854313212, 0.2252232005926978, 0.22579484200777292, 0.2263556421559173, 0.22687479371363706, 0.22747070885441462, 0.22792774143823585, 0.22836556061913196, 0.22862685227023383, 0.2290432034526722, 0.22938263910901052, 0.22974424115485415, 0.2300737313812868, 0.2305716877828527, 0.23081401238475693, 0.23103176302172315, 0.23123617134875177, 0.2314194338164642, 0.23157786051182797, 0.2317169124514521, 0.23182677058300336, 0.23191924921634627, 0.23198707478024952, 0.23184174399331223, 0.23188317073860887, 0.2319870362538297, 0.23194536480498698, 0.23187576327820772, 0.23167138258280548, 0.23156026645980393, 0.23159547305932138, 0.23139637723277015, 0.23117621201694752, 0.230734615236707, 0.23049587753323975, 0.230223324540778, 0.22991819683176712, 0.22958159851791984, 0.22921161594376768, 0.22881527746089209, 0.2284130950165716, 0.22795652658528903, 0.227473592486508, 0.22705731348270602, 0.22651101598340379, 0.2258953440678789, 0.22531448813870086, 0.22470984268647834, 0.2240119805895165, 0.22336872677799574, 0.22268640872702916, 0.22199030076066126, 0.2212672976822066, 0.22048328822246333, 0.21971272513887585, 0.21908297102351634, 0.21823770870149975, 0.21737620624524917, 0.2164514162453211, 0.21556123127734908, 0.214580876442452, 0.21365806533598405, 0.21271062406220007, 0.21169282067311093, 0.21070371537278745, 0.20979328032239145, 0.20874075010900656, 0.20767017978942104, 0.20652356370384284, 0.20542397937433882, 0.20422766682097954, 0.20309519282184532, 0.20193801573868017, 0.20087300808132127, 0.19965488190332473, 0.1984330608296952, 0.1971828072924919, 0.1959177559776685, 0.19461463858114197, 0.1933226554802351, 0.19198546239402617, 0.19066485436737093, 0.18932684179531234, 0.1879458651672857, 0.18657781693742898, 0.18515471653941623, 0.18375726823475538, 0.18234159627583926, 0.180917289539305, 0.17946671471863485, 0.1781254140718512, 0.17662931004851412, 0.17512623855839451, 0.1734681208690148, 0.17196860984244924, 0.1704817994719332, 0.16894714150002899, 0.16739981179696012, 0.16585492064940396, 0.16428228418346205, 0.16276907368753163, 0.16116795501898698, 0.15956151027519705, 0.15794668774971957, 0.1563295484915937, 0.15466609529323283, 0.15304255221760776, 0.15141106113229783, 0.14988497423582675, 0.14822461944507417, 0.1465523694781187, 0.14489236384486712, 0.1432305284128416, 0.14158694068682307, 0.1399183914656665, 0.13836750574831186, 0.136681718584081, 0.13500133175318718, 0.1331342995178364, 0.13148616815838501, 0.12985639986758846, 0.12819063749623508, 0.12652068176219747, 0.12490515422190908, 0.12322161151951964, 0.12162314935966734, 0.11993139514992326, 0.11824583728828272, 0.11647048537350059, 0.11480816419154904, 0.11332514899576528, 0.11164034518607112, 0.10996661739368663, 0.10830019970007253, 0.10664653901533606, 0.10493505576637734, 0.10330693588459904, 0.10168312965329993, 0.10012187240413238, 0.09850038513439233, 0.09692514930119014, 0.09531604590058923, 0.09371756751091952, 0.09223078759658948, 0.09064005828237602, 0.08902458806266729, 0.08746973288594302, 0.08592688655672671, 0.08434373154226539, 0.08283096901802396, 0.08137035970385859, 0.0798700016193454, 0.07838170297889677, 0.07691425481668712, 0.07544933650676319, 0.07402056729058001, 0.07257884275021341, 0.07115173576462712, 0.06984929117458824, 0.06843763575561566, 0.06703540835755878, 0.06566650301957706, 0.06431663301920006, 0.06291014874646757, 0.061606844931162676, 0.060488334517687134, 0.059191877946149524, 0.05791996579654511, 0.05657905704237359, 0.055365426927414266, 0.05425867631871713, 0.0530682346841056, 0.05190054099468347, 0.05068281121068329, 0.04956865661572574, 0.04861703236292693, 0.04752056183896828, 0.046450880619505086, 0.045459381911623485, 0.04443466641229038, 0.043440799032546315, 0.042470855928303186, 0.04152764270115914, 0.04048905071500759, 0.03961326438492102, 0.03877936314382401, 0.03793888111149619, 0.037119954559036814, 0.03648234228992533, 0.03568794350512623, 0.03478369302671798, 0.034070458408175186, 0.03337981585232119, 0.03278765014446993, 0.03213447249825749, 0.03160829236126624, 0.030999710749043195, 0.03031219492577556, 0.029785074230935734, 0.029284182488464365, 0.02890255695133198, 0.028443574614810743, 0.028086661962098667, 0.027683692054948746, 0.027316550741018485, 0.026880242619328715, 0.02659577147065086, 0.026322000631522846, 0.026096305516986964, 0.025898571457077493, 0.025761204234624968, 0.02561701304305056, 0.025428887958179214, 0.025357121350904958, 0.025312925117811223, 0.025456377255791772, 0.025449638817993087, 0.02537749375048827, 0.02546094147333318, 0.025576194819678228, 0.025923424541421828, 0.026078211373482655, 0.026141082290670355, 0.026400132681564423, 0.026693366935950286, 0.027096241056326197, 0.027448877848373444, 0.02782891690828527, 0.02826058974457195, 0.028729888182740467, 0.02912664603877867, 0.029684715907928257, 0.030317373715597756, 0.030933147357133504, 0.03158419461431885, 0.03238960359292197, 0.03309732181924308, 0.03371489033418601, 0.03452488416708028, 0.03536928659801745, 0.03626321221949418, 0.0371764653497173, 0.03823093260419841, 0.03920535924626008, 0.040223355933449875, 0.041264149812558173, 0.042370412686620715, 0.04340780940033197, 0.04461016602558317, 0.045847295480306895, 0.04724452673191158, 0.048537883611827995, 0.04994475512312322, 0.051316999175557876, 0.052736464762973924, 0.0541704817232449, 0.05568606973250465, 0.0571986498064606, 0.058806485116834686, 0.060454608606597994, 0.06209982543581058, 0.06383471255969553, 0.06555312773111881, 0.06737261105927493, 0.06922862643993943, 0.07117419874617116, 0.07309932306931377, 0.07513873079268232, 0.07713873127661854, 0.07918511904984381, 0.08134118716248323, 0.08347114391737248, 0.08559210760317389, 0.08782643921040718, 0.09010499539732886, 0.09250873122350076, 0.09486517678365129, 0.09711089335151706, 0.09958378792731953, 0.10209494625143922, 0.10464223072653552, 0.10723247138442149, 0.10997285934609363, 0.1126299957315306, 0.11533446513980596, 0.11809448814910799, 0.12089118316552272, 0.12376919949337441, 0.12665426637919738, 0.12958712240270082, 0.132523753563499, 0.13555599202078156, 0.13864071323528027, 0.1417593978803299, 0.14492227228813848, 0.14806263419331503, 0.15132198098852365, 0.15465331788558645, 0.15798936790115783, 0.16136817386433694, 0.1648158594846338, 0.16827706032168158, 0.17164074672778473, 0.17520837991287633, 0.17881199202677317, 0.18247279053382712, 0.1861484810069713, 0.18995635113959566, 0.19369978786782815, 0.19748866276061436, 0.20135431244521265, 0.20522852697846822, 0.20909928086014212, 0.21307052835485682, 0.2170834058348018, 0.2211174247368543, 0.22521544663664048, 0.22942274487997413, 0.23359146913357592, 0.23780366517642587, 0.24196307834393593, 0.24627220379373516, 0.2505450433372379, 0.25493567710037834, 0.2593586103344066, 0.26387526207573575, 0.2683568354461776, 0.2728408593181404, 0.27740098841169947, 0.2819958771604861, 0.2866023489485949, 0.2912695753593797, 0.2960424065094293, 0.30076692102176594, 0.30552863254327545, 0.31036445106127974, 0.31519362690764235, 0.3199760041788639, 0.32488912594226776, 0.3298327528114924, 0.3348124412759334, 0.33981559707173203, 0.34473003859889434, 0.3498077712723956, 0.3549079767830766, 0.3601093075332856, 0.3652458733805249, 0.37050007245316763, 0.37568050951898324, 0.3808927489408033, 0.3861123081959344, 0.3913871841326784, 0.3966569426549461, 0.40198834805566835, 0.40734280550512725, 0.412705182687189, 0.41810559261505154, 0.4235233387371072, 0.4289639990785694, 0.43442354495543933, 0.43986952253641703, 0.44536902113304994, 0.4508345035188572, 0.4563702066154434, 0.46191744890680264, 0.4673689759555894, 0.4729523531751092, 0.4786737693571526, 0.4842504955883524, 0.4898403188050772, 0.49540176796966656, 0.5010200841670019, 0.5065421450130531, 0.5121889392825372, 0.517836515287716, 0.5235255031087652, 0.5291696638359024, 0.5346835715807308, 0.5403498040105981, 0.5460101792597103, 0.5516215918371633, 0.5572765263129332, 0.563091518744826, 0.5687096599070318, 0.5743295204505297, 0.5798221936421057, 0.5854570749719495, 0.5911718036663193, 0.5967751088100334, 0.6023726046638022, 0.6079311070720701, 0.6135170084775851, 0.6190536882081915, 0.6246201243283115, 0.6301707282390686, 0.6356902273049607, 0.6412085535583623, 0.646632413789466, 0.6521210530509063, 0.6576772245095631, 0.6631036035116454, 0.668509320247435, 0.6737859737097225, 0.6791600785766508, 0.684518157091069, 0.6898290168529735, 0.6951092643915083, 0.7004073986226842, 0.7056179723869402, 0.7107346500371293, 0.7158915831608956, 0.7210121611151452, 0.7261361469291597, 0.7311765222908532, 0.7362121907953695, 0.7411741850844938, 0.7460989243143863, 0.7507909342836797, 0.7556612445113088, 0.7604848297212052, 0.7652495455432837, 0.7699622450644932, 0.7746140554767649, 0.7792231344778461, 0.7837874736329172, 0.7882881521435495, 0.7927348947584264, 0.7970835727102946, 0.8014257684306849, 0.8058366938387974, 0.8100449419470335, 0.8142005550100289, 0.8182062898178478, 0.8222636745149101, 0.8262494621010552, 0.8301813702549742, 0.8340483343051848, 0.8379856715725797, 0.8417032301175796, 0.8453987390079291, 0.8489902185986165, 0.8525203492235608, 0.855966840703094, 0.859370902378957, 0.8625359891276134, 0.865823853430692, 0.8690310958539406, 0.8723054281062582, 0.8753328255520626, 0.8782240772311803, 0.8811132349390877, 0.8839236642612603, 0.8866835925836261, 0.8893307355986182, 0.8918378191718634, 0.894333193429668, 0.8967440603279851, 0.8989947699307017, 0.9012449912107743, 0.9035789972943035, 0.9056275625177719, 0.9075961905626887, 0.9093531995951478, 0.9111743417425376, 0.9129159344200221, 0.9145532956011538, 0.9161000184093495, 0.9176745729653296, 0.9190242867850416, 0.9202805774659011, 0.9214606770003044, 0.9225531869159006, 0.9234123907630888, 0.9243452452032277, 0.9252897907804637, 0.9260125287581731, 0.926643937065883, 0.9270270984070335, 0.9274939425888966, 0.9280646750897037, 0.9283030164821391, 0.9284527788888448, 0.9284781954483461, 0.928452241467098, 0.928330145969754, 0.9281176586902227, 0.9278110114147432, 0.9272420183779453, 0.9267675470351401, 0.9263104566385219, 0.925613408886752, 0.9248213152978808, 0.9237807559566384, 0.9228180789931395, 0.9218040167415859, 0.9206290895114977, 0.9193561360150883, 0.9180292648370624, 0.9165567626703401, 0.9150745444163831, 0.9134042882429592, 0.9116455203541974, 0.9096704336745128, 0.9077496038677852, 0.9056511060550574, 0.9035482262452933, 0.9013459609957424, 0.8992803035048086, 0.8968539476181573, 0.8942007353282774, 0.8916278031122765, 0.8889634359141926, 0.886225793107785, 0.8833787185337332, 0.8804869646913578, 0.8774588273758713, 0.8743463287620629, 0.8710919035406831, 0.8678190879317607, 0.8643556468002473, 0.8609242076599353, 0.8574025051488982, 0.8540008244863988, 0.8502776247481855, 0.8464260488109694, 0.8425629585920387, 0.8386233318212998, 0.8344659042180811, 0.8303930118576388, 0.8263215787249428, 0.8220749904943881, 0.8177543734168916, 0.8133086977719701, 0.8088498808814587, 0.8044390106919196, 0.7998190658631793, 0.7951353631724426, 0.7903160338933064, 0.7855156000370181, 0.7805738898275771, 0.7756523352955554, 0.7706632843264013, 0.7655826553499384, 0.7604677625687387, 0.7553388545582478, 0.7500932692710448, 0.7447911360770094, 0.7395149861940578, 0.7340938945105833, 0.7286888743788116, 0.7231652811586129, 0.7175993173103535, 0.7118524536557748, 0.7062207764416601, 0.7006303898734453, 0.6948923616864531, 0.6891147096586095, 0.6833304059733588, 0.6774729125042636, 0.6715319091892954, 0.6656130869077297, 0.6596593475583256, 0.6535419760709108, 0.6475395981365522, 0.6415634318749219, 0.6354806834127128, 0.6293692034498449, 0.6231874687441292, 0.6170296956105502, 0.6108579436253334, 0.6046497409379618, 0.5984208662278817, 0.592210884125299, 0.5859416405862656, 0.5797463409439889, 0.5734417897101454, 0.5671322047635653, 0.5606707400723178, 0.5543722785369182, 0.5482311124198253, 0.5418924054473693, 0.5355568970452125, 0.5290631910021303, 0.5227568883031971, 0.5164066491734666, 0.5101009719295047, 0.5037941391501376, 0.4976362647872057, 0.49131570683753867, 0.48498614998715456, 0.4786977965515194, 0.4724242654596598, 0.4661291665093616, 0.45989380542324565, 0.4535823164850753, 0.4473933176012177, 0.4412188327598466, 0.435069853357994, 0.4289301001002176, 0.42283798581390414, 0.4167400195533152, 0.4106427957459391, 0.4046032773300686, 0.39859216269177034, 0.39278774374877296, 0.3868160943237035, 0.38085288686374, 0.37497209283185473, 0.36913284821148545, 0.3631967968490039, 0.35746013291559753, 0.35173319740885844, 0.34607330529114505, 0.3404514530325259, 0.3349158951889279, 0.3293699498239365, 0.32399750971583774, 0.3185289461615926, 0.31311612484664464, 0.3077678906133773, 0.30246602543679174, 0.29714006722518765, 0.2919627327676139, 0.2868385610308517, 0.28182367859679786, 0.2768022004677914, 0.2718257625761655, 0.26692573705519185, 0.2620856206651918, 0.2571729853256255, 0.2524717837302982, 0.24782816731683552, 0.24323779381897753, 0.23870575953396173, 0.23426253469477737, 0.2298479533554104, 0.22560177077473523, 0.22130330726421885, 0.21707670841556706, 0.21281773649626332, 0.20874806238935728, 0.20485162879719712, 0.2009015904159565, 0.19702549606931924, 0.193182748716701, 0.18945951492124274, 0.18580786987912293, 0.18222817427485427, 0.17872076978416143, 0.17523386384067474, 0.1718785740268246, 0.16869777879748327, 0.1654705180876405, 0.16232064737583618, 0.15904229646841372, 0.1560723056840906, 0.1533352679140498, 0.15047553985767967, 0.14769294983440778, 0.14481930377462832, 0.14221141923693686, 0.13968783477722363, 0.13721271050083123, 0.13480752110967822, 0.13244105786264768, 0.13018155727522904, 0.12803808218287407, 0.12591268007527046, 0.12386055482993674, 0.12185558295596575, 0.11995304509222939, 0.11829276091157948, 0.11651146849176383, 0.11481106932839824, 0.11300183135357386, 0.11148249326582922, 0.11015366515962488, 0.10875087534105271, 0.10742149257331493, 0.10626878812309191, 0.10507020075611913, 0.10376858163093887, 0.10274391796435073, 0.10178234033402908, 0.1008287946840467, 0.10000012621954674, 0.09936715247473879, 0.09864068097061283, 0.09798167165776583, 0.0974816096416302, 0.09694235868234383, 0.09642895359599929, 0.09603192578445409, 0.09569821672084228, 0.09542368033589091, 0.09521326952478092, 0.09498422654308114, 0.09490167262760202, 0.09487208764893434, 0.0950195387531933, 0.0950788086432605, 0.09500838728453234, 0.09520685274990537, 0.09545013906357204, 0.09574699000971051, 0.09607886439247423, 0.0964124145601241, 0.09683961895035584, 0.09730866060949611, 0.09791778301302306, 0.0984573515657941, 0.09895649708908703, 0.0995986054153231, 0.10027966324511188, 0.10102223923259498, 0.10177640940462776, 0.10271068760280717, 0.1035224126889718, 0.10437832476813198, 0.10509672508313021, 0.1060572381194666, 0.10723090927751205, 0.10822328443418945, 0.10925295587787509, 0.11018753650116772, 0.11130207756729883, 0.11240008340754545, 0.11356698980452148, 0.11475405975478864, 0.11608526599180585, 0.11729527693308064, 0.11839456673018028, 0.1196707545582877, 0.12096125269981778, 0.12224527909036675, 0.1235653338848611, 0.12487362167927585, 0.1262188263307252, 0.12757291221453781, 0.1289614085813311, 0.1303282953007587, 0.13183688149086237, 0.1332030079510656, 0.13458317870630124, 0.13589424192208913, 0.1373066064376192, 0.13880360229384947, 0.14021172309898788, 0.14162571760307832, 0.14298302534811191, 0.1444112619950464, 0.14591221543297117, 0.14732479234660584, 0.14873699678495372, 0.14998219157786233, 0.15140977400214678, 0.15300554205249217, 0.15438158763443743, 0.15575346324104256, 0.15708472764309475, 0.15844766530735777, 0.15984312187272712, 0.16117761994872268, 0.1625014334067633, 0.16361919355094995, 0.16494208180282757, 0.1663494947462503, 0.1676078848184483, 0.16884762657722927, 0.16996955354629845, 0.17118226507242645, 0.172527875577605, 0.17366786193199563, 0.17479052894510555, 0.175882935280411, 0.17696843735664042, 0.17803794507543044, 0.17907813120243798, 0.18009489016083005, 0.18099752716157116, 0.18197601028738145, 0.18300733496479682, 0.18391290588747383, 0.18479191502372944, 0.18555090710661795, 0.18638613588056824, 0.18708889752744648, 0.18786859920740948, 0.18860886885852196, 0.18938576713085423, 0.19003987446383527, 0.1906202059824206, 0.1912127720551172, 0.19176944072505175, 0.1923134866915314, 0.19279572051819374, 0.19316248604250258, 0.19358596358002284, 0.19397007848788508, 0.19434711766295862, 0.19464971790644975, 0.1949100386315336, 0.19514036486119787, 0.19533380135879183, 0.19551638945133995, 0.19563268905212586, 0.19581190964743647, 0.19584447172949165, 0.19580891149286545, 0.19578426279517552, 0.1957251391174048, 0.1956079181218389, 0.19548145984601292, 0.1953180462145855, 0.19511759585049954, 0.1948800609447156, 0.19457357851688323, 0.19426588586823987, 0.19398016687457384, 0.19358746538788615, 0.1931600078394107, 0.19255866007868552, 0.19207883213441257, 0.19172116414637366, 0.1911358576863081, 0.19051910170709727, 0.18987052439945873, 0.1891898487637526, 0.18831764730625297, 0.1875924180545585, 0.18682581564810227, 0.186010463142976, 0.1851660408529563, 0.18438473359854604, 0.18345217841190076, 0.18248924492600957, 0.1815539920230994, 0.18052348436830495, 0.1794461642310441, 0.1783649311970342, 0.17725571440412355, 0.17597678983680068, 0.17483002486828425, 0.17385056974720062, 0.1726089053528542, 0.17134603545063087, 0.16985312639411504, 0.16857319320781297, 0.1672914288036109, 0.16594174529081995, 0.16456332152618566, 0.16322969456443026, 0.1617880453013418, 0.16022656817476433, 0.1587549904619985, 0.15725733661464936, 0.15595489336416157, 0.15438094077434983, 0.1526143956598487, 0.1510423997625575, 0.14944870254463832, 0.1478459489318631, 0.14621053124826602, 0.14460634081071452, 0.14292956428408937, 0.14123923190148283, 0.13949522175506313, 0.13778416824241052, 0.13604702959672216, 0.13430925571446822, 0.13255795830761205, 0.13075927896757697, 0.1289879543335497, 0.12722400051444155, 0.12542541448477584, 0.12361720105703174, 0.12193336729809053, 0.12009151639783625, 0.11825860967579117, 0.11641587025992414, 0.1145733781196843, 0.11253699623517023, 0.11071915654882923, 0.10902368323719944, 0.1071690542734642, 0.10531432082995563, 0.10347723171797366, 0.10162125836289553, 0.09976738312573699, 0.09791593163290283, 0.09606726901517364, 0.0941059857930717, 0.09227877197115038, 0.09062863560159556, 0.08877528074990775, 0.08693229334328427, 0.08500970210806862, 0.08319823786272328, 0.08134251064921749, 0.07954794582310858, 0.07775708232890491, 0.07615633275792438, 0.07435272921577385, 0.07256637934571147, 0.07079672159662606, 0.06904332557421809, 0.06710610717351594, 0.06540965632536112, 0.06390869958967962, 0.06219847603539687, 0.0605063967129272, 0.058696174768742594, 0.057057038006844134, 0.05555829860985488, 0.0539240157288172, 0.05230928235142433, 0.05073716273015584, 0.04915836911257529, 0.04765531987428297, 0.04611092152477528, 0.04459017064040161, 0.04299997894085105, 0.04153701750765831, 0.040019098472599615, 0.03860071280311462, 0.03719682111147657, 0.03597646026962102, 0.03458357095111024, 0.03326688207806518, 0.03192123338991372, 0.03060442251918589, 0.029278091639794834, 0.028021677188874484, 0.026903093740022727, 0.025682145330940997, 0.02449231461762425, 0.02324004252612977, 0.022121572439761462, 0.021122250990102308, 0.020039137965005546, 0.018985452053530114, 0.017859331993234306, 0.016875824988469873, 0.016071095689807694, 0.015113235992976336, 0.014187637716895223, 0.013267460106557997, 0.012407449904279912, 0.011532810275173378, 0.01073563834735994, 0.009964383339807321, 0.009282943538745758, 0.008556076668861025, 0.007957740324337423, 0.00727829170811298, 0.006633873948949698, 0.005852660274389753, 0.005297015757212397, 0.0047815623461881195, 0.004270095562570189, 0.0037838174395629196, 0.003369500821223589, 0.002929041957981595, 0.0026623373761927123, 0.0022615007970655018, 0.001897666742740537, 0.0014769741353735895, 0.0011953640792393687, 0.0009741864204401867, 0.0007456436679715128, 0.0005473325161730411, 0.00038473069988687644, 0.00024524981540432046, 0.0001991892334224389, 0.00011084348005329025, 5.530283199622336e-05, 0.0, 1.202142797779866e-05, 0.0002673924148853015, 0.0003102937981529027, 0.0003938760264300095, 0.0005220226498602273, 0.0006807480409633108, 0.0007509425611426343, 0.0009960154008062947, 0.0012675964955596198, 0.0017336166198642503, 0.002037019045934212, 0.002405366796865812, 0.0027757843327576707, 0.0031813715569156617, 0.0036093309589457253, 0.00408323790200751, 0.004492951551213457, 0.005040957414368659, 0.005613695037380707, 0.00631278066621088, 0.006923004251454474, 0.007503650062494645, 0.008183425383156336, 0.008889934842878242, 0.009768006061047838, 0.010509883742261543, 0.01111311561952626, 0.011946001482609036, 0.012802165694051846, 0.013829838925060641, 0.0147155529058105, 0.015674912045290503, 0.016620945737449145, 0.017606697989880963, 0.018618940169662812, 0.019663724551091295, 0.020746107442150333, 0.02185314359921814, 0.02301719637099384, 0.024182350331027013, 0.025378990461630994, 0.026470471398572944, 0.027745666177926967, 0.029130107431195897, 0.030439854502285552, 0.03177829982322816, 0.03318878327580519, 0.03457889147715392, 0.03600862109188468, 0.03745912520294313, 0.038940356119784185, 0.040396967677224706, 0.0419456516719196, 0.04347479932487301, 0.045083166682079054, 0.04671620823264578, 0.048362934266396714, 0.050048500673405265, 0.05194498107860275, 0.05365887560802989, 0.0554097667333864, 0.05720815622822724, 0.05902847839813665, 0.06069252979398956, 0.06260584739791289, 0.06454178236863735, 0.06661710228107245, 0.06858640647255801, 0.07048897889744535, 0.0725338997651623, 0.07460456120337577, 0.07682029720409898, 0.07892925660632696, 0.08092756140741898, 0.08312253980111044, 0.08534257656569882, 0.08780851092893938, 0.09005316442989167, 0.09225342289730291, 0.09458662852237515, 0.09695245281038409, 0.09930145564084279, 0.10173812189294319, 0.10427359784687386, 0.10676042470474122, 0.10928105499025394, 0.1118815215066763, 0.1144630856064178, 0.1168863637138674, 0.11956333132732568, 0.12226417026692295, 0.125027729385022, 0.12777506016899656, 0.1306558729426402, 0.13344910119530246, 0.13627851392448595, 0.13902792739241107, 0.1419432861105574, 0.14489316581053285, 0.14786596767461227, 0.15086918007155772, 0.15395254948869214, 0.15701188813786932, 0.1601145094572091, 0.16324192712585764, 0.16640440433856005, 0.16974663254165562, 0.17296073221911912, 0.17617732019275262, 0.17948139872468571, 0.18282400223044323, 0.18619587891847486, 0.18961501838372127, 0.19308232723465465, 0.1965729148004992, 0.20010026372496928, 0.20353093359980104, 0.20714791521971815, 0.21079065486083484, 0.21446625280210332, 0.2181721287944641, 0.22192932392725806, 0.22569542926218703, 0.22951817904924723, 0.2333486901709697, 0.23721467405298005, 0.24113069771026063, 0.2450660517073496, 0.24904659686146663, 0.25305378737979134, 0.25709781731385906, 0.2610887855092454, 0.26521740049724996, 0.26937449030922855, 0.2735667953981442, 0.27779138720281843, 0.28204291241148416, 0.28633404374912025, 0.29067269857344247, 0.29502836471230726, 0.2994183662917742, 0.30378772319924113, 0.30825339815275266, 0.31288636704045875, 0.31739763397989196, 0.32194839128520897, 0.326427723532436, 0.331068746225036, 0.3356942576809605, 0.34040292299024555, 0.3451400579273414, 0.34995239529371075, 0.354741739312812, 0.35970205836257746, 0.3645376014704393, 0.36941244285926383, 0.3743164864295507, 0.37926690567634697, 0.38406983633540254, 0.3891121063745376, 0.3941770574766975, 0.3993781729898553, 0.40447579269846773, 0.4096356206551829, 0.41478925217895646, 0.4199736827981852, 0.42499981473412873, 0.43026695631026146, 0.4355256765614329, 0.4408320997646945, 0.44615596656490036, 0.45150078914701636, 0.4568608676629192, 0.4622544127506808, 0.46765079654301506, 0.47306717491641714, 0.4786568089660765, 0.48409313555442895, 0.4895312162619015, 0.4950248182556086, 0.5005415789182338, 0.5060426048679373, 0.5116067247135683, 0.5170319246794061, 0.5226498351301391, 0.5282747464766405, 0.5339128752400645, 0.5395521730257687, 0.5453617382304182, 0.5509967448491568, 0.5566487491835468, 0.5621540367500518, 0.5678558585364173, 0.5735870870019742, 0.5792922181017428, 0.585001857555651, 0.59063152343874, 0.5963591670644456, 0.6020674785178188, 0.607793366876788, 0.613516124991548, 0.6192327111215326, 0.6249490080758778, 0.6308378128640394, 0.6365231107315614, 0.6422131904353462, 0.6477177964796507, 0.6534351368675044, 0.6591378961581504, 0.66483195108414, 0.6705134850232095, 0.676182026427306, 0.6818370090639884, 0.6875935909394679, 0.693204784575379, 0.6988067468514807, 0.7042297694221542, 0.709829206763647, 0.715485879064324, 0.721027138047623, 0.726548463524723, 0.7319386912606239, 0.7374306069314047, 0.7430927018912991, 0.7484998736535879, 0.7538879413425638, 0.7591447530366374, 0.7645022273575108, 0.7698630697280832, 0.7751524393987965, 0.7804104288236738, 0.7855662536582504, 0.7907663824383451, 0.7958607768551679, 0.8009903276908903, 0.8060755190496995, 0.8112347680925255, 0.8162152569609845, 0.8210497349010627, 0.8259644460856855, 0.8308167252841627, 0.8356367419367698, 0.840406690252341, 0.845076715378316, 0.8497507698601015, 0.8544538391690591, 0.8590069523258097, 0.8635088694729656, 0.8678193293019263, 0.8722325618640926, 0.8767508753925056, 0.8810170458738339, 0.8852293798470828, 0.8893427148578437, 0.8934477334902196, 0.8974364692505092, 0.9014247051517931, 0.9053462123146402, 0.9093363462250921, 0.9131049915030859, 0.9167543693935767, 0.9204056977851534, 0.9239887024239766, 0.9274037172564629, 0.9308588746249229, 0.9343697948274038, 0.9376529537332593, 0.9408654576103995, 0.9438523465490906, 0.9469384881701529, 0.9499265972295103, 0.9528474138397622, 0.9556836916343189, 0.958461401771043, 0.9611249700175218, 0.9637136609466669, 0.9662085003205317, 0.9686192292087317, 0.9709278559345662, 0.9731706925708408, 0.9753410424938362, 0.9774076329264201, 0.9793870785930963, 0.9814032445099434, 0.9831907803309965, 0.9848210245465302, 0.9864524521899954, 0.9879945908653597, 0.9894727783076545, 0.9908309318732201, 0.9921513496343575, 0.9933224176316722, 0.994405034826579, 0.9952475652495233, 0.9961691755369632, 0.9969620081203227, 0.9976880648233322, 0.9983134828125543, 0.9988938255669711, 0.9993125987787109, 0.9995947357212986, 0.9998263443654181, 0.9999594158525977, 1.0, 0.9999360143957654, 0.9997542477140929, 0.9994979391576995, 0.9991432589405246, 0.9988642175564016, 0.9982917020365603, 0.9975850801417837, 0.9968417163946558, 0.996005859922939, 0.9951060213850291, 0.9940802925350654, 0.9929134412592201, 0.9917097306227625, 0.9904106679644383, 0.9889209190447366, 0.98744390164181, 0.9858842975275911, 0.9842062709905931, 0.9824314115559344, 0.9805200444170954, 0.9785591946428338, 0.9767073049473312, 0.9745283884814822, 0.972266608994467, 0.969869233448369, 0.9674466298840942, 0.9648181726878998, 0.9622365477607414, 0.959561728406701, 0.9569456427076819, 0.9540694789580552, 0.9509880637387064, 0.9479661660840641, 0.9448567219857652, 0.9416899529043429, 0.938405540305825, 0.9349839407900966, 0.9315431087996838, 0.9280189905905833, 0.9245404342290913, 0.9208379747306117, 0.9169883735359324, 0.9131520418609061, 0.9092404093978563, 0.9052227794485779, 0.9011680397116751, 0.8970165482786162, 0.8928190103217962, 0.8885494726608094, 0.8843398311698721, 0.8799146208900279, 0.8754613105053968, 0.8709126600968735, 0.8663069248442709, 0.8614910981100782, 0.8567920415474245, 0.8520521378786358, 0.8472241540838883, 0.8423374419497082, 0.8375124302510221, 0.8324984045583845, 0.8273939956595747, 0.8222922660311724, 0.8171426791077366, 0.811943604936344, 0.806702509613168, 0.8012407103743272, 0.7959351642762617, 0.7905784603618088, 0.7853703603198366, 0.7798949563719803, 0.7742197415185539, 0.7687026880710288, 0.7631461971553043, 0.7575758384470347, 0.7519446710584865, 0.7461896620485278, 0.7405097793409342, 0.7347973738105221, 0.7292316683198375, 0.7234395995937282, 0.717504995781119, 0.7116995872904109, 0.7058736538619005, 0.6999510489664781, 0.6940999639391193, 0.688371735218952, 0.6824671866855744, 0.6765564564800799, 0.6705769743749985, 0.6646653527555416, 0.6587301064739629, 0.652809932423084, 0.6468860152263894, 0.6409051846903784, 0.6349862110077312, 0.6290629045631065, 0.6231435857507054, 0.6172269072185221, 0.6114683365793885, 0.6055435247176624, 0.5994707827630711, 0.5936016163936185, 0.5877415515268601, 0.5820548157484217, 0.5761986528739415, 0.5703754105579336, 0.5645671753109063, 0.5587848711734387, 0.5530031104823596, 0.5472780569123976, 0.5414175944124164, 0.5357675942210516, 0.5301374626270362, 0.5245528284526084, 0.5189667660647663, 0.5134349199693934, 0.5079037736800338, 0.5024059469852554, 0.49689373731097475, 0.49147327330611973, 0.48615725842060664, 0.48079971096853125, 0.47548448648379044, 0.47025895209261664, 0.4650256396984503, 0.45967243405583863, 0.4545570581366639, 0.44948161242414464, 0.4446044974334663, 0.43959517621766686, 0.4346576875674173, 0.42975549853380335, 0.4249096028432234, 0.4200971886983813, 0.415367908218294, 0.41066875683583504, 0.4060558080240342, 0.4014439098344778, 0.3969509197697319, 0.3925126433064595, 0.38826063831143315, 0.38391905248591957, 0.3795012038791606, 0.3753087564782185, 0.3711740013156153, 0.3670431777574989, 0.36303441083406907, 0.3592168893401351, 0.35530883066747176, 0.3514690113643933, 0.3475875010116046, 0.34389835327320756, 0.340422136076456, 0.3368397243813596, 0.3333300652931332, 0.3298261734989099, 0.32646931481010383, 0.3230820228489611, 0.31987391680200666, 0.3167288562432471, 0.31380421300726224, 0.31076843723592196, 0.30770875929226443, 0.30483391905147406, 0.3020269809693344, 0.2992998367433208, 0.2966281125256374, 0.293993852509435, 0.29146482892768877, 0.2890033918521791, 0.28662135205951655, 0.2842942450277681, 0.2821719392032544, 0.2799650232197901, 0.27783431528534513, 0.2756917235558052, 0.27372080403835986, 0.2718119975023584, 0.26997733310301214, 0.2682096566520851, 0.26639577082831756, 0.2647754665570359, 0.2633509495271823, 0.26183339936537825, 0.2603841285646697, 0.2589791470896693, 0.25766689551816613, 0.25641339472453667, 0.2552303553034256, 0.2541103110802748, 0.25311057803225173, 0.2521074148168563, 0.25117445442259795, 0.250298263833233, 0.24948460717902196, 0.24853550999423232, 0.2478685478026965, 0.24724407169956988, 0.24667495665571457, 0.2461547376801372, 0.24568078456803655, 0.24525936315600202, 0.245002826247172, 0.2446647750379185, 0.24438190261499498, 0.24405157838507166, 0.2438879994027093, 0.24394088572612352, 0.24384656467101803, 0.24380651211438348, 0.2438216432447909, 0.24388391954690194, 0.24381546701685972, 0.2439962518828804, 0.2442123358020385, 0.24445777262577886, 0.24474459928126477, 0.24509743016294544, 0.24544810530931488, 0.24583375235531094, 0.2463924661925042, 0.24682781251429584, 0.24732633256842457, 0.24783665969819693, 0.24838417669028712, 0.24877280680085737, 0.2494130508576053, 0.2501025821554393, 0.25077959874779915, 0.25147798934280585, 0.252142061165249, 0.2528880414797137, 0.2536819226322588, 0.2544555707041303, 0.25524613463765405, 0.2560295940067795, 0.25685429355825673, 0.2576600450133699, 0.2585137676230586, 0.25937694103967485, 0.26047474087990796, 0.26132623247034675, 0.2620326508100889, 0.2629422533045197, 0.26385739566331556, 0.2647249608698987, 0.26565474429696895, 0.2667548988035898, 0.2676615588805821, 0.26857603512679895, 0.2693659234607985, 0.27030627164556625, 0.2712498128787975, 0.2721773457192982, 0.27309837450996777, 0.2741625841707847, 0.27504895227501597, 0.27581301878471304, 0.2767112399861708, 0.2775978420552484, 0.2785182809158317, 0.2793731824729041, 0.28020777123218865, 0.28103927532621314, 0.2818562307942274, 0.2826691414036994, 0.28345233814854354, 0.2841113820694334, 0.2848729909761982, 0.28560945213205124, 0.2863148408448505, 0.28700126458958425, 0.2877310928975805, 0.2883562926819734, 0.2889587046240249, 0.28950554674790535, 0.2900636361406954, 0.2906407596161663, 0.29113782247824727, 0.2916090114552405, 0.29193176017709316, 0.29236372303978503, 0.2928239222188193, 0.2931770605356252, 0.29349852720870406, 0.2938572920319077, 0.29410508606155694, 0.29422803032643846, 0.2944282316677995, 0.2945917256774891, 0.294680735820475, 0.2947751314765948, 0.29497787322128033, 0.2949750776553106, 0.2949414067115584, 0.2947656621484373, 0.29468072377694376, 0.2944947239195612, 0.2943369650408837, 0.29413554240484724, 0.2939777794273115, 0.2936793740670491, 0.29346207419705456, 0.2930730407458763, 0.29265226761731955, 0.2921579265945603, 0.2916750712005929, 0.2910389663217292, 0.29049533793730103, 0.28990678159504085, 0.28937228787131025, 0.2886830427184566, 0.2879009137095639, 0.28714251857370904, 0.28634251939430516, 0.28549245157837994, 0.28461101158475804, 0.28373738101429136, 0.282767211396415, 0.2817590201836277, 0.2806113946699618, 0.27953978624103304, 0.27841859506396166, 0.2772610177273205, 0.2760610325406341, 0.274903423102633, 0.27361042305707417, 0.2723689089475059, 0.2709942045990198, 0.26958909612502524, 0.2679271806102026, 0.26648822444735926, 0.2651003954515738, 0.26356213503257986, 0.261987911135762, 0.26030594835165044, 0.2586707618728902, 0.25697419629223595, 0.25526668630016897, 0.25355959135814266, 0.2517741121034768, 0.24995591497363953, 0.24807683362478222, 0.24619919606790858, 0.24434741284650618, 0.24239931470789203, 0.2404242973396634, 0.23851832299554282, 0.23647867457341384, 0.23443328830585458, 0.2323511158899703, 0.23024913164011596, 0.22812429037449525, 0.22598271458389624, 0.22376893799977843, 0.22159396881511081, 0.21939645418807754, 0.2171800596985699, 0.21493941628790847, 0.2125658365563177, 0.2103002174350393, 0.20800983892983213, 0.2056674762648872, 0.20333632046576686, 0.20096919121859702, 0.19859855375116936, 0.1962088672338714, 0.19394070275219438, 0.19150004866762801, 0.18895132549857682, 0.1865102265433928, 0.1840572015304516, 0.18157893134153913, 0.17910730955406942, 0.17662339162192253, 0.17413448272030796, 0.1716382598155763, 0.16931820349045007, 0.16678749369491055, 0.16411517590849406, 0.16161473789777261, 0.1591112248660341, 0.1567445902483927, 0.1542202812612431, 0.15170357883007393, 0.14919428705076204, 0.14669233155960829, 0.1442295949442435, 0.1417384889086313, 0.13923083927980165, 0.13676209838623576, 0.13430159710819278, 0.13171949419647247, 0.12929332984588934, 0.1270288144951891, 0.12458896955674141, 0.12216363684529075, 0.11964006819422468, 0.11725861017775051, 0.11493815935288264, 0.11256917456965514, 0.11021449848647731, 0.10799067861054584, 0.10565219114929707, 0.10322380696704365, 0.10094542812350396, 0.09868343416604346, 0.09644163101362235, 0.09421474502607602, 0.09203600776923718, 0.08984465945739084, 0.08767571976032228, 0.08551813366579808, 0.08339705888058453, 0.081464363339421, 0.07936975530858642, 0.07730900806936972, 0.07530745806598928, 0.073309127931498, 0.07119963673463513, 0.06928628694022679, 0.0673974976808784, 0.06573103212025903, 0.0638690931414576, 0.06200187505694614, 0.06022091037351914, 0.058474185976592465, 0.056833916167338516, 0.05514610320207414, 0.05350501334966813, 0.051891642800999116, 0.05031585330550257, 0.048707789504798836, 0.047214942099715385, 0.045752070166804965, 0.044325792003403745, 0.04293314352971116, 0.04159776413891599, 0.040270868126097585, 0.038980298778055866, 0.03772630774364746, 0.036509152881113, 0.03532619941427743, 0.03418386370331387, 0.033116616417683147, 0.03204469689200979, 0.03101287763013334, 0.030038478762990376, 0.029084534116396873, 0.028313445152879542, 0.027423411517803847, 0.026582097049695278, 0.025770913854628458, 0.025025746422740053, 0.024252760770446517, 0.02360522627670345, 0.022997000091623608, 0.02266271252130219, 0.022103803801057885, 0.021571659797708313, 0.02111991801096387, 0.020716221924387216, 0.02038260447368813, 0.02006884055971605, 0.019737790363132814, 0.01952399750881262, 0.01935136870778525, 0.019321092558244875, 0.019217582925943284, 0.019030308195415967, 0.019035441758154314, 0.019078162371927956, 0.01919071728361671, 0.019305745271559344, 0.0195973056705691, 0.019776071154065183, 0.020002984015039468, 0.020126417184997764, 0.02046556159207646, 0.02082996434227719, 0.021244724789301724, 0.02169655760852368, 0.022240915159166715, 0.022761198920244564, 0.023371991781079807, 0.02396844456140242, 0.024608573642254935, 0.025228099705157738, 0.025961928643510074, 0.026951383301939275, 0.02773477745222263, 0.02856891587203285, 0.02929859875111431, 0.030248557878092115, 0.03134885325532282, 0.032359372844540345, 0.033413619662137614, 0.034522226774642895, 0.03565971725217995, 0.03684191706499543, 0.03806188920242546, 0.03932235676132054, 0.04051554298014845, 0.04186865062795343, 0.043396335065746895, 0.04479730752384016, 0.04623965135132126, 0.04772827768203859, 0.049250082822863354, 0.05062301271219828, 0.05224655220721179, 0.053897534194890816, 0.05562033723916767, 0.057323428284634305, 0.059171769246560854, 0.06092548642318179, 0.0627182795264025, 0.06440459925334892, 0.06629154793024433, 0.0683694040495872, 0.07029395340951936, 0.07225738156159678, 0.07420953323189783, 0.07625421566437078, 0.0782340081945881, 0.08035791659744253, 0.08250922812681456, 0.08480135379972104, 0.0869945979042182, 0.08923729243707647, 0.091498004074911, 0.09379324921743257, 0.09604128662948663, 0.09841387826690581, 0.10085801560650362, 0.10328147609444516, 0.10573570144825253