0.04468839001452452, 0.044494873512159645, 0.04434151147314265, 0.04418325474050289, 0.04404100430095278, 0.04386374317889906, 0.04375287243018194, 0.043647294929349996, 0.04354972602502218, 0.04345710045920224, 0.04335244366645055, 0.043269623561955725, 0.043187171543762864, 0.043108671076647696, 0.043031825002360746, 0.04299619320786635, 0.04291746161572343, 0.042820916117939783, 0.042752290844775435, 0.04268584894863461, 0.042598239493695296, 0.042539381273166, 0.04251775023836175, 0.04245706863430759, 0.04240030165608787, 0.0423096653400391, 0.042265705577243934, 0.042256217752417446, 0.04221266792026321, 0.0421485966586457, 0.042117775984652314, 0.04209051783426827, 0.04206897935506255, 0.04204966653343309, 0.04202782299416996, 0.04201906383952137, 0.04201514074602064, 0.04202898574465495, 0.042034077159670225, 0.04203119579617495, 0.0420511548677513, 0.042077065478831416, 0.04210198982603864, 0.042141505538648795, 0.04216029682624429, 0.04221611420951052, 0.04227725270344203, 0.04235317663198278, 0.04242513948804743, 0.042511374031068146, 0.04259681770781477, 0.04269023440889861, 0.042771966444826046, 0.042884312407167065, 0.043021994885091445, 0.04314699312398093, 0.043280883147451564, 0.04340034108013317, 0.04355527423226999, 0.04367843761613521, 0.04385440745216561, 0.044036565332143944, 0.0442416842205293, 0.04443577870713587, 0.04461684993915794, 0.04483114552350412, 0.045053340358361484, 0.045291038001474146, 0.04552926787687583, 0.045796692919336975, 0.04605139633754207, 0.04631702601722706, 0.04659721773426123, 0.04688434501988379, 0.04718271080886438, 0.04749233253441179, 0.047813236420796726, 0.048154466464723884, 0.048496908137648245, 0.04886568116013052, 0.04923011970235318, 0.04960727264848918, 0.04995559922625723, 0.05036315391500119, 0.05080971324088622, 0.05123428429526371, 0.05167125048703838, 0.05205938944133822, 0.05252902458849913, 0.05304200654727104, 0.05352610054352565, 0.05402230252792547, 0.05450917803313715, 0.05503288334674853, 0.05557702758876522, 0.05612278823970866, 0.056681125222284905, 0.05723783087266651, 0.05782374926012778, 0.058418408481842016, 0.05902975277842192, 0.059653775692490724, 0.06026551163333938, 0.060918836628224164, 0.06164539419472543, 0.06231530660921387, 0.06300137032147689, 0.0636907897673546, 0.06441022789511772, 0.0651464359005172, 0.06589556869877251, 0.06665974893684017, 0.06744796787192164, 0.06824105568834438, 0.06904425336857038, 0.06986897960189335, 0.07070877835530859, 0.07155102702323894, 0.07242254011334033, 0.07324713585327851, 0.07415518512567622, 0.07507432870021831, 0.07603036100773984, 0.0769701374618776, 0.07792572193002215, 0.07889345140349485, 0.07987559600668949, 0.08085783912860835, 0.08187090836469639, 0.08289961397400228, 0.08394027597240665, 0.08499514481551518, 0.08605528740338995, 0.08713991272102577, 0.08823118830254281, 0.08934452085188457, 0.0904714400403982, 0.09161923868082615, 0.09277264592762015, 0.09395642933706322, 0.09513605031826597, 0.09633061566521967, 0.0975200904697914, 0.09874641017915299, 0.1000219648511973, 0.10127007800108995, 0.10253330165231589, 0.10375721094677627, 0.10505640284725584, 0.10635761474947081, 0.10768012545052212, 0.10901336278287627, 0.11039348184749759, 0.11174392880322603, 0.1130695189970774, 0.1144504281590252, 0.11584162800224994, 0.11724314455534858, 0.11865496909879941, 0.12007706124295582, 0.12150935174392671, 0.12295174507648408, 0.12443295137669096, 0.12589152540307175, 0.1273595972376944, 0.1288405881465531, 0.13033196964136934, 0.13184958637252325, 0.13335859102909425, 0.13479311737813246, 0.1363327655485449, 0.13787692864132528, 0.13946548679891807, 0.1410143183484348, 0.14259563640521833, 0.1441555352076468, 0.14572357011749232, 0.14725060264978382, 0.148839610664689, 0.1504344056587803, 0.15203110038747245, 0.1536317322019119, 0.15525057363211014, 0.15685680095040166, 0.15844023438453556, 0.1600580079793158, 0.1616778134464682, 0.16336438094437133, 0.1649796064655331, 0.16654053778890668, 0.16817286641683196, 0.16980556785580833, 0.17149430490069456, 0.17312007961716702, 0.17468383474758545, 0.17632278846696156, 0.1779595517591717, 0.17960841222013413, 0.18123855473303413, 0.18289746149928904, 0.18451965613365912, 0.18614100927575655, 0.1877627129362811, 0.18938034656374014, 0.19098105594545448, 0.19259492541512502, 0.194204357951617, 0.19578370812912846, 0.19738619677107547, 0.19901580676886613, 0.20059952024365682, 0.20217757713938836, 0.20370438758971776, 0.20527520845746108, 0.2068398542439743, 0.2083905148065562, 0.20993126891871863, 0.21145826884929866, 0.21297890806000191, 0.21449944355197986, 0.2159966021911452, 0.21748286274179768, 0.21896502022545067, 0.2204273297369761, 0.22188689932199077, 0.22332408460831654, 0.22474905623056357, 0.22615405465719488, 0.22755386640220202, 0.22893043132180807, 0.23030244814720285, 0.23165880721666396, 0.23302075059722357, 0.23434191443166077, 0.23562225194598405, 0.23691483628321572, 0.23819108873572925, 0.2394468481967654, 0.24068390663715958, 0.2419091102637785, 0.2431067670297475, 0.24429944505648352, 0.2454560616736426, 0.2465932378439537, 0.247715843248893, 0.24881186734368396, 0.24988900689889312, 0.250942906909356, 0.2519751963863478, 0.2529637570886499, 0.2539540916051623, 0.2548985517849971, 0.25584285066006074, 0.2567611484813709, 0.2576425334754964, 0.25850986916001173, 0.2593898640488111, 0.2601981454669235, 0.26098148427579365, 0.2617160077196639, 0.26245109570056374, 0.2631298066584877, 0.2638132383154571, 0.2644670843988209, 0.2651796479419605, 0.26576316487299273, 0.2662481197619135, 0.2667908218610951, 0.2673031928480226, 0.26783021810570606, 0.2682760320021995, 0.2686415584361304, 0.2690374447815155, 0.26940146664217, 0.26977508760958957, 0.27007018255256376, 0.2703537594458124, 0.27058713613778623, 0.27079128220676285, 0.27091528989368824, 0.2710660288996263, 0.27120869063665054, 0.271289704539524, 0.27133895676652076, 0.27131124044206817, 0.2713021968679016, 0.27128725320894825, 0.2712053482332593, 0.27109078588113233, 0.2709200941905299, 0.2707430397561403, 0.270585940283693, 0.270334007649917, 0.27005130643878955, 0.2696870778425037, 0.26934833986347484, 0.2689986299249939, 0.2685883565637946, 0.26814542262522606, 0.26767343315007985, 0.26716473926441087, 0.2666398460772903, 0.2660642806759883, 0.265457247148564, 0.2647447821922139, 0.26408392148046206, 0.263444934734697, 0.2627058079051427, 0.2619352728459662, 0.261091928137856, 0.2602639600295389, 0.25938442286060454, 0.2584920643542092, 0.25756598564354244, 0.25661753136306, 0.25562421078410474, 0.2546190966451211, 0.25356039668257724, 0.2524718921215374, 0.2513501531274542, 0.25020302916398507, 0.24902465589348532, 0.24781910555004735, 0.2465844971368724, 0.24531750061087826, 0.2440260604679835, 0.24273323254223633, 0.2413818714825801, 0.2400042718156129, 0.2385879420167439, 0.23715985743236148, 0.2356998829010948, 0.2342198292867365, 0.2327136350871924, 0.23116907562263334, 0.2296133676664853, 0.22801578315149634, 0.22641131891334693, 0.22478130618841063, 0.2232038594222983, 0.2215148401353753, 0.21973980447706756, 0.21802048237305865, 0.21627806407987188, 0.21448794876200772, 0.21270439050996112, 0.2109522161873402, 0.20911727692777624, 0.20726426038700585, 0.2053682414221975, 0.20348319031073192, 0.20155981096563685, 0.199640832071757, 0.19770339393139247, 0.19575003424560816, 0.19377763574056742, 0.19179082611363324, 0.18978643748250892, 0.18776725113309384, 0.18576091934903124, 0.18371058599451787, 0.1816398133762937, 0.17956814574282848, 0.17748533794822655, 0.17537387301855673, 0.17327257711276975, 0.1711624640382433, 0.16904037506384517, 0.16690910322794933, 0.1647818998220122, 0.16263257606070736, 0.1604856826804013, 0.15832258158764634, 0.15615445421041366, 0.15394752776849652, 0.15177507868747997, 0.14961333010409938, 0.14742857743975882, 0.1452407536724339, 0.14309370762535975, 0.14089608466647918, 0.13869782086990787, 0.1365029966249843, 0.13430977069305086, 0.13208424847882624, 0.12989959988528643, 0.12774636977509735, 0.1255601202700542, 0.12337775978548102, 0.12117268722387332, 0.11900282070315082, 0.11690332860896835, 0.11473313852275668, 0.11257176860520587, 0.11036168902139508, 0.10822569050445172, 0.10613365613286668, 0.10400585897405364, 0.10188775979103408, 0.09983020086104102, 0.09772630979417002, 0.09557671425100538, 0.093507888986856, 0.0914496145778778, 0.0894547738183434, 0.0874128711906159, 0.08543495682134393, 0.08341775644309173, 0.08141901918186491, 0.0793953636554929, 0.07743868891384847, 0.07556814166176727, 0.0736347169021464, 0.0717219515195565, 0.06979729300746075, 0.06792966625616692, 0.06613479807025582, 0.06429808917164599, 0.06248382924549932, 0.060702777165505956, 0.05893195846526191, 0.057191438402969336, 0.055465928160729934, 0.05376404299203646, 0.05210748679505066, 0.05045041131829384, 0.0488239628849195, 0.04721667980541339, 0.04563503861515177, 0.044102548266574594, 0.04256952726260715, 0.04112510374921876, 0.039639014547849565, 0.03818376433663237, 0.036742744641802966, 0.03535014464469566, 0.03400820075114769, 0.03267093168991008, 0.031390980887122895, 0.03011079040159393, 0.02886229413873569, 0.02768854068953059, 0.02649744734758225, 0.02532567204157117, 0.02420350493978998, 0.023113625290424742, 0.022140637928154135, 0.021104432391744306, 0.02008354919925378, 0.019123339543633943, 0.01819772337647655, 0.01734610715010182, 0.016484032051968234, 0.0156708821945991, 0.014879463250036317, 0.014124399992621552, 0.013439607756968093, 0.012752043448070429, 0.012089400184898822, 0.011478100820970281, 0.010902914452208742, 0.010433970862459101, 0.0099217486121995, 0.00939884655959979, 0.008971967446182127, 0.008580968988114189, 0.008263702445600159, 0.007939744403812106, 0.007659306048997427, 0.007410664002071146, 0.0072000316831652466, 0.007077681135449069, 0.006936192138943375, 0.0068441336272930696, 0.006781870022579607, 0.006759652373962948, 0.006805900662217524, 0.006858967416012562, 0.006945452313692871, 0.007080214091958168, 0.007254333995629717, 0.007447716611283773, 0.007702280538974797, 0.008037643751228705, 0.008361856021468017, 0.0087260716172042, 0.009189425716682903, 0.00962519994323991, 0.01005482287616661, 0.01058106484899709, 0.01114580316866466, 0.011784953090149774, 0.012421783513513203, 0.013113241156115257, 0.01382831413535117, 0.014583735623428865, 0.015400739334050362, 0.01623300814734673, 0.017120230476164764, 0.018031322083225457, 0.018982951030252094, 0.01999268887041002, 0.02102182911751918, 0.022118364720996955, 0.0232243781542976, 0.024371441421314078, 0.025566203104299207, 0.026792847455858502, 0.028023431888223996, 0.02933415325851658, 0.03068201619074514, 0.032103014704606074, 0.03352048074312136, 0.03495537320041661, 0.03645334716483338, 0.03798854585719843, 0.03958791445062236, 0.041193902972219074, 0.04284560688468595, 0.044527411231602, 0.0462475780293455, 0.04799680302201523, 0.04979397661415548, 0.05168045551066708, 0.05354497648837313, 0.05544919229399453, 0.05735831520277573, 0.05934464924898679, 0.06138528472128573, 0.06344178415963508, 0.06553533935545604, 0.06766569415230313, 0.0698326138309221, 0.07202507113499446, 0.07426585488169588, 0.07654199367396274, 0.07885700295070162, 0.0812031303307159, 0.08358094264683556, 0.08599798071722084, 0.08844986176507962, 0.0909364938973833, 0.09345778140521842, 0.09604245423522001, 0.09862910473958658, 0.1012517182527435, 0.10387751870065409, 0.10657515533886881, 0.10937625025286253, 0.11213135939088596, 0.11492355390851365, 0.11772700016067635, 0.12059478923887536, 0.1234911863435875, 0.12642743702909384, 0.12939691636144857, 0.1324192699418377, 0.13545218367128462, 0.13848650160204118, 0.14159087522660746, 0.1447266584014115, 0.14790645381305353, 0.15110341684218004, 0.15433602976275268, 0.1575964791783809, 0.16088887761335371, 0.16420764234411148, 0.1675640947092329, 0.17098050199241982, 0.17439543629987678, 0.17784286336734223, 0.18130620479839632, 0.18481960797645497, 0.1883725915854212, 0.19194583520384745, 0.19554983166435733, 0.19916633014386573, 0.20283342298981005, 0.2065349933153574, 0.21025948388455074, 0.21401321229609158, 0.21780325640313714, 0.22161415540939175, 0.22543627413720443, 0.22930772484806028, 0.2332069990019366, 0.23713764605649607, 0.24109193182741379, 0.24505060700650733, 0.24906335074792582, 0.25310232224403156, 0.25721260598596735, 0.26129842045394813, 0.2653553532688138, 0.2695056008652427, 0.2736805863689075, 0.2779452661982798, 0.2821617546330523, 0.2863869509887942, 0.2906624576717711, 0.29496432548772694, 0.2992471872303995, 0.3036065166985931, 0.30797972684462604, 0.3123860340318433, 0.31681480207025725, 0.3212804983584427, 0.3257524801554024, 0.3302063211506058, 0.3347299639712376, 0.3392741996942995, 0.34384454901809514, 0.348429575441129, 0.35306090338650536, 0.35768480751183235, 0.3623309975846117, 0.3669450605070441, 0.3716415784252078, 0.37636526854456515, 0.38109703458577876, 0.3858475333029376, 0.3905986235893657, 0.395388458793561, 0.40024058000981544, 0.40505911514486365, 0.4098972028168616, 0.4146894410157858, 0.41957323508021815, 0.4245163994445928, 0.4294231495277858, 0.4343466981484076, 0.43923612012360236, 0.4441982197128077, 0.4492016819967585, 0.45418512190322596, 0.4591824970514974, 0.4641501472540095, 0.4691795969673883, 0.4742138552195784, 0.47926430409436854, 0.4843243831508491, 0.4893795024585282, 0.49446008765502225, 0.49952359353447656, 0.5046234617444506, 0.5097944755063621, 0.5148986034297629, 0.5200123889434562, 0.5250972455318647, 0.5302328964241417, 0.5353414316023108, 0.5404913995554427, 0.5456439961156757, 0.5508098146950191, 0.5559655904543094, 0.561136392721387, 0.5662949382014565, 0.5714556476100838, 0.5765782551198981, 0.5817464150501774, 0.5869089949313061, 0.5920733136169997, 0.5972347154745273, 0.6024180161682716, 0.6075691200738009, 0.6126741194632797, 0.6178242372224955, 0.6229675934918828, 0.6280461289516163, 0.6331820022080197, 0.6383479759098442, 0.6434558537620139, 0.648554478515635, 0.6536558800119866, 0.6587326198239608, 0.6637809461187222, 0.6688383960383006, 0.6738828716264574, 0.678908311532789, 0.6839255273019709, 0.6888841749700741, 0.6938755252415697, 0.6988477288235668, 0.7037643638333707, 0.7087016125802373, 0.7136253639821558, 0.7185161948385598, 0.7233844121253588, 0.7282331272372624, 0.7330541286261407, 0.7378708996390677, 0.7426406218262137, 0.7473860265082347, 0.7520936029013533, 0.7567892662187191, 0.7614914248453165, 0.7661264660375358, 0.7707340453511606, 0.7752481786312594, 0.7798057056569347, 0.78432343939086, 0.78881234279531, 0.7932654461249191, 0.7976839766035048, 0.8020634867096044, 0.8063874361640583, 0.8106934407644522, 0.8149594668713772, 0.8191957217240382, 0.8233785747702335, 0.8275273437191125, 0.8316259126141592, 0.835682000822216, 0.8396875278984356, 0.843656944973948, 0.8475916646136797, 0.8514678811767009, 0.8552975576656678, 0.8590707727997345, 0.862805781009369, 0.8664748178749053, 0.8701115551141351, 0.8736960045822402, 0.8772058653473487, 0.8806864234961688, 0.8841384344520749, 0.8875038881483397, 0.8908141812646622, 0.8940991391790085, 0.8972928273617907, 0.9003351804278633, 0.9034282397357867, 0.9064580841363347, 0.9094713769087766, 0.9123682537476694, 0.9151948079783958, 0.9179694764173609, 0.9206808910169183, 0.9232797679067055, 0.9258689234466403, 0.9284460504916675, 0.9308921332717495, 0.9332729435795265, 0.9355660900208491, 0.9378168051719005, 0.9400132121937275, 0.9421241338491936, 0.9441660927482631, 0.9460934064273532, 0.948001245595261, 0.9498735815964063, 0.9516297366365085, 0.9533142160994437, 0.9549300577654215, 0.9564690539977185, 0.9578646710681117, 0.9592658068835443, 0.9605888543806251, 0.9618951593539705, 0.9630544877293565, 0.9641392846380356, 0.9651490230835353, 0.9660832098548875, 0.9669359791581887, 0.9677183974406847, 0.9683858368335507, 0.9690184363497195, 0.9695711511178957, 0.9700404075599259, 0.9704338852402199, 0.9707545365047118, 0.9709870641012812, 0.9711400126981665, 0.9711809084171312, 0.9711786835328399, 0.971197661882418, 0.971019690525614, 0.9707664468408326, 0.9703706431996465, 0.969973516479075, 0.9695101972612443, 0.9689502026817512, 0.9683107549438498, 0.9675504798427842, 0.9667575943767648, 0.9658958194167564, 0.9649388073631839, 0.9639019291225462, 0.9628197601978197, 0.9616198450109794, 0.9603430165846645, 0.9589893546311969, 0.9575589816130913, 0.9559817888780671, 0.9544074077907726, 0.9527818069705496, 0.9510445229007224, 0.9492304534845016, 0.9473131147293, 0.9453505269264979, 0.9433112815878678, 0.9411961566843134, 0.9390059121322641, 0.936752104878072, 0.9344124813434252, 0.931977130668109, 0.9294964998864953, 0.9269435354594086, 0.9243136775491418, 0.9216192549694393, 0.9188492960196332, 0.9160161598429901, 0.9131143109891027, 0.9101680691751984, 0.9071285132066996, 0.9039990016571557, 0.9008338699141181, 0.8976040052011006, 0.8943283709236794, 0.8909695955278338, 0.887517498037297, 0.8840418479033691, 0.8805051155214138, 0.8769084082833638, 0.8732528230745868, 0.8695394491094262, 0.8657693704786066, 0.8619436684294888, 0.8580273864054065, 0.8540982358225371, 0.8501309010544985, 0.8460922754255531, 0.8420028819923356, 0.837844089596306, 0.8336592277719411, 0.829467479132492, 0.8251820549505874, 0.8208532792932436, 0.8164875238410422, 0.8120742879192743, 0.8075633250034197, 0.8030782450970119, 0.7985518934859196, 0.7940236300516996, 0.7894144821827238, 0.7847310169391264, 0.7800586600312986, 0.7753859180630157, 0.7706414755189037, 0.7658672760434257, 0.7610806983081504, 0.7562484362786239, 0.7513422093780643, 0.7464665438641894, 0.7415650126998555, 0.7366517504430593, 0.7317014336677903, 0.7267448679081383, 0.7217527553346129, 0.7167434915570142, 0.7117165037960863, 0.7066768631087077, 0.7016272914035468, 0.696561397611492, 0.6914847209596772, 0.6863804965488536, 0.6812883006993392, 0.6761340377140347, 0.6710340704474833, 0.6659258786775974, 0.6608094850566998, 0.6556904788319615, 0.6505828407127839, 0.6454575740826425, 0.6403333279965625, 0.6351881170871568, 0.6300731597956051, 0.6249693444680772, 0.6198628890254647, 0.6147638135395527, 0.609709550828875, 0.6046248342702818, 0.59952298207249, 0.5944701464659776, 0.5894311307872955, 0.5844252349059861, 0.5794154013692879, 0.5744187678174714, 0.5694478980545642, 0.5644974667706238, 0.5595487610350511, 0.5546450254109533, 0.5497422871381795, 0.5448877614177894, 0.5400570853036583, 0.5352624211334046, 0.5304820818304982, 0.5257066840963283, 0.5209871635311715, 0.5162969161075537, 0.5116299905358439, 0.5070029183535015, 0.5024335604833652, 0.49786944772973885, 0.4933415344872485, 0.4887894330199844, 0.4843442720302129, 0.47994525534972426, 0.4755707081633248, 0.47123465061191294, 0.4669543748816819, 0.4626964161818792, 0.4585043415849137, 0.4543291277934913, 0.4501992315282486, 0.4460971739067745, 0.4420618054583594, 0.4381119889088728, 0.4341640992713321, 0.43026565654468857, 0.42636830985366236, 0.42257582386720677, 0.41879675737888156, 0.4151046333004863, 0.4114596472517279, 0.40789154293572144, 0.404339856422115, 0.40083224428016334, 0.39738450778447537, 0.3939885675222769, 0.3906503002288159, 0.3873586458155849, 0.38410057551484017, 0.3809185577183172, 0.3777894481289506, 0.3746740329227234, 0.3716569858768155, 0.3687512272067809, 0.3658309307082402, 0.36296694707474947, 0.3601106098056868, 0.35736534405052284, 0.35468259197931284, 0.3520435402322258, 0.34945912647540894, 0.3469277035794555, 0.34445321372559035, 0.3420516136366435, 0.339684632354917, 0.33737358280908125, 0.3351110807359312, 0.33291225801709456, 0.3307269374363222, 0.3286430724710468, 0.3266114587136323, 0.3246574344981385, 0.3227274060979657, 0.3208403804407758, 0.31901907450919287, 0.3172504041909246, 0.315577375196782, 0.3139077568932024, 0.3122617487427841, 0.31070379884292826, 0.3091970090175646, 0.3077301497773416, 0.30632576891395985, 0.3049363831214338, 0.3036343928809507, 0.3023788831032833, 0.30118768709989135, 0.300022241811746, 0.2989125584224986, 0.2978389750524603, 0.29681160981880095, 0.2958262212927612, 0.29488981610122583, 0.293990251052929, 0.29314218986572, 0.2923364271196494, 0.29157231958003993, 0.2908491988963566, 0.29016457136447626, 0.289521554626996, 0.2889172834109881, 0.28832579250962426, 0.2877999637164387, 0.287309187866418, 0.28685287204010707, 0.28643038174219726, 0.286032035171079, 0.28567628247316657, 0.28539317299450584, 0.28509388635975375, 0.28482669996242277, 0.2845995273969044, 0.2843921281058587, 0.28420687710808223, 0.2840579668672059, 0.28393575901263335, 0.2837905629261188, 0.28372479623705227, 0.28373395667603324, 0.2837024698285381, 0.28369358755452284, 0.2836575151615988, 0.2836965777595359, 0.2837683524198314, 0.28383765431704827, 0.28392292550938336, 0.2839926388985487, 0.28411102351901785, 0.28428418415586426, 0.2844194866573171, 0.2845673549721956, 0.2846924585406611, 0.28486651463849927, 0.28505517762460997, 0.2852423414681466, 0.2854357276390354, 0.2856975224952101, 0.285892736328611, 0.28603559235367276, 0.2862511250480545, 0.28646767232349885, 0.28668802441908836, 0.2869036959874175, 0.2870820823045864, 0.2872989498623564, 0.2875108188985878, 0.28773513447140164, 0.2879329741961707, 0.288117802002885, 0.2883041374306302, 0.28848264755405084, 0.2886417680109851, 0.2888037276277697, 0.28895497672436227, 0.2890948346389118, 0.2892226092569887, 0.289364627598099, 0.28946271045607963, 0.2895805430483465, 0.28964823012430757, 0.2897032259879664, 0.28974259567673827, 0.2897690967462606, 0.2897201188205922, 0.289721149264175, 0.28974781415655454, 0.2897001101665804, 0.28963303595684886, 0.2895169692115416, 0.28941245679910793, 0.28927567333197446, 0.28912531681249853, 0.288950275869522, 0.28878260246123455, 0.2885529443994986, 0.28828305284384276, 0.28800676488703414, 0.287704291735866, 0.28738419469659393, 0.28702688427603623, 0.2866425988837776, 0.2862308673457629, 0.28579124458635835, 0.285321509216926, 0.2848250982167369, 0.28427068119835097, 0.2837192307155639, 0.2831363441844539, 0.2825634073331588, 0.28191223132829835, 0.28121193527676247, 0.28050426171551374, 0.27976540913171455, 0.27900422249799656, 0.2782013976804378, 0.27733682852324665, 0.2764754675695195, 0.2755809353098391, 0.2746371314858296, 0.2736786510091139, 0.27274048080113206, 0.2717079140760328, 0.2706450985299952, 0.2694995589525945, 0.26838223313114057, 0.2672257896544332, 0.2660420507536633, 0.26482493817771247, 0.26355858232443125, 0.2622778006245894, 0.2609637396566838, 0.2596168460770414, 0.25823754554325457, 0.2569037261284282, 0.2554510283124796, 0.2539714616911776, 0.2524647824114889, 0.2509308198123322, 0.24933163248999055, 0.2477476427290329, 0.2461467361204046, 0.24450247001969663, 0.2428301509000021, 0.24105440377823342, 0.2393364801074505, 0.23762507759416318, 0.2358407178062819, 0.23402907708404733, 0.2322339782564269, 0.23036404009362185, 0.228406108238206, 0.22649834213944628, 0.22456430216027048, 0.2225976116440365, 0.2206144003586011, 0.21866458463421284, 0.2166263745576838, 0.21456874987099087, 0.21244337119814896, 0.2103540397127256, 0.20829406324971145, 0.20615697249267362, 0.20400322617773284, 0.20184040892388694, 0.19965361053286743, 0.19741216500471476, 0.19520079187198697, 0.19297307731242894, 0.19073524310102888, 0.18847660256194787, 0.1861809246104955, 0.18389876960581347, 0.18160318780994622, 0.17929331617679245, 0.17697390182375208, 0.17460947361233262, 0.17227372065201607, 0.16992702958760386, 0.1676444061774746, 0.16526983954996496, 0.1628340700320606, 0.16046010958384463, 0.15808021447413145, 0.15567730552372827, 0.1532906105966554, 0.1509807937118974, 0.14857644905284678, 0.1461744371177669, 0.14370297366835058, 0.14131565903967866, 0.13899972071165917, 0.13660290355708282, 0.13421140928936162, 0.13180037077104464, 0.1294238302895324, 0.12707221612120634, 0.12470405712374578, 0.12234347214830477, 0.11991710974820208, 0.1175826079648539, 0.11528199877437462, 0.11295515248078403, 0.11063727588173494, 0.10833640329127366, 0.10603801320394994, 0.10374961029233637, 0.10147573140463004, 0.09921493914599672, 0.09699675920916853, 0.09476057025224917, 0.09249789037330106, 0.09030110098648719, 0.08811950420901059, 0.08596651482691123, 0.08381608176737625, 0.08166223742353552, 0.07955156876818253, 0.07745910044978742, 0.07541441541775089, 0.07335692706716658, 0.07130879910688162, 0.0692972728590019, 0.06730785257400652, 0.0653446610038357, 0.06340053846857321, 0.06149284735993368, 0.059595210804835735, 0.05772297660295007, 0.05584403072879997, 0.0540276601781604, 0.05228628139697182, 0.05051318963107229, 0.04876858898276193, 0.04698411215714646, 0.04530547777722184, 0.04368969083761878, 0.04205698820174097, 0.040452756128139374, 0.038857455048845656, 0.037313498979791325, 0.03586977702826837, 0.03437342852850041, 0.032910051611429104, 0.03143435594372041, 0.030041927100774656, 0.028668518434413967, 0.027337346458905676, 0.026035835491350922, 0.02479489459290188, 0.02354963687184251, 0.022304073605289708, 0.02112712021169338, 0.019980375513830303, 0.01889648926441527, 0.01780667946949353, 0.016769276108216522, 0.015741999049423788, 0.014748158858033671, 0.01383972522259414, 0.012905322181630024, 0.011999291410036281, 0.01113631027194843, 0.010307271243477153, 0.00950629891174498, 0.008744460204277936, 0.008072630796827181, 0.00736788617349379, 0.006698116801109132, 0.006076996845207874, 0.005473205316249716, 0.004888767852910134, 0.004353669789584721, 0.003850260147050218, 0.003417744874346145, 0.002971428629196566, 0.0025217771275480266, 0.0021447498633299826, 0.0017971181314214335, 0.0015723049475127864, 0.0012708063746359659, 0.0009959557647255353, 0.000762068461412911, 0.0005597045960366474, 0.00040790876987023057, 0.00026382461724913566, 0.00013582392027991768, 5.379733841203937e-05, 0.0, 7.480751989976872e-05, 6.316096610600787e-05, 5.1485428100102737e-05, 0.00010749501381830888, 0.00024215443036343547, 0.00034741621092354715, 0.00048223975117822723, 0.000645571345307305, 0.0008364548995830012, 0.0011008686389826414, 0.0013383996076842938, 0.0016037215372724822, 0.0019029969824333136, 0.0022199527123009503, 0.00255504358251194, 0.002922752736904841, 0.0033137879045277313, 0.003761737703039589, 0.004193206361146542, 0.004675152350731566, 0.00514931059186809, 0.005646916370013886, 0.00620852628339413, 0.006745207472470332, 0.0072818047040047965, 0.0078671156380704, 0.008472522418132554, 0.009153236769392227, 0.009789887300668137, 0.010435365660140042, 0.0111155325209435, 0.011814601977007668, 0.012551704931905725, 0.013284063433045862, 0.014038139762386565, 0.014805576591201146, 0.01559000054236161, 0.016426837202855413, 0.017238895148720148, 0.01809349924897274, 0.018936241271928014, 0.019796255900122458, 0.020665499746543196, 0.021558544261271288, 0.022520239961914136, 0.023435082967514235, 0.02436648957713115, 0.02535320425710449, 0.02631013232817268, 0.027238388592851815, 0.028232801974152802, 0.029239251518262746, 0.030264552015355346, 0.031293026459501036, 0.032392345016351416, 0.0334357289859622, 0.03449319222074445, 0.035544166999556044, 0.03663014097366836, 0.03773610525676503, 0.038842553650314283, 0.039959835906099715, 0.04114887809787203, 0.042279117039102594, 0.04337770197907531, 0.044539713101127754, 0.04571126665754489, 0.046915619069350774, 0.04810282425200843, 0.04929867214742408, 0.05050672265400687, 0.05172461933657773, 0.05298822949674883, 0.05422078908926511, 0.05547742547054742, 0.056730956533798824, 0.057995998988941644, 0.059317255691467646, 0.06059865978666213, 0.0619112786854451, 0.06321626731857002, 0.06453449649966951, 0.06581862026254222, 0.06716785362595014, 0.06851206144986252, 0.06988202851171457, 0.07126086281489923, 0.07266326856741202, 0.07405888593420135, 0.07547947067411273, 0.07689455164824123, 0.07832137243150829, 0.07981048099622871, 0.081254719338816, 0.08271930498998352, 0.08419251114241008, 0.08568056949337549, 0.08717613338597222, 0.0886944536392444, 0.09023599898458329, 0.09178170472249018, 0.09334235762250605, 0.09490363929463884, 0.0964963395067015, 0.09809998302708119, 0.09972255679438216, 0.10136013859506177, 0.10299689382210274, 0.10466769656954086, 0.10638980461714836, 0.10808712265474155, 0.10980279108722209, 0.11157667617911038, 0.11332473787840255, 0.1150797168797383, 0.11687224720250526, 0.11868532415171713, 0.12050474417313711, 0.12236140446193537, 0.12421691187737019, 0.12611766259434318, 0.12803851458254406, 0.130019717765561, 0.13197757357122727, 0.13399737931055475, 0.13599892337506606, 0.138027230521938, 0.14005527212294788, 0.14214057980299266, 0.14425130426657096, 0.1463878230983199, 0.14855052943510225, 0.15075424451448302, 0.15296873402459016, 0.15515020862865064, 0.15742925843511443, 0.15973377543903394, 0.1621150598247094, 0.1644666314143349, 0.1668399024806374, 0.16925434503462602, 0.17169963344700445, 0.174170774619502, 0.17667967626349745, 0.17921134970993274, 0.18178540772264298, 0.1843916441472682, 0.18705219370119894, 0.1897215739959678, 0.19238619342755728, 0.1951306352824282, 0.1979083185024727, 0.20074328661845744, 0.20358631310402936, 0.20646024183933992, 0.20937689649652924, 0.2123302074558236, 0.21533675071645156, 0.21836238946402162, 0.2214410499266324, 0.2245422717232288, 0.22768329682428992, 0.23085339633786248, 0.23407565679594428, 0.23733379971568982, 0.24063569484420325, 0.24397728402801983, 0.24734618223063062, 0.25076942868668056, 0.2542377221343331, 0.2577398675658227, 0.26128253312488275, 0.26484250400203496, 0.26846978181175113, 0.27213323728224265, 0.27584087904340865, 0.27958875037017134, 0.28335011879944894, 0.28718271200462697, 0.2910908220539214, 0.294998216990396, 0.29894784987435136, 0.3029144857795802, 0.3069517398903112, 0.3110045124382055, 0.31512658752807604, 0.3192882349246653, 0.3234969258677019, 0.3277375355285295, 0.3320367486180461, 0.33635628120531286, 0.3407174293554358, 0.3450983739518708, 0.3495448762436261, 0.3540059044971188, 0.35853501803557875, 0.36310226348406877, 0.36769507017874753, 0.3723402397492994, 0.3770065642347013, 0.38172849988122903, 0.38648678036527695, 0.39133364312665386, 0.3961578891535075, 0.40097251263311323, 0.4058803367195717, 0.4108232001531881, 0.41580086068467953, 0.42081302327604275, 0.4258575420635702, 0.43093785903487025, 0.4360460059870627, 0.4411930205777416, 0.4463720148911703, 0.4515500674096097, 0.45679561770296134, 0.46206614343035274, 0.4673689693759612, 0.47269943103914086, 0.4780534911736346, 0.4834383207151483, 0.488831093579153, 0.49426955801146, 0.4997317896826746, 0.5052497045478798, 0.5107537581082888, 0.516242031610755, 0.5217978747129539, 0.5273734523135221, 0.5329807246896592, 0.5385921661515853, 0.5441949112667569, 0.5498455338188839, 0.5555111449827839, 0.5611783960152189, 0.5668733205071418, 0.5725225098978279, 0.578247796796368, 0.5839801679305524, 0.5897678608566955, 0.5955069115320125, 0.6012560484380208, 0.6070103616304977, 0.6127708772012909, 0.6184896041854576, 0.6242649991289638, 0.6300422826523501, 0.6358168028157356, 0.6415898085626126, 0.6473549425666838, 0.6531226993712731, 0.658813569259982, 0.664579773350893, 0.6703349999445429, 0.6761273614780929, 0.6818527652504339, 0.6875680068178116, 0.6932718752739923, 0.6989631329969199, 0.7045990765436527, 0.7102665493492593, 0.7158882165874052, 0.7215205698335649, 0.7271306118719094, 0.7327697300099196, 0.738325874892976, 0.7438093906894855, 0.7493260882606178, 0.7548148381534546, 0.7603142241695615, 0.7657388518655358, 0.7711272513292315, 0.7764932565770116, 0.7818268631342306, 0.7870708014464198, 0.7923424401672408, 0.7975779253619105, 0.8027686457027281, 0.8079178654825538, 0.8130155063860569, 0.818079623283728, 0.8231092418698268, 0.8280802897722871, 0.8330044392677881, 0.8378732590854855, 0.842700841858244, 0.8474503965705726, 0.8521782094179735, 0.8568511229677532, 0.8614627470218927, 0.8660235607971789, 0.8705423476011139, 0.8749836053602225, 0.8793654706054947, 0.8837191880459421, 0.8879746046612748, 0.8921256493795393, 0.8962628435534443, 0.9003336540986487, 0.9043136496140725, 0.9082516268965434, 0.9121260776037903, 0.9159208485076717, 0.9196436146699153, 0.9232772370122234, 0.9268552715178032, 0.9303810354182703, 0.9338039205859321, 0.9371508161369057, 0.9403990917982675, 0.9435937358408889, 0.9467208211577213, 0.9497527506890072, 0.9527036631177797, 0.9555636735348498, 0.9583510815809293, 0.9610561962058956, 0.963674439431786, 0.9662072076827434, 0.9686501623112828, 0.9710102487092005, 0.9732572804173282, 0.9754442482610212, 0.9775406880424554, 0.9795660082167651, 0.9814776449714826, 0.9833184384296293, 0.9850456654777483, 0.9866822128286342, 0.9881985650066456, 0.9896553860545049, 0.9909837525593798, 0.9922561423903495, 0.9934317629205351, 0.9945178040253304, 0.9954989045922159, 0.9963997566104579, 0.9971857625063351, 0.9978759884224565, 0.9984269547032245, 0.9989304070313884, 0.9993584455023998, 0.9996614495357026, 0.9998672925499735, 0.9999903631789974, 1.0, 0.9998880327095436, 0.9997080159439334, 0.9994300679902621, 0.9990651877431359, 0.9985905843931467, 0.9979994333202549, 0.9973340199105509, 0.9965710715318552, 0.9957433747070353, 0.9947823242960548, 0.9936996200334562, 0.9925528603873672, 0.9913102567909415, 0.9899271995306285, 0.9884999303202832, 0.98703150939595, 0.9854040147638208, 0.9836843320347687, 0.9818584102327401, 0.9799573073423471, 0.977917575893747, 0.9758394376860047, 0.97366811902711, 0.9713902331812341, 0.9690374384988053, 0.9666134982556206, 0.9640773583856581, 0.961453527174918, 0.9587843395216267, 0.9559825696587595, 0.9530512854925312, 0.9500906916185268, 0.947046026417057, 0.9439111489700021, 0.9407024536759018, 0.9374449231630373, 0.9340707270135393, 0.9306193572066729, 0.9270358368091829, 0.9234398604174764, 0.9197933550252769, 0.916040285389079, 0.9122140285317407, 0.9082599070083641, 0.9042978898620898, 0.9003243907447657, 0.8962108064497639, 0.8920312107928006, 0.8877434586497325, 0.8834406363542268, 0.879051142450909, 0.8746224906037097, 0.8701306308375958, 0.8656150822636252, 0.860997031801474, 0.8562994235732564, 0.8515733616164399, 0.8467924584146185, 0.8419798551477466, 0.8370910869923773, 0.8321568365697215, 0.8271707742864811, 0.8221421195582457, 0.8170645543564842, 0.8119437077438967, 0.8067611191029364, 0.8015603181953798, 0.7962940453862206, 0.7910175261459157, 0.7857025125114614, 0.7803129506785533, 0.774931061555288, 0.7695642863312794, 0.7641073622839641, 0.7586219150206238, 0.7531346779944811, 0.7475935227287478, 0.7419937608109037, 0.7364133415492886, 0.7308109972998954, 0.7251955993763837, 0.7195534731365207, 0.7138695556350106, 0.7081990588874807, 0.7025137195053571, 0.6968279174355106, 0.6911165703618509, 0.6853638722062411, 0.6796403756419662, 0.6739093013604129, 0.6681742764579951, 0.6624332521816305, 0.6566702824931012, 0.6509292066127295, 0.6451882464301829, 0.6394491919483886, 0.6337137854561473, 0.627962102961827, 0.6222417798509862, 0.6165288658777868, 0.6108557500793342, 0.605158999916604, 0.5994602750743024, 0.5937954193475415, 0.5881466032671976, 0.5825134904762246, 0.5769013493156293, 0.5713094586641427, 0.5657392168176437, 0.5601919955533851, 0.5547051782702682, 0.549203457001935, 0.5436766910206895, 0.5382408121186631, 0.5328328967098173, 0.5274255603150354, 0.5220815058214462, 0.5168310601724247, 0.5115416658240346, 0.5062893778892668, 0.5010678964466672, 0.49589345899498405, 0.4907350315047881, 0.4856433941493851, 0.480591807399418, 0.47555257962588005, 0.47058811722101046, 0.46565818775768414, 0.46077938292668064, 0.4559443836859737, 0.4511399793318301, 0.44639796408373517, 0.44176003464944963, 0.4371047277737234, 0.4325013079366093, 0.4279287071032535, 0.4234334571401205, 0.4189508990687177, 0.41456604629268906, 0.4102327133260689, 0.4059626937617627, 0.40173391383482204, 0.39759784930804176, 0.39347474460671394, 0.3894100075586117, 0.3853625099643149, 0.3814206875118744, 0.3775322338916211, 0.37370544347199336, 0.3699366356754046, 0.3662281743876539, 0.3625767408370885, 0.3589777242359719, 0.35544685718306, 0.3519759820755234, 0.34857088858466523, 0.34522042128809793, 0.3419312687304131, 0.33870364261429403, 0.33553772074957955, 0.3324462610730009, 0.32940255623685816, 0.3263639449538366, 0.3234529861887643, 0.3206014281921925, 0.3178673093799641, 0.31512832525442236, 0.3124168577311179, 0.3098092416096843, 0.30726256189955975, 0.3047930202941574, 0.30236607554839573, 0.2999449492560286, 0.29764815087309915, 0.2954093376399733, 0.29326829005592014, 0.29114077847265435, 0.28903763619382156, 0.2870351020124868, 0.28509014718770276, 0.28324046617860343, 0.28140539654323243, 0.27959159292225244, 0.2778789108637465, 0.2762219897014622, 0.27466015162321256, 0.27310873830315524, 0.2715853890531397, 0.2701506404032609, 0.2687696337394208, 0.267409401794406, 0.26613834789544577, 0.2649499590060407, 0.26377490995602976, 0.26265113956412306, 0.2616013429167303, 0.26057496518614076, 0.25957011635482585, 0.25864713665503797, 0.257770978497991, 0.2569247092680626, 0.2561420734752425, 0.25544097203701527, 0.2547402925468442, 0.2540840958001231, 0.2534515392223558, 0.2528837550615688, 0.252336476468618, 0.25185100678680583, 0.2514030484546643, 0.2510333297942858, 0.25065297861191427, 0.25028139565315893, 0.2499787463072753, 0.24970981505455306, 0.24946291376208943, 0.249260138207968, 0.2490427492473482, 0.2489056995038859, 0.24879486062269793, 0.24877458130796373, 0.2487063454999404, 0.2486355910744147, 0.2486262415469721, 0.24864087970928325, 0.24864794359143502, 0.2487116234985153, 0.24883618019851161, 0.24893276581343904, 0.24904962553720872, 0.24918923174796637, 0.24934280038865064, 0.24949726550873974, 0.2496859808025978, 0.24988865269872718, 0.2501079117731781, 0.25033511836488953, 0.25054472555954493, 0.2507970284049024, 0.2510569285503624, 0.25133086344275896, 0.25160271306799076, 0.2519072137487529, 0.25218600304054273, 0.25247014587301925, 0.252718882328989, 0.2530154099281542, 0.25335322071408345, 0.2536434574132123, 0.25393437741962027, 0.2542050615278943, 0.25449658666271213, 0.25475924641638054, 0.25504582592632186, 0.2553256437672928, 0.25556742742394517, 0.25583565357719523, 0.25612585839570645, 0.25636863565655876, 0.25660186127700374, 0.256857195893002, 0.25706490364085655, 0.25719410536921183, 0.2573893813844587, 0.25756878485028156, 0.2577553515534504, 0.2578988518988189, 0.2580301431935457, 0.25814090542465223, 0.2582221357529634, 0.2582999813724737, 0.2583588654781514, 0.25842887268474163, 0.2584443220568746, 0.2584084621075367, 0.25838947754759783, 0.2583482692333987, 0.25826637050117984, 0.25818165057344306, 0.2580795672226008, 0.25794450339649894, 0.2577846807449954, 0.25767000464953366, 0.25745068265520565, 0.2571734202781268, 0.25691393155480846, 0.25662876312608823, 0.2562904125629823, 0.2559559100284095, 0.25558387301002117, 0.2551932948439162, 0.2547733594095201, 0.25434560289508656, 0.2538639576385131, 0.25337912827891984, 0.2528372102497344, 0.25226779581600955, 0.2516398363247181, 0.25101809922934537, 0.250357029817357, 0.2496757533196559, 0.24896359403147, 0.24820800095775652, 0.24743585952759461, 0.24668637891806575, 0.24584479041875926, 0.24497518903884344, 0.24404847914911393, 0.24312575186725421, 0.24214932711722165, 0.2411691292624068, 0.2401575875329457, 0.23913485491591285, 0.23805910917492298, 0.23692167418887608, 0.2357916724036214, 0.2346309226176209, 0.23345789458101812, 0.2322347095901952, 0.23099571301267963, 0.22971435489238223, 0.22840583273179266, 0.22708295193466535, 0.22571910930968206, 0.22430783963327453, 0.22289528420050578, 0.22145607154373062, 0.2199870025590223, 0.21849615418249393, 0.2169923013295654, 0.21544908590256504, 0.21388189249626846, 0.2122460496753728, 0.2106377398606337, 0.20902212540378573, 0.20736168501063035, 0.20567849282928186, 0.20396774078746946, 0.20224151814954958, 0.20051024240520468, 0.19874006628103974, 0.19695079845876415, 0.19516095531396047, 0.1933327337722091, 0.191433911955785, 0.1895798289535964, 0.18770698513579656, 0.18584149288250906, 0.18393056959514503, 0.1819904654023605, 0.1800524417107796, 0.17810006753881194, 0.17618092813259362, 0.17419613316735338, 0.17215675901053626, 0.1701589330151849, 0.16814976676105153, 0.16614806013289826, 0.16411626917757274, 0.16206204909274147, 0.16001666115096574, 0.15796367900235458, 0.15587321683987204, 0.15381115030594752, 0.15176901848107768, 0.14969032501144264, 0.14760797321818164, 0.1455118447023942, 0.14342561953185984, 0.14136062637682392, 0.13926783036007173, 0.13717569422527162, 0.1350829790611561, 0.132994092264257, 0.1309219051616521, 0.12883637755677516, 0.1267551746009631, 0.12466799402508115, 0.12259835282741494, 0.12053220904571438, 0.1184740401276011, 0.11642236275331917, 0.11433639694902796, 0.11230492772108798, 0.11028861341664456, 0.10826928320748247, 0.10625853220839845, 0.10426980001243864, 0.1022770627931265, 0.10027978830085772, 0.09831310148745007, 0.09635845468247368, 0.09440578489661007, 0.09247880161270917, 0.09058703675136212, 0.08868526928335188, 0.08679979219084852, 0.0849058980696997, 0.08305773886518572, 0.08123139197729486, 0.07941606045065736, 0.07761880078525855, 0.07581137285387302, 0.07405564630755558, 0.07236672122187872, 0.07064190001732075, 0.06893941828830276, 0.06725594045486338, 0.06559940444551585, 0.06396222508226904, 0.06235237811986857, 0.06076591337338814, 0.05920136703257066, 0.05766290180014783, 0.056121682962909626, 0.05463551344238054, 0.053172751308432645, 0.05176095078362865, 0.05034312794399668, 0.04898052759817135, 0.047612048717798484, 0.04627198305568923, 0.04496569877996226, 0.04368168724053299, 0.04236868728209828, 0.041149285674809966, 0.039955294148994014, 0.03885025309539623, 0.037700490382120366, 0.036537727966281616, 0.03545376433578778, 0.03439732845219931, 0.03338307235039129, 0.032380556322852465, 0.03140521328192873, 0.030460924256853636, 0.029545600089027093, 0.028671901308700082, 0.02781304409813259, 0.027023610280759093, 0.026219219665999605, 0.025446663859993994, 0.024725358658767363, 0.024012791102659307, 0.02333206677003496, 0.02268272193680132, 0.02206433715603146, 0.021462116724116298, 0.020906365023177668, 0.020386923827551626, 0.019888287697284464, 0.019418806098960597, 0.01898185461396204, 0.018569550837876904, 0.01822017838602071, 0.017860700769528833, 0.017531371149426763, 0.017282138203679333, 0.017005253012239888, 0.0167022834527335, 0.016495024103172887, 0.016314548900012212, 0.01622370952863587, 0.016088189416953235, 0.01602919845704229, 0.01594639155776119, 0.015894502151604994, 0.01582569022720419, 0.015838674875235097, 0.0159240847904689, 0.01598193045463369, 0.01604924044208186, 0.016163613292783, 0.016303081757424825, 0.016499614661321594, 0.016683806174661222, 0.016956658379552167, 0.01718340940479541, 0.017438025612840736, 0.017696006606535197, 0.018006184819902436, 0.018370602371506808, 0.018723501091527296, 0.019100527791671443, 0.01950270145012527, 0.019925472814536972, 0.020404547423325592, 0.020866502220540758, 0.021351243862868304, 0.021875977507139842, 0.022401643857065723, 0.02299751768814084, 0.02355937451650836, 0.02414403762564034, 0.02479551229134895, 0.0254170697966352, 0.026017883695619207, 0.02668877544003553, 0.02737758623856173, 0.0281035665962677, 0.02882404811888606, 0.02963406367937486