0.027028951453402575, 0.026889491151074054, 0.026773166028273416, 0.02665326098270014, 0.026576673568844904, 0.026553005789295373, 0.02649563684923544, 0.026449930100301448, 0.026364948295212597, 0.026343736031480824, 0.026354980169800417, 0.026338280324481364, 0.026361461943258536, 0.02634922802618444, 0.026342626837994973, 0.026310578887064517, 0.026317302881683255, 0.026288967875969568, 0.02630520542653159, 0.02632175618021842, 0.026362427882640767, 0.026377839280639078, 0.02637969717624671, 0.026403073308846434, 0.026428830709069213, 0.026450337951178737, 0.026482919284639483, 0.026560794264396607, 0.02659478153747523, 0.026635133818464427, 0.02663977047071028, 0.026698392751184147, 0.02676595642648441, 0.026832970462816047, 0.026905410976986854, 0.02698365316029681, 0.027068052264055974, 0.027177674579442423, 0.027273010138150637, 0.027376509625991093, 0.027497672945679553, 0.027616724727445193, 0.027747222779220704, 0.02788425767993512, 0.02803067856703952, 0.02816782707574362, 0.02833561428388464, 0.028514324835453575, 0.02869923233516817, 0.028893346801968145, 0.02905707957322104, 0.029275271630971506, 0.029538515607506668, 0.02976766961216821, 0.03000750267887862, 0.030262826757637737, 0.03052381598456153, 0.03079614085398079, 0.03107989902576942, 0.031375195143371774, 0.03164702164588957, 0.03197017396403366, 0.03229388036337049, 0.03263846611184859, 0.03299323788656648, 0.03333521307805321, 0.03371457369384176, 0.03416019022174875, 0.03455310697332, 0.034960254554791084, 0.035348844727173125, 0.03578858520761606, 0.03622669296990688, 0.03669334482127478, 0.03717221673233526, 0.03768944785355978, 0.03819063205869337, 0.038673780228224826, 0.03920869588605204, 0.039756727900971824, 0.04032293836845325, 0.04089772271341783, 0.04147524024162799, 0.04208065252289028, 0.04270037043754746, 0.04333941178853671, 0.04398813159186171, 0.04468513613313707, 0.04536096135658951, 0.046054592365603136, 0.04672851899689967, 0.04746237106694096, 0.04816736047564257, 0.04893839378312545, 0.049723160286125355, 0.05057145932641139, 0.05137931357610862, 0.05216089767818214, 0.053010874715606844, 0.05387671455726515, 0.0547775826199963, 0.05567404455202654, 0.05658626480045521, 0.05751939370653075, 0.058470822350923775, 0.0594266708062637, 0.060416965488094346, 0.061427579560444395, 0.06245378097912244, 0.0634985613652586, 0.06454805584917979, 0.06563230096679211, 0.06678868314304653, 0.06790294438601878, 0.06903898527409769, 0.07015910941650629, 0.07134276812280196, 0.07256655665342135, 0.07378581689375871, 0.07502560023902761, 0.0762718088573095, 0.07755427120622257, 0.0788071724162329, 0.08013514291889076, 0.08148011160945125, 0.08284253459487323, 0.08422280914485113, 0.08561191365402933, 0.0870300563596412, 0.08846641159068216, 0.08994935747988553, 0.09141938780744593, 0.09287948364368781, 0.09439429430295286, 0.09592774782793158, 0.09750107367693182, 0.09906958606703789, 0.10069106775611632, 0.10229570637661174, 0.10392214342394315, 0.10553487017667343, 0.10720820108620624, 0.1088674884240844, 0.11058239434770495, 0.11231410315993678, 0.11402534784396447, 0.11579592998118057, 0.11761208831367831, 0.11940946401207302, 0.1212243377242927, 0.12306370914465756, 0.12491258781423889, 0.12678387931909108, 0.128667461630632, 0.1305686907992385, 0.13251776929902254, 0.1344497334745062, 0.13632540475055657, 0.13830359227771527, 0.14029521745407642, 0.1423378815036813, 0.1443520121825116, 0.14638896443295032, 0.14843348692456879, 0.15049356446897852, 0.1525641317009789, 0.15465476483089913, 0.1566986744176676, 0.15882496107689204, 0.160961293606881, 0.1631499534903601, 0.16530140082577707, 0.16743036709953643, 0.1696111516708335, 0.1718018387019807, 0.17402573048751466, 0.17623289013175839, 0.17847422776141486, 0.18069954674849606, 0.18293611498457713, 0.18518331860347856, 0.18744056075475463, 0.18967682342765205, 0.19195625917915615, 0.1942423186899436, 0.19651831141065684, 0.19881876369132992, 0.201142681600276, 0.20345000701292823, 0.20576262616551905, 0.2080566824498755, 0.21038150798265867, 0.21272300187929274, 0.21505101149028927, 0.21738183659737845, 0.21965883380127632, 0.2220010227456474, 0.22440703455242592, 0.22673743626424347, 0.22906965154000236, 0.23133275780602439, 0.2336754379869318, 0.23603035848393486, 0.2383625814874168, 0.24069133815240026, 0.2430490692870277, 0.24536570508414923, 0.24766790006972816, 0.24997985575558632, 0.2522870460930424, 0.25461230293782344, 0.2569052560731615, 0.2591578848542516, 0.26144408739231995, 0.26372157447440575, 0.26597818176957305, 0.26823832594255725, 0.27049469533721965, 0.2727319420227326, 0.2749368638772944, 0.2771537523944304, 0.27935716162213764, 0.28158652325189026, 0.28375680203003345, 0.2859146378986718, 0.288059259372721, 0.29018991337967975, 0.29224499125657166, 0.29435321440626205, 0.2965168117610458, 0.29857626760922845, 0.30061992889450506, 0.3026141226596607, 0.30462768956221464, 0.30661401928530563, 0.30858751652543254, 0.3105393399622132, 0.3124807134822064, 0.31438625235400874, 0.3162201331738875, 0.318086303437262, 0.319926025111675, 0.3217906107717968, 0.3235702945857366, 0.32527888569862756, 0.3270152301863566, 0.3287232514931085, 0.3303862541301673, 0.3320387532652651, 0.33368208061460375, 0.3352711811810137, 0.3368306903544159, 0.33832968968247557, 0.33983241269113246, 0.3413047168931643, 0.34274137516504255, 0.34414487636287894, 0.345519577336808, 0.34685517453741166, 0.3481545000413402, 0.349422116241014, 0.35065483128253344, 0.3519107673204396, 0.35306504680390827, 0.35418412794070414, 0.3552721003669004, 0.35632536543937, 0.3572869765462228, 0.35827571019948284, 0.3592595738277388, 0.36016371969628896, 0.36102949110741606, 0.36182830980858366, 0.3626194583571985, 0.3633552276871166, 0.36406529861822945, 0.36473286116181, 0.36536484835251726, 0.3659462159860605, 0.36647109904016134, 0.36696917657615125, 0.36742364182471743, 0.3678554833036451, 0.36821979810717653, 0.3685531038735845, 0.3688302239846515, 0.3690647332763289, 0.36929842737252, 0.3694413733225495, 0.36950799547381963, 0.3695723656059937, 0.36959241402200016, 0.36951877847969594, 0.36945583393454523, 0.36936401502383676, 0.36920375549584683, 0.3689974371221762, 0.3687193624898109, 0.36842434876950936, 0.3681147701550149, 0.3677211865322768, 0.3672825946960137, 0.36677553395214185, 0.36624975749205674, 0.3656962926079375, 0.36507549932716915, 0.364409708085682, 0.3637527934518441, 0.3629902910633374, 0.3621344307793436, 0.3612943816511005, 0.36040894416393365, 0.3594806494132138, 0.35850471711423243, 0.3574630518053055, 0.3564006579426254, 0.35529282726074685, 0.3541774112720673, 0.35297513647749273, 0.35171194830069796, 0.35042774634458207, 0.34910048749573147, 0.3477679216022723, 0.3463506945366869, 0.3447950872701042, 0.3433102243206891, 0.34177989744572185, 0.34025886786018583, 0.3386334865183604, 0.33696355880493717, 0.33525937473042117, 0.33351574637810816, 0.3317541483961455, 0.3299301888355958, 0.3280809185770754, 0.326181714169645, 0.32424672134882054, 0.3223019335198718, 0.32029286772693966, 0.3181847434683493, 0.3161171074169066, 0.31401264334036144, 0.31192598752957834, 0.3097434055517039, 0.3075340178114851, 0.3052881817824974, 0.3030117938857931, 0.30069585162494367, 0.29836067416507306, 0.2959675358484002, 0.29357673416499264, 0.29115562364891373, 0.2886699114343917, 0.2861950931660099, 0.2837747346521372, 0.2812306960924651, 0.2786636973268843, 0.27603895453053084, 0.2734315333610731, 0.2708143871408675, 0.2681584067768816, 0.2654809714441672, 0.262764010203963, 0.26004802902634644, 0.25728816073675836, 0.2545350513928414, 0.251761870443074, 0.2489602931199632, 0.2461512468183011, 0.2433691297714554, 0.2405203926752219, 0.23765865446820125, 0.23482200641058548, 0.2319314449789419, 0.22897809293010177, 0.22607684634633524, 0.22316446947165014, 0.2202442286383203, 0.21731206049997995, 0.21434120345838084, 0.21139725711395563, 0.20844510186348797, 0.20556311172030517, 0.20258807282403682, 0.1995725958997785, 0.19660171206334784, 0.19362880089423906, 0.19060082610271015, 0.18763310754735735, 0.18472131144211373, 0.18174222186323613, 0.17876624904354826, 0.17577065436410694, 0.1728059106613544, 0.16984971316761152, 0.16689300273423396, 0.16394220007083843, 0.16097238338521808, 0.15803914015201617, 0.15513858429588354, 0.1522169665680403, 0.14930572348872187, 0.14641262215383224, 0.14352346756923345, 0.14063559697011055, 0.13777458056024605, 0.1349272556729251, 0.13216463693109784, 0.12933813516918316, 0.1265034722164085, 0.12372057283439315, 0.12095645571541203, 0.11822569056797654, 0.1154989478139301, 0.11273018351163695, 0.110054276301781, 0.10739695503904714, 0.10476859661218572, 0.10215025306184548, 0.09958201756272449, 0.09700495597832201, 0.09444136621933565, 0.09191666853156451, 0.0894175497032392, 0.08696102374074703, 0.08451285406019696, 0.08207897464347233, 0.079689713214632, 0.07732891787817384, 0.07495267953945728, 0.07265615091400483, 0.07038727355094995, 0.06814693671912543, 0.06593597057048689, 0.06378090414412395, 0.06162769783792912, 0.05947002366775151, 0.05738796345223572, 0.05533762800879916, 0.05338292635254529, 0.051390080808262475, 0.049382931812754605, 0.04747104753827898, 0.04559357856492147, 0.04374633525043717, 0.0419397306439146, 0.0401803550036001, 0.0384437420228372, 0.03674412596622378, 0.035102841696077636, 0.03347532645461531, 0.03188204089620178, 0.03033297954301971, 0.0288226457422855, 0.02734877819442168, 0.025916430856222927, 0.024501833695523428, 0.023149875802764223, 0.021835711850113546, 0.020587668856949584, 0.01934620489007426, 0.018163444602600706, 0.01699947620275755, 0.01587636663732692, 0.014707256045427185, 0.013676133189375664, 0.012750591536242967, 0.011781778883629844, 0.010853180927096057, 0.009955221622953354, 0.009107607620006085, 0.00828501106888443, 0.007517173019287236, 0.006787340763970246, 0.006146983270201793, 0.005486509178578992, 0.004838646528044991, 0.004262613020813777, 0.003724689225552416, 0.003212924406316212, 0.0027519599983878086, 0.002341741464741166, 0.0019522248701930322, 0.001599829103309446, 0.0012561332589376892, 0.0009805485624921238, 0.0007629262891276975, 0.0005533629780546634, 0.0003793918033645226, 0.00021722528464668942, 0.00011626588567209438, 3.4388186399412246e-05, 1.2516190738711616e-06, 0.0, 5.388427518789109e-05, 0.0001129151483274054, 0.00022326618727206582, 0.00034464161353996294, 0.0004987131810751461, 0.0006567478215730436, 0.0008778588757964184, 0.0011164943480583653, 0.0013971568743223074, 0.001705589565846763, 0.002069546088842475, 0.0024289105930361717, 0.00285864673703345, 0.0032684851839336654, 0.0037076094783603424, 0.004163324679866726, 0.004659578743838488, 0.005130115229389554, 0.005683685177354014, 0.0062586203019030255, 0.006906101361256046, 0.007516237084214372, 0.008083985672967045, 0.008747903373057156, 0.009429647506879302, 0.010182794098950912, 0.010892516698794803, 0.011647885225061543, 0.012393300750670822, 0.013158402031159823, 0.013902380736176298, 0.014708905427879004, 0.01552061371382366, 0.0163568424049913, 0.01720592919670871, 0.01808842356284867, 0.018958978955159515, 0.01979513219862827, 0.02069571352118534, 0.02160461666129159, 0.022537880775409552, 0.023460266145349018, 0.024350925742424798, 0.025293903714179194, 0.02624152881017829, 0.027212235767515438, 0.028165851550874536, 0.02922012817026008, 0.030170367756927614, 0.031129492271005522, 0.03209144119329139, 0.03306487861688522, 0.034017298156934314, 0.035002356989806915, 0.03598855316253452, 0.03695637187624617, 0.037944880896668594, 0.038956946610610256, 0.039937238473595274, 0.04091564577057631, 0.041896079021765856, 0.04286783644105342, 0.043842759647254495, 0.0448051793442542, 0.04576269427258334, 0.0467450015646894, 0.047686671044776655, 0.048700275390313054, 0.04962062311406755, 0.0505382351358803, 0.05141423539790995, 0.052326987441251825, 0.05323803507612888, 0.054131663940596216, 0.05501545580354486, 0.055972964806402875, 0.056824285234969074, 0.05768016466259661, 0.05851444573935462, 0.05933983095049511, 0.06021138774049799, 0.061008622215723875, 0.0617853697540306, 0.06256525778569537, 0.06333331763932627, 0.06406757301655296, 0.06481202771126149, 0.06561363152304699, 0.06631759117041745, 0.06700933014252207, 0.06772302672881574, 0.06838317813660214, 0.06904230016327799, 0.06967459130513479, 0.07029310562074939, 0.0709579400637079, 0.07153898589938394, 0.07218023847967528, 0.07272639342843584, 0.07326244977164043, 0.07369815277406652, 0.07422158497581928, 0.07479215721334659, 0.07527040083561823, 0.07573381459287536, 0.07622168935545927, 0.07664898084552933, 0.07708819171401687, 0.07748400093152633, 0.07786641906486427, 0.07823021257599735, 0.07858490343126705, 0.07896676577190158, 0.07928598582566075, 0.07959227823045328, 0.07988525324029273, 0.0801646259939151, 0.08043488814601985, 0.08068597594781309, 0.08092339532143722, 0.08120801719299277, 0.0814104630869024, 0.08164030007491213, 0.08181755619053323, 0.08198632216403033, 0.08220003454490904, 0.08234389933334738, 0.08240649992806524, 0.08254664096477976, 0.08267536027698665, 0.08283750820832468, 0.08293890030868328, 0.08302790278833683, 0.08311459123864263, 0.08321937337985676, 0.08328777942367693, 0.08335061239648194, 0.0833916719904939, 0.08344606467287388, 0.08351111642201921, 0.08355248184807891, 0.08359007851177028, 0.08368287192402292, 0.08370687525784598, 0.08371308954241663, 0.08374142072679744, 0.08376988578475875, 0.08380122257536306, 0.08383090210330538, 0.08387155497756799, 0.08390378755523076, 0.08393923516718622, 0.08394564139792658, 0.08399326790716417, 0.08407672974598232, 0.08412722249051763, 0.08418439889899103, 0.0842746370222116, 0.08434382635288276, 0.08436222881367587, 0.08445978116496818, 0.08456503874024436, 0.08479379414552649, 0.08490314680309888, 0.08503212856673935, 0.08517584478625993, 0.08533724438083826, 0.08549316300453942, 0.08569371440303292, 0.08588585835979795, 0.08612501128659249, 0.08638140407703594, 0.08665127698125, 0.08694550978721333, 0.08730865329812945, 0.08763711615840744, 0.08798999121410009, 0.08836314433500897, 0.08876712261169246, 0.08915253152966704, 0.08961465942458315, 0.09010162086157443, 0.09071050393761095, 0.09123825820124576, 0.09174793501629845, 0.09234930948696422, 0.09298179079486163, 0.09365320098125403, 0.09434940822749671, 0.09506313711810645, 0.09582999006940288, 0.09663134628440456, 0.0974470310878185, 0.09832273446859403, 0.09926718557295339, 0.10021171023376252, 0.1011960602177964, 0.10221858822206993, 0.10328496818191438, 0.10439546795109125, 0.10554582148357208, 0.10673950463219574, 0.1079631518659074, 0.10924731131760781, 0.11060413682396605, 0.11197466261129335, 0.11339286724639767, 0.1148100914037005, 0.11633139784284201, 0.11791320981258784, 0.11952657108790658, 0.1211889595446517, 0.12289405813193847, 0.12465747955395307, 0.12651370901890016, 0.12837381068016634, 0.1302882648461182, 0.13221286115691752, 0.13424247637422296, 0.13637630639636902, 0.1385054799302624, 0.14069152311044206, 0.14292055084116267, 0.1452226109803505, 0.1475602077615363, 0.14997845613739405, 0.15245273707915857, 0.15497648471029998, 0.15756505979571908, 0.16019650216079853, 0.16290110180565842, 0.1656626282754906, 0.16846515136136775, 0.17134393064682388, 0.17432677428306154, 0.17731456347124017, 0.18036306560789062, 0.1834699028224389, 0.1866400127566586, 0.18982843735178262, 0.19312475465420814, 0.19647908180961682, 0.19990340467513973, 0.20337305482832413, 0.20690673020236705, 0.21049450249936832, 0.21414190296944877, 0.21790738583554808, 0.22166638335182126, 0.225436473503352, 0.22932655613219258, 0.23327512532390737, 0.23728670985207956, 0.24135117017303082, 0.24545978542141686, 0.24964215075691745, 0.25388135556456887, 0.2581350489114978, 0.26249259917281925, 0.26697178609029026, 0.27142825646872293, 0.27594225120199495, 0.2804498905276077, 0.2850849315901123, 0.28979302886847447, 0.2945292194216672, 0.2993181986665147, 0.30416653639201996, 0.30905880617170484, 0.31396766917508184, 0.3189671871824902, 0.32401518868303714, 0.32915811503643605, 0.3342959530837401, 0.33944846004422846, 0.34468938893955636, 0.349976283644095, 0.35529679148901, 0.360675119750785, 0.36609670291077306, 0.3715608781307221, 0.3770669380137652, 0.38266798244284933, 0.38824871750722467, 0.3938415623658617, 0.399509947146587, 0.4052166101644578, 0.4109792756600335, 0.4167570948156378, 0.42253840424060096, 0.42839170311969804, 0.43427703415214847, 0.44020751510751727, 0.4461523136137674, 0.45212470968222984, 0.4581285503464025, 0.46415992324249994, 0.4702013026416298, 0.4762863870208969, 0.4823314165483638, 0.4884697641563924, 0.4946255984300452, 0.5008006633806205, 0.5069892939744246, 0.5131771021487203, 0.5193980765985606, 0.5256319103717412, 0.5318894559321629, 0.538144896725499, 0.5444743027893492, 0.5507421156049589, 0.5570219116246725, 0.5632908984952504, 0.5695921934025195, 0.5758711224103247, 0.5821859625832524, 0.588502027427179, 0.5948227656138421, 0.6011369609896289, 0.6073997028198729, 0.6137142005909919, 0.6200209591878449, 0.6263681754464532, 0.6326502717196774, 0.6388962137718971, 0.6451642204824112, 0.6514195515960806, 0.6576492177999258, 0.6638768081021021, 0.6700379912742579, 0.6762360735713367, 0.6824116452267721, 0.6886293674854063, 0.6947488804751953, 0.7007928375840617, 0.7068741449914612, 0.712890082331369, 0.7189191766090576, 0.7249159640063442, 0.7309170098696158, 0.7368416994617705, 0.7426396671710439, 0.7485086899179876, 0.7543366512989003, 0.760169756613692, 0.7659077213798554, 0.7715629795005665, 0.777223898251603, 0.7828393782870746, 0.7883803869111868, 0.7939056772672496, 0.7993856743820158, 0.8048095761231382, 0.8101820154776763, 0.8154692219351093, 0.8207398632598434, 0.82603839952375, 0.831184777562472, 0.8362777905291399, 0.8411870680752292, 0.846184874272238, 0.851147858176062, 0.8560108668584523, 0.860809374601727, 0.8655425431880311, 0.8702094999135188, 0.8747906139910914, 0.8793247907093352, 0.8837889408861219, 0.8881541681364501, 0.8924793870845904, 0.8967656441967612, 0.9009376238426415, 0.9050361800585821, 0.9090579820777078, 0.9130070292078915, 0.9168023247816081, 0.9206072271175606, 0.9243294509961448, 0.9279523254746849, 0.9315103586177198, 0.9350329440194619, 0.9384152301798779, 0.9417150060451632, 0.9448635845253223, 0.9480045664673283, 0.951082654068353, 0.9540428874488629, 0.9569154783810334, 0.9596788655275728, 0.9623773592206643, 0.9649832015542249, 0.967501043441269, 0.9699277726581788, 0.9722349585698298, 0.9744819993513003, 0.9766423463275244, 0.9787009411293176, 0.9806659423747368, 0.9826026828339447, 0.9843715354348566, 0.9860053093025147, 0.9875978419705649, 0.9890958451312383, 0.9904639415531783, 0.9917765708094999, 0.9929755970113293, 0.9940959575491793, 0.9951183478361648, 0.9960476509339912, 0.9968740906113249, 0.9975963466604743, 0.9982294732671243, 0.99876528190589, 0.9992460914272923, 0.9995824630371896, 0.9997939731529736, 0.9999451855285674, 1.0, 0.9999422129947471, 0.9998068754772227, 0.9995467303583122, 0.999221888956447, 0.998799499446938, 0.9982544117928042, 0.997641973470412, 0.9969627337009749, 0.9961527359054119, 0.9952487044092785, 0.9942909009533158, 0.9931951603730501, 0.9920137139977141, 0.9907367797320701, 0.9893701246735308, 0.9878531205612896, 0.9863155079364393, 0.9847020405535819, 0.9829787574912513, 0.981165914240119, 0.9792689260496632, 0.9772785779391121, 0.9751824300030201, 0.9730210375247662, 0.970772995783445, 0.9684579481008635, 0.9660369793685561, 0.9635893442983768, 0.9609963270557834, 0.9583251693161988, 0.9555575074087849, 0.9527336160473321, 0.9497546050627289, 0.9467855055525063, 0.9437357355801289, 0.9406114244836394, 0.9374040238882606, 0.9341462004946747, 0.9307844998884608, 0.9273506672207459, 0.9238457689743569, 0.9202708840551648, 0.9166528578785224, 0.9129380311842408, 0.9091579770300321, 0.9052667941006323, 0.9013650154155464, 0.8974333848630557, 0.8933986330501119, 0.8893036833821792, 0.8851402691251335, 0.8809294270809901, 0.8766752757384068, 0.8723491864496729, 0.8679690247544237, 0.8634820929494158, 0.8590040724078817, 0.8545005761754397, 0.849913512727959, 0.8452777223034182, 0.8405922231279096, 0.835863353745584, 0.8310967301732916, 0.8262787977836583, 0.8214192426728852, 0.8165310942823304, 0.8115907900246572, 0.8065760496478035, 0.8015677778597959, 0.7965229411495997, 0.791443121164246, 0.7863298759724943, 0.7812245436375193, 0.7760440066294799, 0.7708368324156333, 0.7655503364046035, 0.7603002141183522, 0.7550169740399707, 0.7497172160496788, 0.7443942621609762, 0.7390708349448002, 0.7337037415170248, 0.7283147970999869, 0.7229153377804975, 0.717501197557041, 0.7120175877986215, 0.7065853825853097, 0.7012214556209421, 0.6957533770975923, 0.6902798029507115, 0.6847455763730352, 0.6792712417323854, 0.6737867511613629, 0.6683036161529511, 0.6628178149973063, 0.6573683251258589, 0.6518769695052145, 0.6463286184997183, 0.64085382420751, 0.6353817181677575, 0.6299537130061907, 0.6244867278911563, 0.6189778240786047, 0.6135376619618701, 0.6081064579736981, 0.602683405892533, 0.5972749611595402, 0.5919125559293511, 0.5865278833247362, 0.5811610491190315, 0.5758177721749596, 0.5704891231370101, 0.5651324916926035, 0.5598533985545437, 0.5545946679723176, 0.5493553140615417, 0.5441416146832887, 0.5389824847717964, 0.5338144211990178, 0.5286371269375836, 0.523531139830802, 0.5184530313664351, 0.5133828899928767, 0.5083666328356164, 0.5033569934305615, 0.4984049471549978, 0.4934839355500805, 0.48861394769051797, 0.4837563377081328, 0.47896246175213264, 0.4741734735280131, 0.469423451719702, 0.46475747036041587, 0.46008151955342647, 0.455399611305065, 0.4508165016035116, 0.446274289757542, 0.4417666181801262, 0.4373090646300411, 0.4329360844585216, 0.42855871657607875, 0.4242274202170248, 0.41992606281087785, 0.41568976500553034, 0.41147367466006546, 0.4073329780094172, 0.4032376312227815, 0.39913673327338367, 0.39514037964842175, 0.3912396979115818, 0.38732606961721666, 0.38346122932402127, 0.3796338014566847, 0.37586898739620817, 0.3721579133817118, 0.36849098217868587, 0.3648740582008438, 0.3613097407706321, 0.35779328400157767, 0.3542972281280511, 0.3508864588832091, 0.3475251270490486, 0.34417145703718144, 0.34091537802434463, 0.33770732133993264, 0.33454784777996, 0.33143743346964016, 0.3283975477733098, 0.325383710065075, 0.3224070506596791, 0.31949746995107137, 0.31663834961030995, 0.31388829446932326, 0.3111228698594158, 0.30835040689296733, 0.30569982512379645, 0.30309863918318325, 0.3005819763668977, 0.2980751227724599, 0.29561250755302954, 0.2932086686391814, 0.29085490183880897, 0.28857193530414066, 0.2863146099086863, 0.2840372442668286, 0.2818886534018269, 0.2797852473686602, 0.2777247284581396, 0.2757120554992735, 0.2738052545905225, 0.2718747715600731, 0.2699924281341829, 0.26813879416517666, 0.26635301517977816, 0.2645490601091328, 0.26286084447279096, 0.26121310104302486, 0.25965966531393114, 0.2580859464625582, 0.2565203553403455, 0.25503692780160686, 0.2535934910443446, 0.25219904854161157, 0.2508332881606802, 0.24951153569790988, 0.24822329689106687, 0.2469735533072251, 0.2457616944697811, 0.2445870988951451, 0.24342572232917056, 0.24232670883240362, 0.24126172158879985, 0.24021624287447338, 0.2392196426054359, 0.23828755685685343, 0.2373498441525924, 0.23644478679225206, 0.23557629135101316, 0.23473362749002386, 0.2339379506439242, 0.23315360532950982, 0.23239917364552234, 0.23168777950121192, 0.2309886507332106, 0.23027069385728158, 0.22963250475056446, 0.22901776612392138, 0.2284493509556955, 0.2278769130200466, 0.2272385910536161, 0.2267227830735367, 0.22622350084493068, 0.22580858393188188, 0.2253335159122864, 0.22491349414602152, 0.22447301593838617, 0.22405279530844513, 0.22360257612825815, 0.22322586106896072, 0.2228822313942233, 0.22253128391410681, 0.22219457762414774, 0.22188540581930508, 0.2215731504151637, 0.2211964223017604, 0.22091866725801548, 0.22064769422533334, 0.22042780253513652, 0.22016415682800347, 0.2199301375446282, 0.21968023846149956, 0.21943868170611772, 0.2191530985798182, 0.21893218133861864, 0.21869079538166858, 0.2184783513479667, 0.2182667578323587, 0.21808620847387472, 0.21787169384191354, 0.21760971140675636, 0.21740420138863037, 0.21719641239245824, 0.21702827386233453, 0.21680991242143266, 0.21661427617474957, 0.2163909054466157, 0.21616682451314445, 0.21592012389282642, 0.21569480831383506, 0.21543241427934468, 0.21520207492109705, 0.21496447205283037, 0.2147567824189305, 0.21449904406279127, 0.2142586443147112, 0.21398515775097515, 0.21370565629462163, 0.21340765517380889, 0.21311531550581414, 0.2127813286724651, 0.21247484137527495, 0.21215656602956123, 0.2119035266367047, 0.21155118597873082, 0.2110970079891787, 0.21073925627185583, 0.21036638048066378, 0.20998542168689616, 0.20958143084124564, 0.20920013394012776, 0.20876175518894288, 0.20831046175898513, 0.20786454136151752, 0.20738375348386892, 0.20688752252570047, 0.20638031992209113, 0.2058589144428967, 0.2052924674807111, 0.20474533384054838, 0.20417182347268625, 0.20359179434728436, 0.20299411475312876, 0.2024115807614025, 0.20177450348297019, 0.20106545854315, 0.20040366692295636, 0.19972244630283592, 0.1990407718641183, 0.19831903060064118, 0.19755848983617247, 0.19680397263267468, 0.1960305768014457, 0.1952572183867936, 0.1944442360977375, 0.19368182679061222, 0.19282560084131278, 0.19195584601422405, 0.19097837170702184, 0.19009185561979006, 0.1892155943469664, 0.1882852917065088, 0.1873373312997557, 0.18637182974506694, 0.18538890823001145, 0.1843512329279569, 0.1833385920061259, 0.18236301443968733, 0.18130546061088393, 0.18023279319293148, 0.17912153598515915, 0.17802144361975053, 0.176923559572395, 0.1757882727517146, 0.1746379532767684, 0.17345394541036444, 0.17227617485537697, 0.1711341191044704, 0.16991854088973418, 0.16869064210558696, 0.16736133349242063, 0.1661197305754186, 0.16490274622564538, 0.163621506022921, 0.16232653686494042, 0.16104156024421673, 0.15971710342597248, 0.1583694632399663, 0.15702366452750355, 0.15566602356723505, 0.1542640417084849, 0.15288770866802626, 0.15151729398941602, 0.15011354368763258, 0.14869915793966268, 0.1473072937514196, 0.1458686314326274, 0.14437782884269967, 0.14292959564908764, 0.14147147829365236, 0.14000401605019358, 0.1385277315646448, 0.1370571801318853, 0.13556298507414563, 0.13406224110985054, 0.13251316486585418, 0.1310057335765175, 0.1294998439958542, 0.12797629232271185, 0.12644682499580087, 0.12494478134189231, 0.12340100187890962, 0.12188520479296584, 0.1203329089555507, 0.11878036420722429, 0.11718311502154621, 0.11563582644072196, 0.11411410210936704, 0.11255870697821524, 0.11100336083069072, 0.10938510894589866, 0.10783864867706444, 0.10631995510066855, 0.104765122287575, 0.10321090716359012, 0.10167651316596417, 0.10012257386235289, 0.09858105476855493, 0.09703233250269229, 0.09548778204410895, 0.09392422420622787, 0.09239169414130119, 0.09090491215136824, 0.08937473016348418, 0.08785143760993462, 0.08632577273189529, 0.08481778420023818, 0.08331187713833026, 0.08181827069755321, 0.08033170178738828, 0.07887356392885814, 0.07739937660934468, 0.07588522063232542, 0.07443580657895603, 0.07299317549806592, 0.07154855937864651, 0.07012243626356024, 0.06875108976008379, 0.06733552926415681, 0.06593167241679583, 0.06449282890268764, 0.06311872009870204, 0.061786914675687796, 0.060428265828071155, 0.05908205073004846, 0.05773444014881704, 0.05641552475641806, 0.05517680889787431, 0.05387424804057236, 0.05258845184911815, 0.051295766413317095, 0.05004579018142352, 0.048775579232684455, 0.047559904147413117, 0.04635734186021113, 0.04518234113982123, 0.04400540684190645, 0.04277794800042292, 0.04163957991336583, 0.04051298859338235, 0.039497234651742714, 0.03838387464955229, 0.03725466196440748, 0.0361840111331539, 0.03513017092957281, 0.03410494630038974, 0.033083541526937786, 0.03206818831602274, 0.031083777012155027, 0.0301164703056923, 0.02912423244282545, 0.028196777241170756, 0.027303092158880625, 0.026403774235697994, 0.02552134901305343, 0.024663020769250955, 0.02381401167574134, 0.022964034249873807, 0.022152976984485134, 0.021358739223830654, 0.020651746966076565, 0.01988280379507727, 0.019064865073935826, 0.018346830392487235, 0.01764523055365251, 0.016995382037504923, 0.01632277212618646, 0.015626923610946468, 0.014997275395286936, 0.014383826201569637, 0.013765686177846317, 0.01318780801518558, 0.012646458232514146, 0.012097082707021157, 0.011564803585456238, 0.011040246341521568, 0.010543296265526825, 0.010090927192883686, 0.009623409312086297, 0.009173955064734673, 0.008754011315351043, 0.008338434034824201, 0.007917409718279513, 0.007540391392420517, 0.007179377021924679, 0.006885762180320432, 0.006549897341079306, 0.006174030827655795, 0.005882072103738981, 0.00560429373103155, 0.0053804954642013994, 0.005126016948052044, 0.004878513375953062, 0.004657511674546075, 0.004451571178801677, 0.0042346661645674185, 0.004061295725832448, 0.0038726506858069365, 0.0037284265378931002, 0.003595330578167811, 0.0035109599551793637, 0.00339574880081616, 0.0032519015605623294, 0.0031687404212780313, 0.0030961402404850796, 0.003064588919162352, 0.003009376802052912, 0.0029805188783268927, 0.002947841147499018, 0.0029276535016342837, 0.0028633514015432688, 0.0028740196036799595, 0.0029490132618551455, 0.002968924384783528, 0.003000232629950045, 0.003065889785964711, 0.0031156692953204107, 0.003122985478833642, 0.003201748819664785, 0.00328772198446968, 0.0034697818511439478, 0.0035586309875363896, 0.0036031552080692192, 0.0037219722486814717, 0.003847839225211804, 0.003987502002650891, 0.0041257499489934174, 0.004265933990412449, 0.004417684269276863, 0.00457514534099607, 0.004684195651035313, 0.004859070773059126, 0.005106060103090979, 0.005275973427632624, 0.0054519844159167125, 0.0056195474890305954, 0.005808063423683099, 0.005974721070560199, 0.006173974539090998, 0.006375065258848747, 0.006577902971776567, 0.006782377150565719, 0.007011771632500151, 0.00721615619836848, 0.007446470827997644, 0.0076525701539279165, 0.007861793138605865, 0.008080639136060623, 0.008293682276595441, 0.008529840802677309, 0.008743820999572742, 0.00896008708794051, 0.009201458675764612, 0.009417606160053996, 0.00962400982141122, 0.00984491398576948, 0.010065886548191625, 0.010293510466102893, 0.010512446300499674, 0.010739994566565032, 0.010955844218112193, 0.011170707060282267, 0.011358421731496388, 0.011573381248241164, 0.011850347646650763, 0.012049821257826684, 0.012249225282927812, 0.01242920421316235, 0.012629026990697872, 0.012863504757158238, 0.013052685915883882, 0.01324060396819423, 0.013436084456263217, 0.013618735238885469, 0.013824962158245543, 0.013999553342357552, 0.014172570301985916, 0.01436687343672182, 0.014532194767156033, 0.014712189598359121, 0.01487145600763144, 0.015028896188473667, 0.01523079126236105, 0.015377102530967695, 0.015541533507046094, 0.015683540791300774, 0.015824660020578016, 0.01598528930544782, 0.016120049059829725, 0.01626976327702194, 0.016399010607573157, 0.01652669306004865, 0.016717838552545532, 0.01683261179747775, 0.016978616641203415, 0.017090322570562286, 0.017203042671242695, 0.017322992883497274, 0.017434564245036133, 0.017615747416775646, 0.017716684712648204, 0.017820037498618223, 0.017885132818842988, 0.0179958853870631, 0.018130396475967432, 0.01823375753948353, 0.018336346698829786, 0.01847305778119048, 0.018569065458883746, 0.01872201113586454, 0.018812109601983314, 0.018905596727135716, 0.018959744240130496, 0.01906370500260907, 0.019265626419079567, 0.019356499049556074, 0.019452742083801076, 0.019556081656387423, 0.019661057040785652, 0.019793485889593336, 0.01990330618921956, 0.020018024150283628, 0.020118626317233813, 0.020244756167988077, 0.020406944606577583, 0.020535622854627587, 0.020669732532374696, 0.02082562239537812, 0.020968472888399446, 0.021169264457648898, 0.02131848454725863, 0.021477123421890218, 0.021642562177076434, 0.021819603066566287, 0.021979637515672796, 0.022177442041984442, 0.022382642370081945, 0.022602610691263732, 0.022822787202790948, 0.023077630854727783, 0.023312740332353046, 0.023558957241674908, 0.023858623747039173, 0.024122369005852053, 0.024386262241725357, 0.02468014991177366, 0.024987466440382165, 0.025261609336919448, 0.02560241378061594, 0.026032069288357707, 0.02638699481281013, 0.026759248787216174, 0.027106742634381835, 0.02751920444085277, 0.028024228095563868, 0.028458077599105434, 0.02891267543258467, 0.02939029829548163, 0.02988597959575238, 0.03039788586329823, 0.030936096767419836, 0.03149525424729348, 0.032084990575631384, 0.032685698800615844, 0.03327601827331086, 0.03392594598720264, 0.03459705406465063, 0.03526889954932352, 0.03598691206105705, 0.03672913161411388, 0.03749135933133851, 0.03827711565660007, 0.03911286128071573, 0.03994451728186328, 0.0408008621029075, 0.04168731230196758, 0.04260154483911014, 0.04361426817132275, 0.04457660022916604, 0.04554398211051635, 0.04657606905392345, 0.0476396205857201, 0.04871383796876762, 0.04984382871859122, 0.05102841268432183, 0.052218320606748754, 0.05344175256365747, 0.05471541918358305, 0.05600481201814746, 0.057308598286089536, 0.058671824737967185, 0.060069841125858364, 0.0614937435650158, 0.06296390676071424, 0.06443225475265792, 0.06597897512613592, 0.06756028691604178, 0.06921913829330222, 0.07086667082647656, 0.07253704015914333, 0.07426542226397312, 0.0760327644948604, 0.07785357474956563, 0.0796984253883528, 0.08152348298917833, 0.08345848755812096, 0.08543175018883521, 0.08751663298878189, 0.08955952073239798, 0.09163753756602307, 0.0937706204956081, 0.09594774028049335, 0.09820883847990773, 0.10046942772472416, 0.10267839589362608, 0.105044678131047, 0.10745186875594842, 0.10992876792101354, 0.11241627167164238, 0.11495754585330506, 0.11753297033790343, 0.12015388911201981, 0.12283217898721428, 0.12554310479428624, 0.12824914667802603, 0.13105986938779277, 0.13391439762119392, 0.13687639197095303, 0.13981182382036592, 0.14276301041343334, 0.14579943640517468, 0.14888214462533056, 0.15204633752124377, 0.15521740128391331, 0.15843222871600057, 0.1617005214767179, 0.16501650391225953, 0.1683261404552001, 0.17174375691568505, 0.1752640290557709, 0.1787627526098342, 0.18230935022929842, 0.18587541273498365, 0.18952038038732374, 0.19323649019090872, 0.19696891832152072, 0.20070823543711, 0.20453876329393308, 0.20841312457453864, 0.2123149417912769, 0.2162790356769044, 0.22028829970493274, 0.2243377838885094, 0.22843023486157255, 0.23264048479441882, 0.2368090912515483, 0.24095190443119172, 0.2452224515708895, 0.24953413686487172, 0.2538727639665014, 0.2582680127656441, 0.2627053812745893, 0.26717973508426157, 0.2716936375856298, 0.27620467598883286, 0.2808021528261334, 0.2854803666816902, 0.2901446793580402, 0.2948475740476221, 0.2995791373623911, 0.3043587157688359, 0.3091488946463953, 0.3140039091684252, 0.3188927488144724, 0.323840794311986, 0.3287928596091653, 0.333809368905411, 0.33882488514821535, 0.3438746721649234, 0.3489741329803951, 0.35408745070713954, 0.3592353961345095, 0.3644119214854919, 0.3696187539641744, 0.37478227840414263, 0.38005581573750696, 0.3853525429968027, 0.39067206556002226, 0.39601392977304817, 0.4014104050407948, 0.40679123351469726, 0.4122062780784847, 0.41762973512212637, 0.4230745303309095, 0.4285045262341587, 0.43399338670000864, 0.4394915470828807, 0.4450132165009611, 0.45054932846818124, 0.45609914742836277, 0.46166190157704523, 0.4672344444159589, 0.47282091839352297, 0.47841769033294634, 0.48397472191795066, 0.48959566361312995, 0.49522613253801506, 0.5008556208075722, 0.5064890450151529, 0.5121771910139996, 0.5178097568221006, 0.5234234188542355, 0.5290666837845307, 0.5347105990875619, 0.5403377100522546, 0.5459817877874267, 0.5516153378853775, 0.5572523275862852, 0.5628834571926312, 0.5684749891567443, 0.5740956354985736, 0.5797243529507827, 0.5853205430170499, 0.5909055328244264, 0.5964408429442074, 0.6020050875345934, 0.6075341752423179, 0.613067155027547, 0.6185810454061671, 0.6240844827731271, 0.6295567639999621, 0.6350268511764682, 0.6404539507762061, 0.645859214544401, 0.6511829348214507, 0.6565483928771465, 0.6618922097221213, 0.6671987317936745, 0.6724754877530299, 0.6777215914076349, 0.6829361175988031, 0.6880712822213181, 0.6932256676250192, 0.6983428871690419, 0.7034386717460845, 0.7084774496811406, 0.713456752167696, 0.7184204269367527, 0.7233425707086965, 0.7281965919623216, 0.7330363779026883, 0.7377696905505832, 0.7425252403446923, 0.747230261077745, 0.7519265612330724, 0.7565240961817349, 0.7610768680980612, 0.7655739901512741, 0.7700200470647706, 0.7743882767109102, 0.7787324254825853, 0.7829929197954767, 0.7872286831798226, 0.791405647157736, 0.7954505934845061, 0.7995171728039288, 0.8035609774785378, 0.8074922245492295, 0.8113604826572594, 0.8151299409878634, 0.8188745527682271, 0.8225614015850711, 0.8261700831219907, 0.8297111307828705, 0.8331581310547519, 0.8365651614116658, 0.8398870115585123, 0.8431530363289194, 0.8463460703251728, 0.8494469126602316, 0.852494882342691, 0.8554813367851184, 0.8583759893509644, 0.8611949983577103, 0.8639658610103605, 0.8666282262817165, 0.8691842667934526, 0.8716978599290469, 0.8741321984077074, 0.8763977738202033, 0.878683228443931, 0.8809202729299178, 0.8830294307166079, 0.8850550990380782, 0.8870344649466793, 0.8888875759482773, 0.890635004713915, 0.8923259093666102, 0.8939320052708435, 0.8954341822534639, 0.896871894917514, 0.898201557863324, 0.8994677746738932, 0.9006454183601974, 0.9017391296044024, 0.902738889466187, 0.9036361107257723, 0.904460539167293, 0.9051954353359736, 0.9058712222347388, 0.9064231558458451, 0.9068497398102042, 0.9072303545911962, 0.9075204565954317, 0.9077341806809716, 0.9078417366629333, 0.9078083070233289, 0.9077433846313274, 0.9075860407434797, 0.9073718081821553, 0.9070263907291053, 0.9066361577730913, 0.9061065697627759, 0.9054903032818735, 0.904714514016523, 0.9039333363297646, 0.9030959219243844, 0.902128096332708, 0.9010718760697005, 0.8999976902128682, 0.8987564005690601, 0.8973680973930735, 0.8959669066207128, 0.894477875827943, 0.892915451423692, 0.8912501807717228, 0.8894593129064327, 0.8876278280956909, 0.8857090380635804, 0.8836545079275481, 0.8815695096155062, 0.87944578421092, 0.87717989115803, 0.8748310309565407, 0.8724162123445786, 0.8699012176351756, 0.8673248026689726, 0.8646476665878398, 0.8618808109679822, 0.85904956653551, 0.8561405759026254, 0.8531333929731172, 0.8500734805799376, 0.8469787490101814, 0.8437604684448039, 0.8404693652471591, 0.8370755622268843, 0.8336443897976258, 0.8300936866331725, 0.8265239681651404, 0.8228808161923354, 0.8192053742958092, 0.8154143140167069, 0.8115559783993985, 0.8076312966353583, 0.8036412150415215, 0.7995679667393405, 0.7954523596409336, 0.7912474863884276, 0.7870092728885381, 0.7827084224903361, 0.778311180115739, 0.7738935609643646, 0.7693966192357986, 0.764861759994971, 0.7602683588683182, 0.7556789183768456, 0.7509655680704317, 0.7461971306332895, 0.7413845483749362, 0.7365232904279375, 0.731565254986988, 0.7266160706096867, 0.7216327366904106, 0.7165868853422415, 0.7114965966092512, 0.7064006548099548, 0.7012207148866644, 0.6959625750112152, 0.6907118610662015, 0.6854225267165359, 0.6800912584258904, 0.6747293684399271, 0.669370122838441, 0.6639352360661244, 0.6584703645912163, 0.6529203634376203, 0.6474057896880834, 0.6419081176218633, 0.6363293483788934, 0.6307263918796328, 0.625065257668127, 0.6194217700304127, 0.6137134187741241, 0.6080312764643275, 0.6023269436470851, 0.596637293978587, 0.5908893435664851, 0.5851215788663575, 0.5793452635172114, 0.5735561563549287, 0.5677438752804359, 0.5619346234298088, 0.5561416090704435, 0.5503114485363696, 0.5444759547156413, 0.5386222096804553, 0.5327812204990331, 0.5269258098683248, 0.521082128289484, 0.5152375790892249, 0.5094262697920032, 0.5035798087810368, 0.49770312557081753, 0.49187190182153145, 0.48604562505247245, 0.4801764402091496, 0.4743701817909206, 0.46856996841485243, 0.46277743243764224, 0.4569941346853037, 0.45129414917632776, 0.4455245763344798, 0.4397843307280272, 0.4340492649599389, 0.4283339931539777, 0.422629849056576, 0.41695747608071354, 0.4112480237294532, 0.4056268082834252, 0.4000254751533314, 0.3944875062676624, 0.38892457358348803, 0.3833619945921211, 0.3778553825487069, 0.37237512939894857, 0.3669410160320423, 0.3615142346537378, 0.35608748961374526, 0.35072631448173736, 0.34539552082052005, 0.34010083075509034, 0.3348332863492468, 0.3295572430793106, 0.3243632010045548, 0.31920218038963677, 0.3141198311637257, 0.30902265751906594, 0.3039174705729953, 0.2989044545791446, 0.29392883803980074, 0.2890360709306916, 0.28413246815932797, 0.27921997878296656, 0.274408573426198, 0.2696377806197652, 0.26488503614946696, 0.26020091610900115, 0.2555725184833809, 0.2509708474170099, 0.24641332018281695, 0.2418584216571603, 0.23739634666114331, 0.23298950347730596, 0.22861383581364603, 0.22428394340562813, 0.22001212122784689, 0.21577400927511228, 0.21159797925309162, 0.20745449876870714, 0.20336048587055086, 0.19928098406741251, 0.1952908185813448, 0.1913860519194509, 0.18748742787493616, 0.18363959614492265, 0.1798589496659821, 0.17611063779889097, 0.17233677300449807, 0.16870150140949972, 0.16511332025214986, 0.16161486298217784, 0.1581169343744892, 0.15470249952037643, 0.15130181011775304, 0.14795356387259362, 0.14459420511491164, 0.14135783040440084, 0.13821854322591934, 0.13507200606333225, 0.13197651932072277, 0.12892477285446224, 0.12593141884026712, 0.12293870277446194, 0.12005094773841181, 0.1172097767788009, 0.11448791979459969, 0.11173113470039472, 0.10897612196883576, 0.10632683498564068, 0.10372456151388723, 0.10118787855473119, 0.09867677441724351, 0.09619679751096731, 0.09378240764614006, 0.09141382716822093, 0.08904395813155383, 0.08677207375817972, 0.08456120993762743, 0.08237157185029194, 0.08022527445208838, 0.07817357821557692, 0.0761066701488834, 0.07406406916645172, 0.07208981497640615, 0.07015824383326176, 0.0682734805723885, 0.0664250056715602, 0.0645569162890443, 0.06279804354616605, 0.06107579028979418, 0.05939471488853473, 0.05774467319488465, 0.05614968802922152, 0.054569596576235134, 0.053026170603761684, 0.051509477776797985, 0.05003884794019021, 0.04868689195736122, 0.047273844670517956, 0.04589881850820283, 0.04446690648664161, 0.0431760591316549, 0.04196122369356913, 0.04072250511153914, 0.039514907409989815, 0.03832593778164629, 0.037179712070917796, 0.03605459505791471, 0.03496485609610688, 0.03385001051333509, 0.03281896678837697, 0.03181018369557891, 0.030888989736132175, 0.02991569909368137, 0.0289253506250314, 0.028006640701077633, 0.027108837574652534, 0.02627588801518705, 0.025412639334883157, 0.024547702304459327, 0.023729904926311232, 0.022930631532525073, 0.022092977274056715, 0.021335712650682084, 0.020685326560767367, 0.01994241792667573, 0.01921741989380932, 0.01847175804550499, 0.01778402531950705, 0.017113588610313205, 0.016449817940513013, 0.015797579787862847, 0.01513041432162142, 0.014502386845513764, 0.013872985840275296, 0.013261648630799603, 0.012656805349115553, 0.012058020188431506, 0.011464834427597922, 0.010881452011570314, 0.010297420320688973, 0.009717766770235847, 0.009127884302529496, 0.008557079463156666, 0.00798114829038149, 0.0074145690105812175, 0.006848563477430687, 0.006350600357587963, 0.005775858133744973, 0.005176075600465167, 0.004609981000610766, 0.004043395532251241, 0.0034662802361961524, 0.0028978982316081453, 0.002324204533156797, 0.0017496449398171833, 0.0011709289230499797