0.04728354863396686, 0.046316087944329384, 0.04553935941951532, 0.04466680065718897, 0.043709107396505104, 0.04294880119102167, 0.042218003709534664, 0.041620163397067984, 0.04092176092695488, 0.0401278864148892, 0.03948878439401194, 0.0388603100252109, 0.03836033058937153, 0.03773387282369172, 0.037081465979524275, 0.03648618954261581, 0.0358998166380623, 0.03525927897008008, 0.03469722203123581, 0.0342532791972496, 0.033686279200164204, 0.033131310602773155, 0.0325540769239324, 0.03202707568862564, 0.03153283265870338, 0.03102351703230515, 0.030526602311847447, 0.029923181319754702, 0.02946760407272984, 0.02909318437603271, 0.028644371851798304, 0.02821004235692312, 0.027813747252346675, 0.027407947268339058, 0.026792962861274666, 0.026452870982432257, 0.02611940632277161, 0.025885950277749255, 0.025561319718884746, 0.025203904804113143, 0.024923564275985084, 0.02466079533978615, 0.02457608172375625, 0.02433219892584324, 0.024004775429291563, 0.023835272629615493, 0.023689048526161015, 0.023635084513070503, 0.02352905538223088, 0.023401134864149704, 0.023360183066558043, 0.023345811947165993, 0.023313096096614215, 0.023359253592187414, 0.023573114707596377, 0.02365335675639693, 0.02376881498016827, 0.023862244096633282, 0.024054204811947758, 0.024209049351524643, 0.02447213735095502, 0.0247631409445551, 0.025060221691554575, 0.025412572505804056, 0.025765684083262054, 0.026180930580758592, 0.02662558331514282, 0.027106382450702453, 0.02761222221529572, 0.02825873724720371, 0.028817086890693618, 0.02941575003535828, 0.02984427096844237, 0.030549793516500223, 0.031391603664635274, 0.032141795412212674, 0.03292967369396981, 0.033858136754459846, 0.03471018827086864, 0.03548232424465759, 0.0364401764863556, 0.03743567731327397, 0.03852656834166965, 0.039592832258921316, 0.04074228381402539, 0.041890626709465986, 0.043085247196414475, 0.04421249646705362, 0.04551420305043055, 0.04686744084301697, 0.04824913703852434, 0.04967376349728745, 0.05118197957103323, 0.05268999839461988, 0.05420586024711751, 0.055814588839757394, 0.05746954867788181, 0.059148740967282384, 0.06090121113925149, 0.06287694075312547, 0.06470204649284485, 0.06658566151622256, 0.06844181661534766, 0.07045123864285877, 0.07243874759171315, 0.07456180319291852, 0.07673335963321141, 0.07890319630058676, 0.08118096051407626, 0.08358084862202003, 0.08594687976626755, 0.08836747818289875, 0.09089414888014455, 0.09341844077547304, 0.09591590270301248, 0.09856772474224357, 0.10127300089448933, 0.10394710503822506, 0.10677191578506756, 0.1097096500125908, 0.11262850299958038, 0.11560343151757017, 0.11868598438458512, 0.12176772161832956, 0.12486964666029769, 0.12807620979988105, 0.13134021139779123, 0.13465046455423466, 0.13803129107530926, 0.14160578276560304, 0.14508403276448917, 0.14862750414773435, 0.15208173286694057, 0.15577217362568804, 0.1594824313206222, 0.16328553803036458, 0.16714158990105046, 0.17115352438719633, 0.17510429486225107, 0.1791380505658753, 0.1832059527457766, 0.18733441743834953, 0.19144891380230367, 0.19570597002608214, 0.20000626351814943, 0.20437401664949037, 0.20879578190961928, 0.21335117506842022, 0.21787096018094432, 0.22239232826153865, 0.22703538537888054, 0.23154460665479876, 0.23631861182019387, 0.24113529822842894, 0.24608680191949514, 0.25098070300651715, 0.255902584084848, 0.26090064964067317, 0.26594779394735446, 0.2712314880246544, 0.2763526740743083, 0.2815954292005969, 0.28682495223125165, 0.29211346100272323, 0.2974304213578333, 0.3028343158460298, 0.3081476252969194, 0.3136710719938556, 0.31923524648583473, 0.32487410628832897, 0.3305149068099808, 0.3362545259059004, 0.3419714603530011, 0.34773226633775234, 0.3534619048158428, 0.3593163901521058, 0.36518451232508686, 0.37111414317355895, 0.3770778624044283, 0.38316052754861496, 0.3891803578865423, 0.3951523736880702, 0.4012565850600318, 0.4073908978196701, 0.4134638060245795, 0.4196680726354574, 0.42600914112119187, 0.4322452564722551, 0.4385106933703929, 0.44479287706732135, 0.45111476832748165, 0.457461703711875, 0.46383254768248827, 0.47022614607012436, 0.4765788016213806, 0.4830222810364477, 0.4894416498818659, 0.49592079697857383, 0.5024118722668705, 0.5090166408801281, 0.5155168852199634, 0.522021481299745, 0.5285529466007912, 0.5350962054753755, 0.5415531089488342, 0.548127622993592, 0.5548347069745988, 0.5613956401300155, 0.5679642107886959, 0.5744588952012338, 0.5810470195167804, 0.5877122159517473, 0.5942841127292292, 0.6008556215303161, 0.607333928604407, 0.6139106039416243, 0.6204479003479396, 0.6270052434715832, 0.6335479587474445, 0.6401319986703262, 0.6466355307263669, 0.6530281117789479, 0.6595136698616996, 0.6659763865262199, 0.6724495967235532, 0.6788599147021578, 0.6851785124209778, 0.691549132615463, 0.6978897791086793, 0.7043474222573907, 0.7106068920827768, 0.7167566994637401, 0.7229758916087451, 0.7291614667742952, 0.7353574834777649, 0.7414658164061094, 0.7475501652800606, 0.7535845378318521, 0.7595805968843505, 0.7654171392366972, 0.7713461972628816, 0.777366964760483, 0.7831765161405462, 0.7889420608713705, 0.7946842849062424, 0.8003528676951669, 0.8058306922261502, 0.8114179127477367, 0.816944549324898, 0.8225065155865775, 0.8278975468681375, 0.8331912748450595, 0.8384706258973763, 0.8436869136505682, 0.8488729740742286, 0.8539550201422944, 0.8588925439643784, 0.8638532326901406, 0.868741492594709, 0.8736019864578759, 0.8783371666794612, 0.8827896065876888, 0.8874052357073501, 0.8919340802814951, 0.8965300534036362, 0.9008670607067918, 0.9051039371951782, 0.9092877300904705, 0.9133902727038276, 0.9173309127882607, 0.9212777926948216, 0.9253062601846178, 0.9290532845884519, 0.9327200272117995, 0.9361454109083517, 0.939666067189945, 0.943245567326625, 0.9465572599613583, 0.9497822686668368, 0.9527654731030696, 0.9558316805907812, 0.9589002806093941, 0.961753602953886, 0.9645124715847075, 0.9669996349430142, 0.9695887996552187, 0.9720763410636815, 0.9744507075772288, 0.9767190308060111, 0.9789725107067804, 0.9810179211176223, 0.9829742660873658, 0.9848166623190253, 0.9865578795988922, 0.9881176115646669, 0.9896643942574167, 0.9911432782920472, 0.9924697089870851, 0.9936907597386978, 0.9947549488330498, 0.9957707540382019, 0.9966205559400597, 0.9974253764785287, 0.9981181249478901, 0.9988585215787102, 0.9993086287619789, 0.9996002529962272, 0.9998533730328035, 1.0, 0.9999319336968971, 0.9998786714905475, 0.9997919705139002, 0.9995034227028726, 0.9991078802979675, 0.9985315055153536, 0.9979315200151039, 0.9972206688672596, 0.9963997111135399, 0.995469368958927, 0.9944928603750072, 0.9933378995052946, 0.9921188685401325, 0.9907512995093143, 0.9892824420362283, 0.9875928619960801, 0.9859364093904166, 0.9841208816503435, 0.9822562142759915, 0.9802830223607618, 0.9783676328576872, 0.9761609345231762, 0.9737625707999116, 0.9713779776123597, 0.9688929585989496, 0.9662800518177111, 0.96360065453312, 0.9609358097137377, 0.958044987095277, 0.9550638140734975, 0.9519584521293348, 0.9488017947781792, 0.9456847168313745, 0.9423300572001182, 0.938893307433913, 0.9351754129097455, 0.9315994818541953, 0.9279361641375866, 0.9241753484640425, 0.9203256689405295, 0.9163491474967308, 0.9123321596539649, 0.9083714852320309, 0.9041669690623364, 0.899774924416686, 0.8954378390801362, 0.8910221172019416, 0.8864443340622182, 0.8818875932244026, 0.877332413370385, 0.8726120039337297, 0.8678227880986691, 0.8629720324829661, 0.8580492271742576, 0.8530171948211693, 0.8479741574071825, 0.8428678734016684, 0.8376377228225597, 0.8324185290498715, 0.8273769200548966, 0.8220075562781975, 0.8165949785869095, 0.8109916315489176, 0.8055121776823975, 0.8000051460636399, 0.7944240784779047, 0.7887977333711185, 0.7830709422077968, 0.7773662552151068, 0.7717375102844988, 0.7659330369526615, 0.7600960986337042, 0.75406295839181, 0.748185317890433, 0.7423888644330984, 0.7364224157394309, 0.7304296662422449, 0.7242245212873347, 0.7182073610639756, 0.7121635904739235, 0.7060841946553634, 0.6999788016663931, 0.6940149612125089, 0.6878447336855246, 0.6815404638801087, 0.6753690956488242, 0.6691838496824318, 0.6629925768836242, 0.6567852876756544, 0.6505423173945956, 0.6443260313448284, 0.6381047044433756, 0.63201682509258, 0.6257743104009147, 0.6194040066673269, 0.6131967892525786, 0.6069922097105049, 0.6008150516236123, 0.5946189461985177, 0.5883815395409725, 0.5822132888936784, 0.5760553421675464, 0.5700404601303973, 0.563892592049849, 0.5575976920178481, 0.5515191259475781, 0.545456067471122, 0.5396210876880986, 0.5335691139840507, 0.5273178403991008, 0.5213630773840529, 0.5154295976296828, 0.5096050078885004, 0.5037102107744656, 0.4979049530834576, 0.49206964233826134, 0.4862727507525606, 0.4804468443446603, 0.4747377760171165, 0.4691566694203341, 0.46351154624858265, 0.4579113193126598, 0.45236226008902264, 0.4468529160704553, 0.4413963676088275, 0.4359811901294368, 0.4306148009851439, 0.42529787715206385, 0.42003112271584164, 0.4147527377376706, 0.40959641912572853, 0.4044889787205798, 0.3994373607996612, 0.3944306781022673, 0.38942563667364766, 0.3845320577451959, 0.37969043526587104, 0.3750442257648973, 0.37029251336575797, 0.36545103767093123, 0.3608460829547091, 0.35629615954557037, 0.35178549915129503, 0.3473515367174815, 0.34305475616089076, 0.3387270540020143, 0.33446354221826413, 0.33028722562017815, 0.3261500123268393, 0.3219710328709903, 0.3179799812283132, 0.3140491913632424, 0.31017389704035736, 0.3063669938905541, 0.3026849926138904, 0.29899559593963637, 0.29537330891809704, 0.2918294757509768, 0.2883398802570702, 0.2848269588276644, 0.28148392933106614, 0.27820306131478995, 0.27500762972696124, 0.2718497225685608, 0.26876225139124094, 0.265733198377109, 0.26276929502669455, 0.2599443432218143, 0.2571010753016362, 0.25425279944856916, 0.2515558281842443, 0.24892199506678633, 0.24636250801170467, 0.24385298327802246, 0.2413099775710983, 0.23893857508802274, 0.23662408080041555, 0.2343725005800031, 0.2321719434287192, 0.23004057968826397, 0.22795416408726124, 0.2259259770492963, 0.22393862743911055, 0.22202797106628164, 0.22023590206642812, 0.21842908000101757, 0.21668099178441474, 0.2149621988431946, 0.21333212258805245, 0.21176182865181256, 0.21023845147613449, 0.20876790717070856, 0.2074630015233799, 0.2060811025521606, 0.2045681599175129, 0.20332120092654477, 0.2021166634267848, 0.20106808172900476, 0.1999334608536077, 0.19881277577297254, 0.197777187331314, 0.19678503505374043, 0.19589781601382475, 0.1949815364672136, 0.19400109086092776, 0.19318457135596215, 0.19240275806537857, 0.1917005336406383, 0.19098054723636804, 0.19023901676849728, 0.18959567589383827, 0.1889821668764208, 0.18847738019644608, 0.18791135164347006, 0.18745127778495926, 0.18693853840180802, 0.18645906202592566, 0.18584030888639508, 0.1854429723766978, 0.18508631401316397, 0.18472161927736586, 0.18437531369919274, 0.18413192899766145, 0.18380937740774692, 0.18347354840962407, 0.1831954019608393, 0.18293309227491716, 0.18274794645612732, 0.18250581594140913, 0.18226240131745058, 0.182052279965121, 0.18185367183901305, 0.1817788446881012, 0.18158468714626605, 0.1812508288304021, 0.18110140201475525, 0.18095284956550328, 0.1808556254740291, 0.1807002115362936, 0.180637284567793, 0.18047225259392502, 0.18031149219663264, 0.18015881206230458, 0.18000036677262046, 0.17977301689811237, 0.17962020485627017, 0.17940860576508905, 0.17924612924380923, 0.1790714164823638, 0.17890107791873258, 0.17869836938230127, 0.1786079868906724, 0.17836333034097698, 0.17811158132345326, 0.17786808212359298, 0.1775949821390564, 0.17719160063156233, 0.1769102464995072, 0.17660835524174934, 0.1763481047901042, 0.17599616468634913, 0.17558060400955322, 0.17519719804003642, 0.17479129863259027, 0.17431128374369034, 0.17386546570413106, 0.17354066303998994, 0.17302255524654808, 0.17248579926113505, 0.1719915811127211, 0.17140571807322494, 0.1708521843615714, 0.17022066954898277, 0.16957029375863264, 0.1689448826024978, 0.1682462732503635, 0.16749851620697703, 0.16676052733078975, 0.16599736148843658, 0.16516260420419462, 0.16435213189744807, 0.16346599023586877, 0.1626006345143127, 0.16170209760090995, 0.16091269860815796, 0.15993047654083456, 0.15894642136954656, 0.15791125066859155, 0.15685105881038353, 0.15580478880642498, 0.15468712789724864, 0.15356728965947716, 0.1523961489645704, 0.1511999625888135, 0.14996668297735166, 0.1487199489474448, 0.14747433358930617, 0.14616920897126787, 0.14483808745076684, 0.1434636795200083, 0.14208211682497707, 0.14073572827089004, 0.1392917531941656, 0.1378243906050165, 0.13630503480788603, 0.13479405038862965, 0.13334312465447318, 0.13177131205894949, 0.13017985543235136, 0.12864243164693379, 0.127001827733523, 0.12530567595763578, 0.12363813792020793, 0.12195188708928544, 0.12028123015807848, 0.11855394913595425, 0.11673687611448647, 0.11498734357120113, 0.11321827860970186, 0.11155004903348488, 0.10972984524065049, 0.10792827335564151, 0.10608497855682274, 0.10423377872482872, 0.10223835207090376, 0.10038901407630164, 0.09864415740884716, 0.09675151071128994, 0.094853746136532, 0.09301959231936185, 0.09110461232352866, 0.08905941688952168, 0.08716220999155003, 0.0852587257941029, 0.0834243611118297, 0.08150346440439167, 0.0795735056260235, 0.07765949779293133, 0.07574889009861095, 0.07393934470881826, 0.07202644845025544, 0.07015966933153873, 0.06826682770035165, 0.06638871531423862, 0.06440057562131557, 0.06256874411093595, 0.060922088744009215, 0.059087565089414255, 0.05727516719907986, 0.05534296493947095, 0.053593451243640206, 0.05188177002963593, 0.05016128595443111, 0.048460561466317574, 0.046860631651943305, 0.04519372706408364, 0.04360086235014334, 0.04198612850662563, 0.04040415450639724, 0.038810016952472146, 0.03730105887948885, 0.035869713819461684, 0.034420464129351465, 0.03300828423158454, 0.031577185836153335, 0.030248950489910498, 0.02890048324118637, 0.027654118288949908, 0.02644408358451429, 0.025391628611702587, 0.024244735085593466, 0.023049666252412702, 0.022012608865242863, 0.021020058482439295, 0.02023276239093903, 0.019313826030489714, 0.018430211877672232, 0.01763042982915924, 0.016887869226021847, 0.01614624934081715, 0.015527065893074208, 0.014850102504996094, 0.014358286514032956, 0.01391835541667592, 0.013634693171454862, 0.013291673877073355, 0.012926844869990768, 0.012722391344899163, 0.01257836562499421, 0.012627062420273361, 0.012591951966022618, 0.012617651865989834, 0.012728591179148051, 0.012911638908388532, 0.013053566194903698, 0.013396595075760562, 0.013903428531317577, 0.014370031998188348, 0.014912020920916057, 0.015586713662939015, 0.01627373014939404, 0.016932787085503685, 0.017793579860040296, 0.018728496087529516, 0.019812448047119676, 0.020889258509881596, 0.02196762271152925, 0.02321699262213209, 0.024543514533907882, 0.025953775001892235, 0.02743651730606388, 0.029141328003487937, 0.030766686474925132, 0.03248123444716332, 0.03410816624593354, 0.0360216682720379, 0.038103881716481235, 0.04016247137526067, 0.04230592351817548, 0.04444338902456315, 0.04676834289788315, 0.04922446367116879, 0.05170375429498384, 0.05426738745841868, 0.0569610001998099, 0.05968801806309609, 0.06257050357193443, 0.06546308662284447, 0.06844610746828156, 0.07154711980335261, 0.07470488991152674, 0.07786133984547437, 0.08120893958729251, 0.0846392891728361, 0.08825464157455949, 0.09183733098054361, 0.09542863046418579, 0.09919675273808824, 0.10304665113802744, 0.10695534007856249, 0.11097088264116906, 0.11505470317229007, 0.11923080203854113, 0.12348550347661423, 0.12767082294439153, 0.13210075575116562, 0.13674799442416727, 0.1412990792583076, 0.14592937191131383, 0.15058125050518706, 0.1553747783203115, 0.16025895899589318, 0.16519713304918496, 0.1701862491414407, 0.17527396162419592, 0.18043263630364106, 0.18584355023003246, 0.19111923850361004, 0.19629784265969363, 0.20175178607615496, 0.2072705476050249, 0.21297855996598125, 0.2186092169262699, 0.22411068843550613, 0.22990417869531457, 0.23575264979922617, 0.24170145303691462, 0.2476536204712102, 0.2536795678076189, 0.25974213140453684, 0.26586050352828167, 0.2720676141784353, 0.2782897250745497, 0.28457727939919153, 0.2909045374344465, 0.2972833776227257, 0.30358140857742355, 0.31007498216650553, 0.31678406581048174, 0.3233333844362113, 0.3299306079637195, 0.3365109758629172, 0.3432052815906992, 0.3498465422337953, 0.35662661136504564, 0.3634363924480948, 0.3703375832582533, 0.3771962994995034, 0.38406840853323243, 0.3909885652206165, 0.39793498523533544, 0.40503122544414644, 0.41200985311739563, 0.41887509953220997, 0.4259265643909632, 0.4329937343717674, 0.4400526410487231, 0.44715034332900216, 0.4543666122217474, 0.46147059341408664, 0.46858873408262797, 0.47564494849282296, 0.48279423038579544, 0.4899755322799278, 0.4971269757226496, 0.5042806948375474, 0.5114349588790407, 0.5185880412032648, 0.5258632702080616, 0.5329930171815839, 0.5401234505849887, 0.5470642845005378, 0.5542118069972617, 0.5613019485501547, 0.5684184707625114, 0.5755133842868926, 0.5826257799761325, 0.5896702394633565, 0.596647431943871, 0.6036527326478943, 0.6106310071087524, 0.6175528053368912, 0.6244774571242733, 0.6314270236470034, 0.6382796355503957, 0.6451014321129567, 0.6517714427474302, 0.658541884890333, 0.6654575686015534, 0.6721189801609382, 0.6787471791622302, 0.6851863271634504, 0.6917605023606016, 0.698308776905733, 0.7047819470809973, 0.7112059713968043, 0.7175398866570157, 0.7238670951935543, 0.7302302586719653, 0.7364350549867359, 0.7425880467896324, 0.7486590505033688, 0.7547067900600609, 0.7606334711973655, 0.766570666904861, 0.7724430731104514, 0.7783635303301911, 0.7840894179239661, 0.7896292050139856, 0.7952469459251618, 0.8007929952415807, 0.8063064669456104, 0.811702034097693, 0.8170089418660068, 0.8222623463511171, 0.8274409936423903, 0.832538266007299, 0.8375653191492435, 0.8425372420676104, 0.8474048156092949, 0.8521940607815808, 0.8569153051753948, 0.861543367975952, 0.8662044020439003, 0.8706556394990285, 0.8750305326576587, 0.8792874406609988, 0.8835092773574276, 0.8875906000744491, 0.8916511829326859, 0.8956227973462985, 0.8995447571122112, 0.9033319960303993, 0.9069572332407093, 0.910576857231597, 0.9141028022236898, 0.917580508268032, 0.9209132264745535, 0.9241717136979574, 0.9273192619878444, 0.9303756268637047, 0.9333744026992591, 0.9362426107685847, 0.9389747022855104, 0.9416667400896552, 0.9442643977841112, 0.9466197768240212, 0.9490470494266542, 0.9514339110805697, 0.9536485549114444, 0.9557659467132037, 0.9576671348013129, 0.9596063252345159, 0.961590500854617, 0.9633066936822834, 0.9649308266984682, 0.966525274908127, 0.9679569760723259, 0.9693623324650676, 0.9706078661494527, 0.9717671000578217, 0.9726459532399261, 0.9736547130903224, 0.9745358921960684, 0.9753510828358898, 0.9760677609425231, 0.976908857050562, 0.9774041497836585, 0.9777032033443654, 0.9780470086675689, 0.9783005508368, 0.9783676892087799, 0.9784544188942534, 0.9785038562292414, 0.9783964822154478, 0.9782007957326995, 0.9778891400912992, 0.9775227182880231, 0.9771084852027109, 0.9765628444546359, 0.9759338422749505, 0.9752164542889816, 0.974423456443668, 0.9735317924422046, 0.9725785147437752, 0.9715442716950696, 0.9704186677957004, 0.9692268543768332, 0.9680984747253799, 0.9667324400159195, 0.9652978773403186, 0.963754938623719, 0.9621883171529882, 0.9604602314729325, 0.9587647291860812, 0.95699498888629, 0.9550843237222802, 0.9531792669077022, 0.9511324093649411, 0.9490907786289613, 0.9469756074531456, 0.9448119938648264, 0.9425538115565828, 0.940264148069917, 0.9378722827761825, 0.9354202700682742, 0.9330118054954964, 0.9304306808853177, 0.9278219600529827, 0.9251377909451571, 0.9224056446483412, 0.9196373720040472, 0.9168093795136567, 0.9137595727123111, 0.9108633045084507, 0.9081346235478311, 0.9051043785110116, 0.9020368524164265, 0.8989209339053905, 0.8957811899525017, 0.8925137476899162, 0.8893127166944474, 0.8860713561087161, 0.8826378130858059, 0.8793400319322042, 0.875952629569043, 0.8725750940593056, 0.8691562724709935, 0.8656876276118083, 0.8621959773463765, 0.8589943476950886, 0.8553962000525624, 0.8517869441188779, 0.8480240076115159, 0.8444092972746776, 0.8406212153724284, 0.8369873343512372, 0.8333273989878313, 0.8297120911289748, 0.8259986918243578, 0.8224292069967799, 0.8186667226870108, 0.814900926638976, 0.8109444032157581, 0.8071963038062209, 0.8034693082880515, 0.7996928966919826, 0.7959093028732528, 0.7920973292964197, 0.7883068140216499, 0.7845464202047507, 0.780745213458036, 0.7769450505981185, 0.7730789180389094, 0.7692930364978631, 0.7656272715976352, 0.7618294912672414, 0.7580424626637546, 0.7543179166383678, 0.7505476944029015, 0.7466679086826082, 0.7429447652627705, 0.7392307624412868, 0.7355557779058062, 0.7318607749282818, 0.7279988129672842, 0.7243577338738239, 0.7207234796491133, 0.7172008444132816, 0.7135745416251733, 0.7100244980743371, 0.7064309479209917, 0.7028621616952322, 0.6991367964627921, 0.6956421943427258, 0.6921922494745398, 0.6887285677486082, 0.6852866223174517, 0.6820043071835675, 0.6785928945749573, 0.6751353809816584, 0.6718010399504609, 0.6684958702251239, 0.6651524473605874, 0.6619165558550139, 0.6588048654921886, 0.6556131112292664, 0.6524566730875268, 0.6493755787865391, 0.6462854695845488, 0.6430915532456121, 0.6400959466027055, 0.6371305925846661, 0.6342989731176705, 0.6313845830164575, 0.6283331661012145, 0.6255194605778116, 0.6227351517045766, 0.6201579378676114, 0.6174144514568695, 0.6145494051341862, 0.6119129417665549, 0.6093098021915102, 0.6067808171217604, 0.6042422942988468, 0.6017818761613584, 0.5993153306938379, 0.5968900306084413, 0.594511608654186, 0.5921679185876603, 0.5898940352932017, 0.5876294028006401, 0.5854075057845459, 0.5830915688888111, 0.5809713442961627, 0.5788454058594571, 0.5767991597115018, 0.5747862273615227, 0.5728643304343799, 0.5709133369568178, 0.5689612823116591, 0.5670928047982701, 0.5652608296749578, 0.5636418143903378, 0.5618612319297418, 0.5601843909123676, 0.5584890298338726, 0.5568410882916344, 0.5549831483347359, 0.5534576354076952, 0.5520402931080308, 0.5505627253841395, 0.5491197077679819, 0.5476656607319205, 0.5462971265262547, 0.5449487663087577, 0.5436448826968756, 0.5423720777910658, 0.5410565188258829, 0.5398553146456176, 0.5387946686602537, 0.5376332733061397, 0.5365058594621971, 0.5353832649236617, 0.5343251846089009, 0.53323474622264, 0.5322443969760654, 0.5312796604602277, 0.5304939482613948, 0.5295607694813603, 0.5286613914104517, 0.5277942902460627, 0.5269580330843742, 0.5261228487377683, 0.525347895367236, 0.5245415133161738, 0.5238236503444508, 0.5231261923887717, 0.5223350398959029, 0.5216914757726655, 0.5210207850156057, 0.52040796676325, 0.519806215721534, 0.51939786071352, 0.5187964014593269, 0.5180351831767003, 0.5174995366088734, 0.5169729806677079, 0.5165295479149873, 0.5160121219221364, 0.5156387212485501, 0.5151305533569747, 0.5146414101080261, 0.5141466820310369, 0.5136929638319601, 0.5132176203978362, 0.5127918125808184, 0.512373917381435, 0.5119175060567722, 0.5115183405883383, 0.5110080516659073, 0.5106278486749883, 0.5102427384599901, 0.5099837866808551, 0.5095731900330503, 0.5091372029781324, 0.5087351738756198, 0.5083324405057679, 0.5079282089885574, 0.5075216862017272, 0.5071461855893948, 0.5067283974882373, 0.5063078683951348, 0.5057243893242394, 0.5053153785748963, 0.5048689102883172, 0.5044336653434501, 0.503982961892516, 0.5035113892609655, 0.5030311827200283, 0.5026322873491366, 0.5021092097674379, 0.5015761117587595, 0.5011059199549371, 0.5005405631719688, 0.4998414581128968, 0.4992730314268202, 0.4986860165816249, 0.49819380480754405, 0.49755432669353006, 0.4967652335620102, 0.4961153019314827, 0.4954419880155227, 0.49467703986116757, 0.49396539686668045, 0.4933456071743087, 0.49256419136931573, 0.4917000198882665, 0.49088523199141715, 0.4900451064158811, 0.4893044489062276, 0.48839707404964083, 0.4874535119326076, 0.48650870224823006, 0.4855412687150444, 0.4845502393343265, 0.48353471926495944, 0.4824143076584885, 0.4813574641485344, 0.48026938799887725, 0.4792126055576006, 0.4780541358847175, 0.47677124166433826, 0.47556883184791715, 0.47433211438913786, 0.4732205437015686, 0.47189593124373924, 0.4704102657675245, 0.4690525093943795, 0.4676603383010878, 0.4662510132002565, 0.4647884490087391, 0.4632133809237225, 0.46169501168615196, 0.46013921877141883, 0.4586887258213212, 0.4570419024991196, 0.455219479778009, 0.45353498701476985, 0.4518130157787742, 0.4501280874338656, 0.44832362862900216, 0.44637383396025626, 0.44452028586700804, 0.4426284183992163, 0.4409036686402562, 0.4389116291807577, 0.43671872098927367, 0.4346985692060715, 0.43264187401078796, 0.4308107299480443, 0.42864971223249104, 0.4264685511775053, 0.42426563462297273, 0.42203957893366334, 0.41956184420283604, 0.4173149202679297, 0.4151030142597729, 0.4127701654643644, 0.4104048411537094, 0.4080529280007788, 0.40561815024977954, 0.4031149189568146, 0.40062790864094017, 0.39811018469103293, 0.3954826547105177, 0.3929150241450238, 0.39022273446261796, 0.3876003116362124, 0.38494126661290196, 0.3823780568426878, 0.37963425557740405, 0.3768659010957606, 0.3740732589824742, 0.3712566178089692, 0.36854133924512583, 0.3656618450485184, 0.3626242673917034, 0.359730150187249, 0.3568109647145297, 0.3538675012649241, 0.35090052852109355, 0.3480017423841597, 0.34497848683055504, 0.34193903192530156, 0.33868441291742846, 0.33563773152193166, 0.33263775204965534, 0.3295291445393607, 0.32640095474762393, 0.32340191470931995, 0.3202186734332544, 0.31690182348713836, 0.31371693689726105, 0.31051591681599944, 0.30719734814724226, 0.30397966993415526, 0.30083368888666684, 0.29756767115074095, 0.29429070332549223, 0.2908841189569046, 0.28760243719317097, 0.2844586610041299, 0.2811280898765346, 0.2777937370630197, 0.27433073447481515, 0.2710052315308966, 0.2678401603119824, 0.2644742538262304, 0.26111042441596655, 0.2575381743495229, 0.254204637151473, 0.2509804847567959, 0.2476136797714941, 0.24424703478397475, 0.2408470206725049, 0.2374867451642034, 0.23428562905397837, 0.2309061193226565, 0.22753728172551843, 0.22396267374369302, 0.22064128931912513, 0.21745393479108352, 0.21411218846494523, 0.21077892271466298, 0.2073976448734806, 0.20408961350859262, 0.20075393192545118, 0.19746403638824164, 0.19418048233120636, 0.19095556039474093, 0.18768156322803764, 0.1844256920124675, 0.181176420244305, 0.17794103593453892, 0.17481101018577555, 0.171593487443573, 0.16829424528807227, 0.16513066610599195, 0.16198167105174466, 0.15891629051459888, 0.15579027666012193, 0.15253159009925604, 0.14946677492802737, 0.1464145850187725, 0.14356411113314416, 0.14051788193114528, 0.13751605738207529, 0.13452205898400055, 0.13155583160659734, 0.1285318428815471, 0.12563121985526982, 0.1226620967508479, 0.1198185297706114, 0.11699361534094821, 0.11437060095748297, 0.11156395135055891, 0.10875580397230507, 0.10601827038846934, 0.1033107065287387, 0.10059905448409578, 0.09795592455619546, 0.09542637312296838, 0.09282952788296103, 0.09026664011360587, 0.08781701876844866, 0.08531125536552826, 0.08284333114132128, 0.08041254234809324, 0.0780183168482571, 0.07551809643451594, 0.07321370116657883, 0.07123808241076098, 0.06895159511682074, 0.06671138421169384, 0.0644362740636855, 0.0622941213769478, 0.06014988497434035, 0.058087854884531546, 0.05606074889990334, 0.05404031347276354, 0.052087176536044846, 0.05021341603249114, 0.04832279469440505, 0.04646952743558822, 0.0447730371518307, 0.04297958152716323, 0.04117358079024584, 0.03947506444392734, 0.03781610603702766, 0.03614541252159368, 0.03457167475778841, 0.03307981575884577, 0.03157352889532448, 0.03010695149697535, 0.028776685281455255, 0.027377244631360674, 0.026170694808358836, 0.024842020301595713, 0.02356533796306257, 0.022316167684935058, 0.021141343656210412, 0.019802358454411584, 0.01874548440695134, 0.01772121059551385, 0.016889700203772937, 0.01591342568140783, 0.014924566530950064, 0.014043433882039557, 0.013202327578577642, 0.012509286581525936, 0.011734701583641347, 0.010983590916840417, 0.010303471630377287, 0.009689465269110395, 0.009092770232147497, 0.008539877241565828, 0.008001836408564462, 0.007538618523493338, 0.007150312770253266, 0.006764269353559698, 0.006420705247530686, 0.006033981905994564, 0.005785067842595728, 0.005794517594876883, 0.005591359730507858, 0.005438104116846026, 0.005304854535794537, 0.005250741094815453, 0.00518984671906022, 0.005230167748304607, 0.005310515762076569, 0.005584163640662677, 0.005724589384748949, 0.005776705837505627, 0.006029223134314348, 0.006319607356182844, 0.006710416512178596, 0.00706872259160178, 0.007320699928203552, 0.007780118965149731, 0.008271777108972828, 0.008932891399252641, 0.009474067718238322, 0.010159537204925836, 0.010771144317399844, 0.01142934531275616, 0.012019148670596322, 0.012781128638873476, 0.013665077727710454, 0.014489689975116803, 0.015355781357003398, 0.016211489746426236, 0.017164968028100268, 0.018064212276949047, 0.01910252150741259, 0.02017225676770932, 0.021529844133615993, 0.022631923188691668, 0.023718917259636263, 0.024922119170043538, 0.026166113077519336, 0.02737620047152667, 0.02870879507814858, 0.030075877023305463, 0.031477474519237866, 0.032913605038248674, 0.034446800689147274, 0.03594410212460221, 0.037490803974943275, 0.03906220697916022, 0.04067128245895931, 0.04223793658445909, 0.043930923070975465, 0.04576940367757969, 0.047511907184874476, 0.049293094994227994, 0.05104403154939228, 0.052909111924413124, 0.05478436061217721, 0.05671815873087765, 0.05868364057349606, 0.060680998792067925, 0.06271039229109596, 0.06477763307625169, 0.06687073370880771, 0.06899648944145477, 0.07115490430451413, 0.07334596637759044, 0.07560943807916103, 0.07786067174183524, 0.08014666896174838, 0.08234768198764265, 0.08471718421104694, 0.08726716438947268, 0.08967193573071017, 0.09211354988643439, 0.09463103847607053, 0.09713911113134625, 0.09952505128011499, 0.10212641966744877, 0.10475422823780403, 0.10733517016300637, 0.11002687941967744, 0.1128049272239748, 0.11553731303425155, 0.11829879694511104, 0.12125441437935643, 0.12405379461937999, 0.1267555589554567, 0.12964853887635258, 0.13257028830539822, 0.13545269018717043, 0.1384408508843748, 0.14153940811393004, 0.14456762095537487, 0.14762679024156888, 0.15076778178373346, 0.1538815357182368, 0.15701691491497902, 0.1601974287756464, 0.1634090313431691, 0.16660579492222957, 0.16988399931735665, 0.17327475201295722, 0.1765967673480056, 0.17995087387673955, 0.18320563827820796, 0.18663843142159195, 0.19034418891174684, 0.19379163166361044, 0.1972769852562408, 0.20069063701152312, 0.20426080839955946, 0.20779031258610267, 0.211423946298243, 0.2150808277313422, 0.2188636210805777, 0.22255506327893576, 0.2261115629972126, 0.22988303094388252, 0.2336739875869881, 0.23752505396338647, 0.24135233791183242, 0.2452091862402289, 0.24908370560599055, 0.2529827628293037, 0.2568438873700175, 0.26080005437547227, 0.2649194135917194, 0.26890025213748625, 0.27291098537205893, 0.2769337084307167, 0.2810038980108574, 0.28513477116884883, 0.28925327692968256, 0.2933992494061434, 0.29742984400311995, 0.30164655068620744, 0.3059261673483045, 0.3101725573292076, 0.3144399528860431, 0.31878519572472375, 0.32308737916453156, 0.3274420690269685, 0.3317882691203017, 0.3361590539719214, 0.340451370603733, 0.34488209337181924, 0.3492500057258138, 0.3537245378495427, 0.3582117290629964, 0.3628202981966772, 0.36732117751387033, 0.3717288575282957, 0.3762845533780953, 0.38085331078437973, 0.3854355287830504, 0.390031495905906, 0.39476076703847796, 0.3993696155558994, 0.4039992162515587, 0.4087281313498194, 0.4133861824909975, 0.417896038344073, 0.42261879691323273, 0.4273514136441443, 0.4320143972559095, 0.43677697584540087, 0.4417552997524446, 0.44650267490268, 0.4512681940265781, 0.45592538026814067, 0.46073881803703043, 0.4654684434829991, 0.47030749320335224, 0.47514821099321863, 0.48001949172102665, 0.4848612394145369, 0.48984369739592515, 0.49467665632924074, 0.49952124405929327, 0.5043533679611535, 0.5092200975120157, 0.5141558634210506, 0.5190267493329207, 0.5239057699211358, 0.5286835310309209, 0.5335883781189904, 0.5384458993179296, 0.543352505176788, 0.5482540931279539, 0.5532813949750438, 0.5581563271679648, 0.5629253334058002, 0.5678167863961386, 0.5726733411424338, 0.577555150829471, 0.5824282718284765, 0.5873323379495377, 0.5921825130824667, 0.5970823971250379, 0.6019104477742323, 0.6067331955120356, 0.6113789595381206, 0.6162092338514048, 0.6209985545927169, 0.6257956016649758, 0.6305736814647309, 0.6354353588381104, 0.6401631845214156, 0.6448895117594294, 0.6495892271980427, 0.6542748383833098, 0.6590021631029377, 0.6636493249906301, 0.6681688675761532, 0.6728010940120446, 0.6774102033802133, 0.6818537049307603, 0.6864333270230343, 0.691031686761048, 0.6955406035882076, 0.7000209927750125, 0.7047284835300859, 0.7091189141676449, 0.7133807478052483, 0.7177532563361015, 0.7220997266518772, 0.7262200231603004, 0.7305360381216969, 0.734862555052049, 0.7390913157814832, 0.7432831747671829, 0.7476084538326315, 0.7517042625800678, 0.7555559026914778, 0.7596208853026737, 0.7636421037358073, 0.767716348765269, 0.7716381831436888, 0.7753569702014398, 0.7792222888515172, 0.7830382759515702, 0.7869019660029191, 0.7906081332768236, 0.7941631651687828, 0.7977959293364154, 0.8013779162872502, 0.8049262423258765, 0.8084045972290711, 0.8119921519382206, 0.8153500989460318, 0.8186662150854752, 0.8218421069696104, 0.8250816038388741, 0.8283086826417421, 0.8314380693689046, 0.8345161462031946, 0.837530552601849, 0.8405045098933098, 0.8433838711849478, 0.8462524577915883, 0.849062453239817, 0.851802067826289, 0.8544950363413618, 0.8572127238911889, 0.8597734547400977, 0.8622776647788828, 0.8646333166839602, 0.8670327824076317, 0.8694016671625618, 0.8716672927954074, 0.8738698012807838, 0.876065543638387, 0.8781331721217834, 0.8802474365360492, 0.8821777760745066, 0.8840510662880791, 0.885774720897614, 0.8875406589561908, 0.8891945416279877, 0.890832618392224, 0.892400706377677, 0.8938249035778162, 0.8952623177079712, 0.8966653209035589, 0.8979498563633186, 0.8991634474540294, 0.9002607005637221, 0.901338366439472, 0.9024507046022341, 0.9033684492614764, 0.9042196422345324, 0.9050377978773589, 0.9057498692850299, 0.9063843543534852, 0.906964745221358, 0.9074770043057522, 0.9079377625596365, 0.9083104018920208, 0.9084556345530361, 0.9087115136862265, 0.9088895167671319, 0.9090475146755931, 0.9090655676603265, 0.9090174178925154, 0.9088912829330287, 0.9086941765264286, 0.9083126532567385, 0.9079886869148969, 0.9076051305430887, 0.9071268765980256, 0.9065751348749309, 0.9059961896239225, 0.9052940897730133, 0.9045687687648355, 0.9037238025746115, 0.9028132403473874, 0.9018369975454579, 0.9007950434603259, 0.8996362417446024, 0.898469444155065, 0.8972342708768436, 0.8959881352851747, 0.8946107325285972, 0.8929993162333517, 0.8915165928790304, 0.8899610640749833, 0.8883456767939739, 0.8866477154754772, 0.8850240781690506, 0.8831737589419457, 0.8812658988194901, 0.8793344955713736, 0.8773070104987376, 0.87521815676079, 0.8730798919059162, 0.8708854718902699, 0.86856112551056, 0.8662641901013894, 0.8639757780647692, 0.8615517997740263, 0.8590738636794273, 0.8564627864461865, 0.8538882441036544, 0.8512566508574417, 0.8485692208633449, 0.8458271397348538, 0.8429178857631398, 0.8400843354695996, 0.8372215927380696, 0.8342712395152783, 0.8312687738664222, 0.8282896359627131, 0.8251781696033527, 0.8219151687529455, 0.8187310420613402, 0.8154988560744999, 0.8122714388726623, 0.8089415933484492, 0.8054974307760682, 0.8020971104605542, 0.7986542696842236, 0.795221673400978, 0.7916920692831676, 0.7880535205953263, 0.7844641451837592, 0.7808375447978994, 0.7773628731379086, 0.7736427677108949, 0.7699857510695678, 0.7662103980868515, 0.7624175529176204, 0.758453203256147, 0.7546433546146762, 0.7507040450045988, 0.7468540764762115, 0.7429736889999146, 0.7391956665758784, 0.7352439530342836, 0.7313091004472997, 0.7273192956220762, 0.7233156294119454, 0.7191394792914338, 0.715129886743703, 0.7111788950209282, 0.7071193034125365, 0.7030471285470953, 0.6989010219338797, 0.6948151089027429, 0.690790505370495, 0.686671739435666, 0.682547783190077, 0.6782433607215641, 0.6741341130758353, 0.6701660959533671, 0.6660153511549752, 0.6618655895462869, 0.657632387797888, 0.6534979042406918, 0.6493451286345843, 0.6452118882261032, 0.6411818236587554, 0.6370389320412084, 0.63290568852485, 0.6287087886636403, 0.6246059880889816, 0.620345722498368, 0.616279792328177, 0.6122144961100123, 0.6082830781222334, 0.60420984280712, 0.6001003504138952, 0.5960642784647893, 0.5920420027922692, 0.588040469258196, 0.5840487820189155, 0.5800634214755713, 0.5761095841794244, 0.5721748018281982, 0.5682544137155983, 0.5643614793186148, 0.5605640966483096, 0.5567060660239401, 0.5528756569794657, 0.5490390170488471, 0.5452689568209165, 0.5414288373713402, 0.5377247602739156, 0.534043069629093, 0.5304647245461523, 0.5268217837249662, 0.5233232131241549, 0.5197277256003391, 0.5161702071672966, 0.512513773783749, 0.5090481562792113, 0.5056970369497354, 0.5022800401392765, 0.4988988623000763, 0.4954740554860884, 0.4921749997049213, 0.4889077816940198, 0.48567325667213207, 0.4824722198391885, 0.4792428847090608, 0.4761188927008678, 0.4730269392475368, 0.46996811455128673, 0.4669434014869866, 0.46395936815161737, 0.46100472050293334, 0.45808120508150924, 0.45520149447869807, 0.4523593867520475, 0.44949286118248916, 0.4467353158340623, 0.44403593170833766, 0.44134719446532766, 0.43869671250103653, 0.4361303948010216, 0.43355191145371386, 0.4311005991462051, 0.4285950304613921, 0.4261358998871579, 0.42372806537844854, 0.42135869056222736, 0.4190167638075353, 0.41673787970368414, 0.41450126593118247, 0.4122496634429843, 0.41010355153426453, 0.4078702954710709, 0.4058159165874224, 0.40379260301384506, 0.40186959703295544, 0.3999027262742299, 0.3980017949196141, 0.39610640687080895, 0.3942501540449891, 0.3923474779507107, 0.3905793660446437, 0.3889810756371451, 0.38726285464372834, 0.38558625842170013, 0.3838821210217899, 0.38229458040937225, 0.38079327319697626, 0.37926914751759166, 0.37778239789057555, 0.37619017874349686, 0.37479394253772025, 0.373572730674454, 0.37221274211665273, 0.3708890747924565, 0.36948138983455747, 0.368242581371453, 0.3672181736777732, 0.3660093979304554, 0.36483808303002435, 0.363588967366345, 0.36250232247396524, 0.36136845356327624, 0.3603441289822351, 0.35934157106970427, 0.3582870549835786, 0.3573377761479937, 0.3564631640760608, 0.3555428298963923, 0.35464432034618276, 0.35375600207847063, 0.35290171661000563, 0.35207899576659146, 0.35126330993258165, 0.3504676868231916, 0.3496063035650315, 0.34885986540741554, 0.34825764881831545, 0.3475216803860143, 0.3468064767148273, 0.3460539626447335, 0.34538381542686064, 0.34467082325164067, 0.3440351952979326, 0.3434090303112929, 0.34280913376805666, 0.34219892379101163, 0.34163228310699006, 0.3410361072524659, 0.3404501091772206, 0.3397710525606998, 0.33921558688834164, 0.33871865410150365, 0.33815930905134794, 0.33760460033872486, 0.33720160595190973, 0.33663534131910927, 0.33597752110433704, 0.3354437734969729, 0.3349113097214306, 0.334419072071813, 0.33388162031138424, 0.3333508735736048, 0.33281362174688506, 0.3322755170161305, 0.3317013888610243, 0.3311627441010325, 0.3306637575003885, 0.33010708424431184, 0.329545855447124, 0.3290472784425305, 0.32846536092534573, 0.3278343905349505, 0.32724965785113963, 0.32665609297087816, 0.3259448668196223, 0.3253448440563255, 0.3247048279686815, 0.32407332475692613, 0.3234235315536772, 0.32278406933585596, 0.32209462181935083, 0.3213320016198986, 0.32061682858787033, 0.31988160580954766, 0.3191492220145298, 0.3183714034526214, 0.3175579894950671, 0.31674500162422203, 0.3159120045663088, 0.31509862855215165, 0.31422006856411416, 0.3134481988796825, 0.31251653272479935, 0.3115723931985959, 0.3104948714775744, 0.309536394050786, 0.3083953813853214, 0.30741007988862173, 0.30639208336038987, 0.30547320302658626, 0.3043763538381358, 0.30311480248459494, 0.30199030913465874, 0.3008344315265222, 0.2999150839446015, 0.2986648189383088, 0.29749671895218205, 0.29620359251368117, 0.2948981799984464, 0.29337939969400156, 0.29206840666795264, 0.29067143916451565, 0.28930951551872414, 0.28791555777180466, 0.28658678547938893, 0.2851182491389387, 0.28349395792680826, 0.28199155891501965, 0.2804561531004939, 0.27892833254319754, 0.277324208596551, 0.2755948493586279, 0.2739459920174819, 0.27228065993189776, 0.27056359573443484, 0.26881586004753033, 0.267094956402316, 0.2652806108151439, 0.2636111013674761, 0.2617238510712922, 0.25982055844196655, 0.2578032832998395, 0.25587637922113293, 0.2538507289023855, 0.25188344101391696, 0.24988715667407704, 0.24798190318691155, 0.2459144828430053, 0.24364475972225166, 0.24155912765270762, 0.2394421989384438, 0.2374202844877082, 0.2352286329172654, 0.23283430323276058, 0.23062406228180923, 0.22838285185359034, 0.22621453656304616, 0.2239029672913068, 0.2215533780872468, 0.21920239340184838, 0.21683021764626892, 0.2144714695101491, 0.21205413274126408, 0.20956219568644044, 0.20711674749192288, 0.20465082166329837, 0.2021992609171839, 0.1996902534057478, 0.19719323566809535, 0.1946481636376497, 0.19208905345383115, 0.18961273030923276, 0.18701395694854359, 0.18425949865103466, 0.18166315813619235, 0.17904984347090444, 0.1765740078967645, 0.17391024873177352, 0.17121822751598595, 0.16854593743631274, 0.16586626295767562, 0.1631679045084599, 0.16047518520860277, 0.15767825348707548, 0.1549829650552013, 0.15227547455825008, 0.1496138666917807, 0.14687845681029094, 0.14423422333249789, 0.14147631380742945, 0.13871963613411042, 0.1359754303456362, 0.13321950063242247, 0.13045399593683163, 0.12770315804842777, 0.12495369946232034, 0.122188893988481, 0.11944538716336614, 0.11675460737208276, 0.11400839215305864, 0.11126788058157758, 0.10861290187413462, 0.10587455902552145, 0.10320986248163332, 0.10048565032215731, 0.09777578287283645, 0.09495474043792321, 0.0922881278995377, 0.08966200795612053, 0.08700483023128797, 0.0843578855301403, 0.08165363796579922, 0.07903782406223063, 0.07656691072938313, 0.0739520828989089, 0.07135587570235405, 0.06883519108267729, 0.06626930578588926, 0.06365744917944836, 0.06114449372321317, 0.05864972148610985, 0.056315828237988266, 0.05384125590895163, 0.05147994329979751, 0.04905009124564031, 0.04665218395949127, 0.044256909037086366, 0.04192401497878558, 0.03960802204656211, 0.037332992963581155, 0.03508548903968243, 0.03285433999862904, 0.03066399490917706, 0.028580929755511745, 0.026436418566473666, 0.02432509453791301, 0.02213887848924147, 0.020107444041352666, 0.01816571503561343, 0.016181794698973753, 0.014230641878382673, 0.012420732100626991, 0.010522915953714511, 0.008574482766285476, 0.006768490462106967, 0.004997175781110045, 0.003318000225294254, 0.0016107156717786978, 0.0