0.07745814466567269, 0.07715103093249734, 0.0768584948476724, 0.07656647194033682, 0.07629862479970234, 0.07606116879221064, 0.07580611312637515, 0.07555834513227074, 0.07523087507564868, 0.07500538391493947, 0.07484542858511595, 0.07461088855672716, 0.07437976977338001, 0.07413166226217778, 0.07390868794235328, 0.07368695842967339, 0.07346643367163087, 0.07324711422645153, 0.07298709306234773, 0.07277562230114801, 0.07255120827031111, 0.07233977947738415, 0.07212758564679679, 0.07201098755984027, 0.07178658526457851, 0.07155419182779414, 0.07134315907161033, 0.07113664309553623, 0.07086060616137563, 0.07067208698307101, 0.07052157629427885, 0.07032893564843015, 0.07013954718425382, 0.06996954596422192, 0.06978510963674611, 0.06962525605083889, 0.06944753328709105, 0.06927559057554124, 0.06903341288494108, 0.06888229651391897, 0.0687324251703905, 0.06858436589801796, 0.06843862978261199, 0.06830766046068347, 0.06816638961642432, 0.06801338232088808, 0.0678828523641431, 0.06775612003494234, 0.06767944575716309, 0.06755543786941327, 0.06743069018931995, 0.06732205469863821, 0.06721996981673897, 0.06716634830739952, 0.06707198407212854, 0.0669465231008354, 0.06687457028910616, 0.06680860348210547, 0.06666881490324003, 0.06662516959385054, 0.06665917395022554, 0.06661017020335495, 0.06656856057719411, 0.06648837927280897, 0.06646729124556819, 0.0664110231850836, 0.06640488982838051, 0.06640199165583666, 0.06643091638232752, 0.06643276276498798, 0.06641113322017932, 0.06642994770820647, 0.06645397070260856, 0.06649559952715509, 0.06652971891454873, 0.06655085257201958, 0.06660166215750732, 0.06665869917777328, 0.06672627025736487, 0.06679615734918144, 0.06690528423580704, 0.06698588222506237, 0.067075904154978, 0.06719521060635458, 0.06730123564431192, 0.06743749017778802, 0.06756127767379994, 0.06769602413489148, 0.06778348677212846, 0.06794655466008034, 0.0681884033534574, 0.06835641344334502, 0.06853586364168979, 0.0686525092115847, 0.06886319706470159, 0.06905832315564876, 0.0692849963796512, 0.06951759234990967, 0.06986046854396351, 0.07009322877589316, 0.0702292440277677, 0.07050162634030732, 0.07078006344839649, 0.07111302104576635, 0.07139904505364243, 0.07165130336873067, 0.07196322061492508, 0.07228283046782115, 0.07265042991839857, 0.07298139008398871, 0.07329526182466212, 0.07365142419627796, 0.07401674128799299, 0.07438937926185203, 0.07477372810105055, 0.07523146235076654, 0.07562680078615075, 0.07603542963556656, 0.07641498381334477, 0.07685427751847186, 0.07736929201918939, 0.07781992386954863, 0.07828415739748738, 0.07869958523675435, 0.0791974328531071, 0.0797540352178682, 0.08026338413803512, 0.08078467512533596, 0.08128967670273803, 0.08183761062661458, 0.08238521731414844, 0.08295377530779015, 0.08353151339752729, 0.08410456365143627, 0.08470275231676007, 0.08532960092992663, 0.08594281951683912, 0.08656617969393349, 0.08715371173083421, 0.08780306060770157, 0.08849781060662204, 0.089157592862818, 0.08982755760698281, 0.09051561810863654, 0.09120470692689749, 0.091876227080337, 0.09258948616185263, 0.09331127153888169, 0.09407362103858528, 0.09480863910905053, 0.09555414972783634, 0.096309909344249, 0.09707568725192134, 0.09778535472242204, 0.0985788539354714, 0.09935407483346469, 0.100162317013925, 0.10097551342158126, 0.10186597864025841, 0.1026811600588679, 0.1034344579629141, 0.10427840152976116, 0.10512761713933344, 0.10600232451462314, 0.10686024312697104, 0.10777306362428415, 0.10863878824520959, 0.10951401086318373, 0.1103343237158915, 0.11123516619501159, 0.11212254518559371, 0.1130347842039438, 0.11395068524072069, 0.11495230148484893, 0.11586561928941068, 0.11681151056469886, 0.11773837990357072, 0.11867398339397806, 0.11958163229220799, 0.12053709567458859, 0.12148924845695815, 0.12245479474353686, 0.1234240117526548, 0.12435275637096593, 0.12533425801765147, 0.1263103568289534, 0.12729393792330626, 0.12827801365406227, 0.12927666894566667, 0.1302602346872337, 0.1313251542395174, 0.13230141856947278, 0.13328335617651557, 0.13427016248245574, 0.13526109801631953, 0.13622152889822461, 0.13722302703088837, 0.13822486082529256, 0.1392587222148313, 0.1402563993035531, 0.14126341540576948, 0.1422622732481075, 0.14325795112084078, 0.1442584350148264, 0.14525852856158714, 0.14615196830988664, 0.1471634611334226, 0.14820341360534936, 0.1491958829760379, 0.15018379664182174, 0.1511192635352249, 0.1521042166179528, 0.15310390989347447, 0.1540719483137808, 0.15503455778667402, 0.15598175135586254, 0.1569347226608449, 0.1578935677253654, 0.15883277368443235, 0.15976644178851496, 0.16070635425064406, 0.16162680842336546, 0.16251177940498152, 0.16342462418783907, 0.16432956544853328, 0.1652724312075238, 0.16615540166109544, 0.1670585999625635, 0.16792625887770268, 0.16878855292960027, 0.1695808558706111, 0.1704384065900566, 0.1713129649087057, 0.17214500439692218, 0.17296749613147355, 0.17379207980218037, 0.17459293604759174, 0.17539988333720893, 0.17617852471163742, 0.17694735248270366, 0.17767189907675976, 0.1784238810021915, 0.17911875255092494, 0.1798497926293084, 0.18056487406903884, 0.18129213622129103, 0.1819722466478396, 0.18262037557420782, 0.18327455910862847, 0.18391334390603195, 0.18460457655254625, 0.1852037738571642, 0.18574919145865929, 0.18632934695096842, 0.18689402268005345, 0.18740703390234678, 0.18794459408085748, 0.18856781534386607, 0.18905591222179433, 0.1895317287638725, 0.18990455169278578, 0.19036473791789896, 0.19087521866277232, 0.19128744633989495, 0.19168415387973597, 0.19198892402017223, 0.1923626672505548, 0.19275913680217463, 0.19308511036959491, 0.19339272003813718, 0.19364779343374308, 0.19392232170177098, 0.19424985337441775, 0.19447333328733354, 0.19468021116720835, 0.1948419709412702, 0.19501757150411955, 0.19519546736562, 0.19532876294179707, 0.19544327476997136, 0.19553268389705578, 0.19560943865369912, 0.19562025538644087, 0.19566263129815945, 0.19568207922775022, 0.1956888089527162, 0.1956617801039677, 0.1955650370369892, 0.1955005742200945, 0.19541176221536796, 0.19533298597617293, 0.19519242243601337, 0.19503654220797287, 0.1948526146944513, 0.19464773117198347, 0.19438988963707213, 0.19414700015913694, 0.19391518792824045, 0.19362247682250436, 0.19330921525622233, 0.19300326544409144, 0.19264508378538459, 0.19227565401328486, 0.19187770541003105, 0.19146044396670095, 0.19102160486698397, 0.1905652108667544, 0.19003478987849753, 0.18954487981275753, 0.18903161001507499, 0.1885292960357114, 0.18796607381971062, 0.18735644252812134, 0.18675563143862378, 0.186132969811995, 0.1854847200817206, 0.18481962125073587, 0.18417312941169453, 0.18346056253083548, 0.18272940566187534, 0.1819655957022782, 0.18119881192292955, 0.18037255624413276, 0.17957188916699016, 0.17874970478734087, 0.1779304335168248, 0.17706354502509092, 0.17620375404914754, 0.17529604195670154, 0.17437130984818408, 0.17346749815174864, 0.17250393680016993, 0.17147961645077847, 0.17049199200060713, 0.1694865758899871, 0.1684216869125275, 0.16738677914623024, 0.16634251126849273, 0.16526826174311574, 0.16417641632842903, 0.16304746533100475, 0.16192432195419146, 0.16080576262745333, 0.15964564046156532, 0.15847047299511013, 0.15730256076665866, 0.15609551297899824, 0.15491557851827933, 0.1536779614408769, 0.15243006434316403, 0.1511298083747587, 0.1498663021588284, 0.14854398310659953, 0.14726089076023882, 0.14596306117787075, 0.14470914398157972, 0.1433766601805236, 0.14196085030831956, 0.1406189973504059, 0.1392638803992124, 0.13789428723018407, 0.13651519702802128, 0.1352347814769201, 0.1338201126016242, 0.13240171202182247, 0.13098327511386293, 0.1295560870579744, 0.12811473586370822, 0.12668033983380414, 0.12524103546114712, 0.12373698786674417, 0.12229573142528911, 0.12090049620497725, 0.1194372873526924, 0.1179705199869566, 0.11649039159376379, 0.1150183496590701, 0.11348490237194185, 0.11201355407633158, 0.11053616100578988, 0.10901759681492867, 0.10753508124722239, 0.10607478892824601, 0.10457823470214637, 0.10307938343000916, 0.10159681685297023, 0.10009288502880219, 0.09855743200123607, 0.09705878176120929, 0.09555950925912876, 0.0940682190577461, 0.0925685012114952, 0.09109631187745353, 0.08959688954519988, 0.08810136898089298, 0.0866199409109367, 0.08513158503368581, 0.08369027733735077, 0.08220698317069218, 0.08073147268283998, 0.07921366465360515, 0.07775964108936421, 0.07629033963811258, 0.07484863390207208, 0.07346722217526697, 0.07202773327472817, 0.07059681671536622, 0.06911859110992064, 0.06771204644021997, 0.06634111039973886, 0.06494265298798718, 0.06355264359900853, 0.06217534599148319, 0.06080253634883503, 0.05938927759008976, 0.05804198320808179, 0.05670184708043068, 0.055383493590337896, 0.05405778827412001, 0.05280173172340046, 0.051488309902930955, 0.050188752257026195, 0.048843011516971735, 0.04757840841636875, 0.04631204854462671, 0.045069871831365675, 0.04383813241802836, 0.042711192886661066, 0.04148989537570583, 0.040203776637698085, 0.039026593319096047, 0.037861200287235476, 0.0367339675844391, 0.035590058099054335, 0.03446451566199314, 0.03334895556380759, 0.03224821171369007, 0.031194318369748338, 0.03011940491649625, 0.02906933471108572, 0.028026949087366887, 0.027001557815086074, 0.026052905629658382, 0.02505344261588565, 0.02413982488681638, 0.023171336272241466, 0.022225437150601116, 0.02122130060560229, 0.020328002321726362, 0.01946436042338235, 0.018600704512327294, 0.017753639714267834, 0.01696707562358422, 0.016147569502893026, 0.015409007339871501, 0.014619403409710106, 0.013851703819171203, 0.013077226847247474, 0.012354815240389446, 0.0116848333321878, 0.0109948657692654, 0.010324892952329289, 0.009774371772393644, 0.009130612329393335, 0.008445519028825786, 0.007858212734076102, 0.007289864691541209, 0.006850094442926209, 0.006305134415433545, 0.005746799964744712, 0.005254797549060336, 0.004783404019293682, 0.004422076909060551, 0.003979353316891635, 0.003601178690838424, 0.0032016614795232962, 0.002827225183737934, 0.002542766060653024, 0.0022072670005836175, 0.0018639823618048616, 0.0015839639265402816, 0.0013260802089779288, 0.0011696635408424336, 0.0009443734060966194, 0.0007403166504082329, 0.0005650469188076332, 0.00041304473626585584, 0.0002776825826468858, 0.00017117439310104747, 0.0001579037637121529, 8.467738664928238e-05, 3.628872414163426e-05, 0.0, 6.598755821671568e-07, 4.553980321809496e-05, 8.758510300920197e-05, 0.0001525086576912185, 0.00032381123245360033, 0.000422808040651758, 0.0005983838405312368, 0.0007435000722234096, 0.0009164728168014732, 0.0010863286323040604, 0.0013159115603358841, 0.0016349776851043813, 0.0019030114021152131, 0.0021976674093542067, 0.0025082097537755697, 0.002855247663721608, 0.0033023510029686516, 0.003687793443342597, 0.0041010618939166694, 0.0044434825844670844, 0.00492248376955487, 0.005505659687868949, 0.006014966643609023, 0.006549928349879989, 0.007162116778861193, 0.007740827527771022, 0.008337267006882875, 0.008972094753888821, 0.009633027905876793, 0.010359708733493069, 0.011066964094582904, 0.011801860446534388, 0.01256395996044331, 0.013352911898181366, 0.014174434362899306, 0.015015580679655997, 0.015911252333027186, 0.01680184986038999, 0.01772035047406786, 0.018610563086875944, 0.0195912039344834, 0.02062396128351401, 0.021649737686542544, 0.02270195049369545, 0.023806680456846224, 0.024908850519239984, 0.02605329516700012, 0.027210238830614034, 0.02839620490739654, 0.029591131223948262, 0.030837440794134217, 0.03212548602136672, 0.03342572180920855, 0.034754874776273044, 0.036109039501717774, 0.03749681960505929, 0.03892160789347556, 0.040366591646978894, 0.04184140350826655, 0.04330622776137937, 0.04484614924378495, 0.04643206326934386, 0.04802623650280352, 0.049650385844868236, 0.05132277499382823, 0.05300546235658844, 0.054741949963847354, 0.056485645921276695, 0.05826266906662178, 0.060116932396518344, 0.06195500744799009, 0.06375299535494859, 0.06567199200760011, 0.06762202274773836, 0.06958156469746497, 0.0715977606849149, 0.07363305244690183, 0.07571348625178996, 0.07782541624516179, 0.07996143975832572, 0.08213908711712686, 0.0844173196908034, 0.08665226909963827, 0.08892472904133485, 0.09116270648757704, 0.09351903717248064, 0.09593463226375595, 0.09835486070572433, 0.10081096082741796, 0.10326127375672509, 0.10579525822189197, 0.10841550354859449, 0.11101217404660112, 0.11364721430423273, 0.11629872710938705, 0.11901351233259197, 0.12174770567398187, 0.12453980631611916, 0.12736881834259264, 0.13025510579007082, 0.13315655926753173, 0.13609513315257765, 0.13907522143375362, 0.14209460585431205, 0.1451574372788486, 0.14825537272982825, 0.1513333642418323, 0.15451893103299635, 0.15774132405215288, 0.1610171079440886, 0.16431283106571187, 0.16760591391797508, 0.17098583155571226, 0.17437328181953046, 0.17783253374198182, 0.18132865399451853, 0.18490226023647388, 0.18846899750903584, 0.1920506454204251, 0.19570252900328267, 0.19939403229854666, 0.20311744005625068, 0.20688996689505978, 0.21072232135490715, 0.21457224171354788, 0.21846351154131588, 0.2223781201612314, 0.22635423897210605, 0.2303985056265035, 0.23445152503372366, 0.23854639550472687, 0.24268289587769507, 0.2468608065125454, 0.25106193327116655, 0.25532428049366007, 0.25962637166413916, 0.2639601409482304, 0.2683424793337089, 0.2727678174356932, 0.2772275905696133, 0.2817264262151816, 0.28626217456782954, 0.29083891116056776, 0.2954261228644824, 0.30008307667407036, 0.30477649586935884, 0.309458441917738, 0.3142307928344168, 0.3190507509092789, 0.32388883841037014, 0.32876175455962664, 0.33370342821825816, 0.33864157781850657, 0.34359425011824146, 0.34860770532215607, 0.35365549442825184, 0.3587013637159132, 0.3638214232246733, 0.36897279173234093, 0.3741553613042839, 0.37936896062202097, 0.38467128042612336, 0.3899388739530447, 0.3952079472123024, 0.40054560969487885, 0.40591324451449085, 0.4112623608579056, 0.41669430968294097, 0.4221318358840443, 0.4276171778425976, 0.4331264185033538, 0.4387292626965868, 0.4442767895392909, 0.449851320007137, 0.45545188439848927, 0.4610775246363728, 0.4667392759451577, 0.47241071596826606, 0.47806313984626053, 0.4837847098153286, 0.4895248165334077, 0.49533073373016134, 0.5010998411641465, 0.5068341769108818, 0.5126472768018143, 0.5184742581728331, 0.5243564029718422, 0.53020382522842, 0.5359475522897736, 0.5418370540382095, 0.5477318857878111, 0.5537397598437447, 0.5596310865021698, 0.5655110854785477, 0.5714251638040218, 0.5773460544001813, 0.5833066214999453, 0.5892335730968306, 0.5950621074263414, 0.6010116961533346, 0.6069581774550967, 0.6129370172939255, 0.6188712033336985, 0.6247446888436428, 0.630679640852462, 0.6366065425082718, 0.6425048401712374, 0.648416343141374, 0.6543626361572356, 0.6602453992966005, 0.6661182382204371, 0.671950036432317, 0.6778033232441764, 0.6836514645052562, 0.6894722590788174, 0.6952765078024361, 0.7011090208047545, 0.7068709661756508, 0.7124976578532111, 0.7182381114727864, 0.7239514473034597, 0.7296251263115794, 0.7352839823606281, 0.7409490631862219, 0.7465432125427351, 0.752108155926425, 0.7576227739580422, 0.763128363886348, 0.7686520401684065, 0.7740823263743986, 0.7794795417801627, 0.7847922176913371, 0.7901250176422137, 0.7954074206868127, 0.8006595983339435, 0.8058686499410402, 0.8109975901579674, 0.8161218004364827, 0.8212516020354982, 0.8262715014422634, 0.8312443913602647, 0.8361149877461359, 0.8409966148509503, 0.8458081919410725, 0.850582809856651, 0.8553006483697274, 0.8599888378188878, 0.864587043607039, 0.8691473894850615, 0.8736262327144132, 0.878046019898879, 0.8824034237683115, 0.8867013857887585, 0.8908703534334992, 0.8950492371197482, 0.8991588752962578, 0.9032625113922784, 0.9072235279672451, 0.9110608316279054, 0.9148920436190724, 0.9186497734843952, 0.922307284258621, 0.9259189935959793, 0.9295272852561822, 0.9329744052878954, 0.9363470944073107, 0.9395921532748462, 0.942818784311764, 0.945980384987906, 0.9490422707234796, 0.9520226207269463, 0.954950545639262, 0.9577615070310639, 0.96042820142282, 0.9630812465102371, 0.9656464324290659, 0.9680833658764794, 0.9704765215111217, 0.9728400976538476, 0.9750422692797655, 0.9771560419418819, 0.979120750245635, 0.9810630875310117, 0.9829374750335527, 0.9846885265362112, 0.9863467423938749, 0.9878897170608254, 0.9893637401129753, 0.9907524000209283, 0.9920342336852591, 0.9932208153169896, 0.9943218126324919, 0.9953156824396316, 0.9962518867287609, 0.9970493718236351, 0.9977526802673801, 0.9983552104637742, 0.9988691603122745, 0.9992470195528201, 0.9995733578519469, 0.9998006189025903, 0.9999767889010401, 1.0, 0.9999469813618074, 0.9997749625295644, 0.9995073249982838, 0.9990578492498221, 0.9986088967034232, 0.9980527269126596, 0.9974026509130866, 0.9966521316610735, 0.9958376998587342, 0.9948834712165332, 0.9938804424040507, 0.9927269361605727, 0.9914799198957349, 0.9901113607810261, 0.9886807250723257, 0.9871450427803831, 0.9855259263981653, 0.9838119823048777, 0.9820037438798961, 0.980101771056209, 0.9780866779074917, 0.9760015479909913, 0.9738713367727259, 0.9715949432274181, 0.9692298869937297, 0.9666927421509589, 0.9641624008782524, 0.9616101409022865, 0.9588886154069843, 0.9560817552672041, 0.953196228090653, 0.9502200157857756, 0.9471509858201743, 0.9440111365284906, 0.940789469200973, 0.9375328567601529, 0.9341445870611963, 0.930660012421461, 0.9271222672585787, 0.9235084734104132, 0.9198136111785405, 0.9160514398548302, 0.9122119410516504, 0.908304759733734, 0.9043263558452871, 0.90019808619229, 0.8960911041060567, 0.8919541737297867, 0.8877000695273075, 0.8833802956029185, 0.8789644134657985, 0.8745218908733411, 0.870034428002189, 0.8654655742395174, 0.8608383295308966, 0.8560903552142455, 0.8513591258797706, 0.8466025855662509, 0.8417548629112829, 0.8368557661613285, 0.831938957654808, 0.8269381747790556, 0.8218369607042157, 0.8167556407789811, 0.8116295145850895, 0.8064485021535227, 0.8012399545697224, 0.7960554514737124, 0.7907609971456431, 0.7854340462659153, 0.7800679413010967, 0.7746810397221193, 0.7692972547070536, 0.7638501354510938, 0.7583789958967398, 0.752871143396201, 0.7473576464359839, 0.7417814154492113, 0.736233178164704, 0.730664899435923, 0.7251004716032589, 0.7194950772205326, 0.7138825675894941, 0.708251884883636, 0.7026118021413704, 0.6969619646989256, 0.6913082705739423, 0.6856020817183583, 0.6799470059873642, 0.6742880396148293, 0.668619260529617, 0.6629596754434581, 0.6573277750116723, 0.6516703444891384, 0.6460200382857526, 0.6403565850066169, 0.6347283861296847, 0.6291051395291498, 0.6235014191121466, 0.6179119363117148, 0.6123484889065193, 0.6067916155442001, 0.6012308968113049, 0.5957189214579144, 0.5902289496056193, 0.5848066946783698, 0.5793604514092608, 0.5738939370537932, 0.568514622047127, 0.5631647608072118, 0.5578161008495169, 0.5525340055970112, 0.547290651194653, 0.5420751065313477, 0.5368961962528425, 0.5317615369247035, 0.5266599565862258, 0.521620030224775, 0.5166007071669938, 0.5116269853373878, 0.5066840669957386, 0.5018070917195463, 0.49700826934590914, 0.4922251511107555, 0.48749438748306967, 0.4827530148514, 0.4781378838338899, 0.4735783499650095, 0.46906736655240927, 0.4646110318854233, 0.46026055132468396, 0.4559109629965231, 0.4515585582827886, 0.44733994321895393, 0.44318023728622197, 0.4390906351934584, 0.43505103975356835, 0.4311062878604705, 0.42718935571998695, 0.4233389125834009, 0.41951558874789346, 0.4158048864995946, 0.4121321535983532, 0.4085576994891145, 0.40504925129976826, 0.4016297416549157, 0.39825333555957204, 0.3949608010356844, 0.39172296803053763, 0.38855688380856074, 0.38545691514737873, 0.38243613377536456, 0.37950573211537614, 0.37662780996183115, 0.37382391327235803, 0.3710721835665702, 0.3684194343423032, 0.36578384164781585, 0.36328456040542106, 0.36085565524333696, 0.35850372400081904, 0.35621653654897345, 0.3540515319657519, 0.35190282579499127, 0.3498296845349217, 0.347829862431759, 0.34590734479609875, 0.3439875924812606, 0.3422232224502251, 0.34052891247317774, 0.3389428734134995, 0.33738458273161037, 0.33584906979404294, 0.3344422103791214, 0.33310462096033266, 0.3318263439827125, 0.3306285588347535, 0.32950930813950713, 0.3284472296296017, 0.3274539274769433, 0.32658696420261324, 0.32572276119075594, 0.32487741595836206, 0.3241603677077329, 0.3235092353687092, 0.32293146102333203, 0.3224094636045554, 0.3219600433584855, 0.3215654710310888, 0.3212344225591235, 0.32100398105098527, 0.32079256877363077, 0.320556278726984, 0.3204807526715368, 0.3204608600583561, 0.3205580293043355, 0.3206400413753114, 0.32069959381050617, 0.3209053758320734, 0.3211617234702598, 0.3215399917383943, 0.32188666197482013, 0.32223812864921303, 0.3226949767969916, 0.3231991882388434, 0.32370987818951064, 0.32431100622062126, 0.3250302115778583, 0.3257053744577928, 0.3264254412308389, 0.32719891832163644, 0.3280031072204672, 0.3288144152060948, 0.3297035255249826, 0.3306287914333725, 0.33159300416264076, 0.3325864492404888, 0.33356667735208323, 0.33463008705818337, 0.3357470270948159, 0.3368613540083155, 0.33800278623196617, 0.3391580972021246, 0.34035150818565646, 0.34148368648565125, 0.34273181214223114, 0.3439954667497495, 0.3453140273923566, 0.3466018824303364, 0.3479614287000233, 0.34927258236464737, 0.35060027511518993, 0.3519248526108234, 0.3532828898480492, 0.35458160703090547, 0.35596820270578405, 0.3573585719845074, 0.35875583992402954, 0.36015058199554245, 0.3615904772387952, 0.36298102776853, 0.36437309463246587, 0.3657831685422493, 0.36717155911066285, 0.36853410663120884, 0.36992019928682435, 0.3712999544478613, 0.3726261220002397, 0.3739950790161414, 0.3754251061244466, 0.3767581487369376, 0.37808064749189907, 0.3793490891676093, 0.3806511403158678, 0.38191775260371885, 0.3831860571202664, 0.3844337053804006, 0.38566374713719076, 0.3868667299819256, 0.3880264366162612, 0.389184329671818, 0.3903157827283931, 0.3914119617554414, 0.39248899425042794, 0.39357251105135505, 0.39458524978518866, 0.39556889574895, 0.39649835610852513, 0.3974235001567921, 0.3982889566629192, 0.3991490952020961, 0.3999723756997404, 0.4007641708594161, 0.401511104673815, 0.40225356958214076, 0.40291866408565347, 0.40354584012328604, 0.40412414376156014, 0.4046738838456725, 0.40516239258565195, 0.4056313739220157, 0.4060564713201012, 0.40639319641729976, 0.40673444352807103, 0.4070876394096372, 0.4073252092379477, 0.40751781552039773, 0.4076268117040972, 0.4077322338087597, 0.4078105589367831, 0.40781479703629625, 0.4077706566633171, 0.4077116462568869, 0.40756514989385384, 0.40729703313217985, 0.4070638038072402, 0.40677750315977396, 0.4065101158508194, 0.4061088154002685, 0.4056027598315333, 0.4051103331740264, 0.40456493705486996, 0.403942650767888, 0.4032944886649836, 0.4026740517763747, 0.4019074691661828, 0.40109182113709224, 0.400192730685983, 0.3992820495118494, 0.3982953823940313, 0.3972837570222579, 0.39621892341221626, 0.3951710991684623, 0.3939919568234367, 0.39273253089311994, 0.3914605456275505, 0.39013806271110774, 0.3887632676577759, 0.387340627789662, 0.3858460677613673, 0.38432661172465077, 0.38275661714614306, 0.38110666985351005, 0.3794410268518776, 0.37778074297915254, 0.37600771146850237, 0.37418885516283396, 0.37232449954841185, 0.3704150137264524, 0.3684008904765401, 0.3664099898093528, 0.36437194162908815, 0.3623616465825169, 0.36022294051278086, 0.35798025396057676, 0.3557698326602237, 0.35351649605616914, 0.3511912523871808, 0.34885876055582343, 0.3465104994333276, 0.34409243261348155, 0.34163640318472516, 0.33915529355417035, 0.3366245195777244, 0.33407313190111676, 0.3314722057474505, 0.3288390937867092, 0.32611460065812126, 0.3234268878561108, 0.3208037422944873, 0.3180383444350605, 0.31524767509969404, 0.31235826767525665, 0.3095277641765387, 0.30667133908640487, 0.303785964366819, 0.3008752007642397, 0.2979981337740436, 0.2950327515208622, 0.29201273804612626, 0.28901520476573056, 0.2859983521264406, 0.28291928821003326, 0.2798724997213208, 0.2768170680068624, 0.2737331708948523, 0.2706339900974261, 0.2675826958802711, 0.26444886287420705, 0.2612470031103758, 0.2581052225526979, 0.25495340483422013, 0.2518267644911256, 0.24865433954445687, 0.24547350292666537, 0.24229367146989725, 0.23911105961010606, 0.23585874443432797, 0.2326821158408116, 0.22959174364621765, 0.2263980593158255, 0.22320883067380765, 0.21993088982731743, 0.2167645857709433, 0.2136655902770592, 0.2104953038133257, 0.2073331508307728, 0.20417203164486478, 0.2010298308291735, 0.1978780303209044, 0.19476007034386555, 0.19165329650834934, 0.1885448465038515, 0.18546554101290094, 0.18242387984530825, 0.1793700525075903, 0.17633351798485974, 0.1732652339174141, 0.17027225570225052, 0.16731837641070707, 0.1643581398384053, 0.16141872716773686, 0.15858499110724095, 0.15567949492542635, 0.15276439955917995, 0.14992060785975514, 0.1471035117762323, 0.14426979513107843, 0.1415135222828323, 0.13881532194101276, 0.13610823042547812, 0.13343098236892248, 0.13082017466933693, 0.12819999981491728, 0.12561959371193143, 0.12306654746907343, 0.12054830438095261, 0.1180012829582932, 0.11556174137126456, 0.11320240558386914, 0.11082224676230784, 0.10847879665915501, 0.10612852736081987, 0.1038652853177845, 0.10166947530527207, 0.09947390384798255, 0.09730109206666249, 0.09518542142920258, 0.09310838929044814, 0.09107649423605697, 0.08907747138382577, 0.08704695153599108, 0.08513819633632894, 0.08326652432639946, 0.0814568032631504, 0.07965887504794786, 0.07791777891161607, 0.07619998397611064, 0.07452477960096036, 0.07288040055867463, 0.07129251841373162, 0.06981103576859292, 0.0683002794335178, 0.066836023586639, 0.06531405662291222, 0.06395489946692695, 0.06272331512571283, 0.061432991711926024, 0.060188322987596736, 0.05895504190676341, 0.05780504872667768, 0.0567518299663062, 0.055680710375878795, 0.05465542773904169, 0.05357562726136159, 0.05265319634665779, 0.051839505341657, 0.05098629078886338, 0.05017651734874888, 0.04935392260390735, 0.04863708251490786, 0.04803341954717065, 0.047385895785391756, 0.04678194182567261, 0.04616103153897551, 0.04564998863789023, 0.045227319381836634, 0.04478677574424654, 0.04438728465000743, 0.044036269952438485, 0.043716187165797726, 0.04345790395291242, 0.04321409428583833, 0.04301014138324995, 0.04274541778046278, 0.04263153848774888, 0.04257566246211362, 0.042522689708111745, 0.04250335362967943, 0.04249942383514725, 0.042548824879656263, 0.04262796362808526, 0.04274085506953623, 0.04288485271411872, 0.04313154091212111, 0.0433276641173588, 0.043473960487016745, 0.04374778431789582, 0.04404895283933667, 0.04443510883384193, 0.044782756606259334, 0.04515601449719396, 0.04556248494193396, 0.04599656977875953, 0.04641350254874339, 0.04690590061914483, 0.047482909141522055, 0.04801242271728347, 0.048567174957908306, 0.04908024142543296, 0.049690790441114185, 0.050373851141332145, 0.05101435437384402, 0.051675628867397946, 0.05228885477341686, 0.05299753691546903, 0.053782409985979066, 0.0545115013584221, 0.05525766115876278, 0.0559620560499834, 0.05674695563124615, 0.05754498613044681, 0.0583515050978686, 0.05916843593437132, 0.059971318552096885, 0.0608105917635747, 0.061685320411614446, 0.06253565918163165, 0.06339424128169999, 0.06424439028189252, 0.0651193759065676, 0.06601556840244986, 0.06689840244483887, 0.06778616473127752, 0.06871804749509207, 0.06960836001190429, 0.07045166443533485, 0.07135732003313683, 0.07226289960864611, 0.07314587362601449, 0.07405238632399327, 0.07505174132939177, 0.0759396655988489, 0.0768290848658535, 0.07770877440185496, 0.07859880609659074, 0.0794323507934425, 0.08032312803869478, 0.08120646572375606, 0.0820899293503497, 0.08295609494138993, 0.08386389525748908, 0.08470663645476, 0.08554284901505022, 0.08634165960305105, 0.08716591262936853, 0.08792743997839256, 0.08873613911582419, 0.08953008842537172, 0.0903531437039886, 0.09111174675248031, 0.09184971114116877, 0.09258348298823081, 0.0933030905140667, 0.09406401403657756, 0.0947469033143347, 0.09531360971412475, 0.09598411515739123, 0.09663480486471147, 0.09733767765703516, 0.0979398910035745, 0.0985264811616374, 0.09909684330813194, 0.0996504133101092, 0.10013873118782611, 0.10066323544174742, 0.1012027353216603, 0.1016807449565144, 0.10213972087684615, 0.10256532164632576, 0.10298693973249107, 0.1033957173689712, 0.10377448728691038, 0.10413252524531595, 0.104493570464895, 0.1048064475642486, 0.1050933126674499, 0.10536653600556792, 0.10561870111327368, 0.10584756547749284, 0.10605715998559673, 0.10623494789486357, 0.10640201780207668, 0.10654643649782612, 0.10665020667622173, 0.10675154011110008, 0.10688709951807542, 0.10693387572965857, 0.10696051066941793, 0.10696068985576065, 0.10694688608359765, 0.1068438891396402, 0.10679597425614915, 0.10672275086063009, 0.10664268679475233, 0.10651801512758062, 0.10633646372661514, 0.10617048382822869, 0.10598016889054349, 0.10583593590912875, 0.10558961504650673, 0.10528636760759423, 0.10500674084287381, 0.10470575841048962, 0.10435370775340205, 0.10401454162026363, 0.1036930263853715, 0.10330471452441405, 0.10289731015817728, 0.10248291986834042, 0.10203620501200136, 0.10158148611594195, 0.10109761349063992, 0.10059651172685398, 0.10000434522539255, 0.0994783522662593, 0.0989672253260678, 0.09839527312281279, 0.09780571866780526, 0.09715699925509605, 0.0965386814096366, 0.09595147620408279, 0.09528992477893312, 0.09461375010306916, 0.09393517471188036, 0.09322897348215956, 0.09249161631615262, 0.09176151994791898, 0.09098369449691913, 0.09023072855057296, 0.08946286395156705, 0.08869874674597994, 0.08790079480141226, 0.0871487998976267, 0.08632004507970999, 0.08548346858860914, 0.08459710460229229, 0.08375017322458495, 0.08288516959784047, 0.08201954824394961, 0.08114432774997749, 0.08029199402483274, 0.07939511619154817, 0.07846803104050865, 0.07756195294130071, 0.07664881485661314, 0.07569315686940058, 0.07477191221832274, 0.07383506114107491, 0.07290035959100809, 0.07195908810347618, 0.07105194759327693, 0.07009471240053408, 0.06912331397347347, 0.06816355715000318, 0.06720160241823388, 0.066195943368854, 0.06523619820128697, 0.0642751904534354, 0.06330943065482685, 0.062341991441968614, 0.06144342878684269, 0.06046571235687014, 0.059420188793190144, 0.05845974114211717, 0.05749937412339784, 0.05661163618875409, 0.05564424380960974, 0.054626875942867976, 0.053678414443325426, 0.05273273464938045, 0.05183427118940154, 0.05089006272436172, 0.04989460297811448, 0.048971136462817054, 0.04805127567489887, 0.047203522157873566, 0.04628403433815311, 0.045355663165322246, 0.04445657692446683, 0.04356550212217671, 0.04269058947980692, 0.04181502462202206, 0.04088652392161043, 0.040036872665237526, 0.03919299452868781, 0.03839548547823837, 0.037560003851331104, 0.03678027475689518, 0.035958802504232314, 0.03515009533124384, 0.03427008332426847, 0.03349699972331965, 0.032813429863526526, 0.03204585009417882, 0.031291647400333786, 0.030460787838095877, 0.02974426534992139, 0.029037701675723775, 0.02833750728895204, 0.027646634790463236, 0.027023517762220853, 0.026345451372856547, 0.02561742666914531, 0.024975245789303206, 0.02434324142981547, 0.023763794920794307, 0.023148104968206323, 0.022520144339286747, 0.021935080582999367, 0.021362166525755347, 0.02088545280091394, 0.020326704329682203, 0.01968936742023761, 0.019176718579548183, 0.01867486994538394, 0.0182799977982194, 0.01778850749295752, 0.017226110369469274, 0.01677908721420378, 0.01634298737126888, 0.015938014554439116, 0.015521889537447686, 0.015106401443730825, 0.014716991599147194, 0.014339436205234486, 0.013971770430094952, 0.013618250902817252, 0.013276504111502618, 0.012946514670721148, 0.012628246755252174, 0.01236159063379348, 0.01206153352729147, 0.01177522437955707, 0.011502238776740987, 0.011242178254794089, 0.01098867564926067, 0.010754117010382768, 0.010535074141652806, 0.010322779747501646, 0.010121692000264294, 0.009885582764404792, 0.00971185128819289, 0.009531918895823221, 0.009375614982525884, 0.00922646558382954, 0.009150513815199574, 0.009007693320439733, 0.008858012063439105, 0.00873916520783528, 0.008629397277829423, 0.00860227887537707, 0.008500348332397769, 0.008286848670308246, 0.008224189339742833, 0.00816510536787561, 0.008153771517080985, 0.008096927075274077, 0.008110563350041232, 0.008058490125696953, 0.00801600009182679, 0.007990280006867615, 0.007963601917908503, 0.007890803931394623, 0.007885858541500196, 0.007884351396894217, 0.00785216641594728, 0.007861329053751222, 0.007883486468864288, 0.007893234802909207, 0.007904780348904806, 0.008019882571718004, 0.008021819506892364, 0.007929042010741748, 0.007957166174876532, 0.007984838777783403, 0.008059990714542295, 0.008080657491203052, 0.008127425591822697, 0.008148853589498349, 0.008172830840221232, 0.008260648502834068, 0.008280069310583794, 0.008341719817798196, 0.008363906585424248, 0.008390600441421103, 0.00840669721582874, 0.008440918428188676, 0.008473830509373477, 0.00850898365857539, 0.008543389809995458, 0.008574504887280902, 0.008606083763303312, 0.008697236127821702, 0.008715920760370163, 0.008735009304618636, 0.008787644322437874, 0.008800906968157652, 0.008760385802115632, 0.008779913648570914, 0.00879498260280124, 0.008901245853502559, 0.008894657520634331, 0.0088844273169734, 0.008878133722969635, 0.008870250842552352, 0.008963967727487289, 0.008937858800772499, 0.008908248106263342, 0.008886611367935438, 0.008864764361910265, 0.008809850402161059, 0.008789049564546644, 0.008883749657750524, 0.008838831510925767, 0.00879576984189961, 0.008749423069830072, 0.008707304822112523, 0.008709797217579609, 0.008658553740775836, 0.008607348189651328, 0.008505434044247338, 0.008458309111237908, 0.008452308165083413, 0.008389704734579478, 0.008324824159503088, 0.008371184244745953, 0.008286460881147184, 0.008157175685315642, 0.008084235931557646, 0.00806802615767781, 0.007985069665840594, 0.007903636556076381, 0.007875044737256736, 0.007788388680019584, 0.007754639604202348, 0.0076669378026432596, 0.007583788479183156, 0.007488398192417417, 0.0074140910167316805, 0.007379413588674404, 0.007303424840084148, 0.007230852706866965, 0.007217256389671353, 0.007143471689023264, 0.007017566589016493, 0.006962202983297779, 0.006908521480672834, 0.006882708257199755, 0.00682982418783145, 0.006828823544851925, 0.006777922911820466, 0.006734010995069856, 0.006736903062057648, 0.0067016219389379, 0.006711401763581691, 0.006689594968128767, 0.006678619264455536, 0.006722123181919593, 0.006726500585756289, 0.006741650444497885, 0.006771496827510228, 0.006813483216295409, 0.0068176141145431125, 0.006890100651214041, 0.007017956794569799, 0.007104104417421264, 0.0072034893558487086, 0.007322373045407034, 0.007448342907249098, 0.007626812643815606, 0.007777466490155806, 0.007945603596444785, 0.008097429583527193, 0.008305375665480709, 0.008529586387006613, 0.008770687930176055, 0.009029322829994118, 0.009276188317228849, 0.009575656675242768, 0.00999483538807575, 0.01031804968898725, 0.010666654234891187, 0.010988778580057895, 0.011394983764095881, 0.011824071254860636, 0.012276732307250763, 0.01275366317935049, 0.013229599404406737, 0.01376045435670017, 0.014366158235344898, 0.014941447571753686, 0.01554625496807057, 0.016181040619993772, 0.016846291829082614, 0.017606431924787246, 0.01832608856022606, 0.01908139268531884, 0.019840442064617467, 0.0206713206267104, 0.021556411964975288, 0.022453765525670466, 0.023387542838750136, 0.024280253192404566, 0.025297969181845906, 0.02638499872059799, 0.027466018960516397, 0.02858461295877073, 0.029763480818117857, 0.030956625005234308, 0.03210884775475146, 0.03339479853183527, 0.034718172737884564, 0.03606818523559922, 0.03747144104167022, 0.038990717987154866, 0.04046571525056826, 0.04198719972571722, 0.04350558169201103, 0.045127394958046366, 0.046736044628408975, 0.04845547929136277, 0.05021794893533856, 0.0521204935196625, 0.05396033494282401, 0.05582387590230763, 0.05777072156782484, 0.059767977564812884, 0.0618180593948172, 0.0639171291387869, 0.06600004185878207, 0.06821157043199741, 0.07047177724694884, 0.07284747475749385, 0.07519933773185522, 0.07753416303213395, 0.08000500528499094, 0.08252700471993597, 0.08509691611961849, 0.08772391335128044, 0.09040988014106503, 0.09314266401485059, 0.09592988045334457, 0.09878593767014265, 0.10168148970426906, 0.1045675023133511, 0.10758431833056527, 0.1106541646833271, 0.11373577566246054, 0.11691892852009174, 0.12026238547958837, 0.12353758085332164, 0.12687272023445584, 0.13015965027757406, 0.1336274247838912, 0.1372261234337171, 0.14079071764096532, 0.14441382677917855, 0.14803132855326073, 0.15177891179847144, 0.15558077408357326, 0.15943719891518446, 0.16334839777671853, 0.1673025320184235, 0.17132516693352903, 0.17541414071190528, 0.17954404023841292, 0.18372904437224796, 0.18797699660136277, 0.19227072251215233, 0.19658549171451273, 0.20099317878606343, 0.20545328096119067, 0.209995653796316, 0.21455643072003613, 0.21913287692513114, 0.22380517986038442, 0.22852794092473094, 0.23329093875924162, 0.2381151186200999, 0.2429943219689513, 0.24791549933545726, 0.2528853733573725, 0.25794542445520585, 0.2630059620000157, 0.2680261671050418, 0.27319624045763835, 0.27840898960074184, 0.28367621678088745, 0.28897217169683476, 0.2943386389077333, 0.29971564186154204, 0.30513567256030966, 0.3105759104810119, 0.3160822018399189, 0.3215697549578085, 0.3271609999782797, 0.33278666822999164, 0.3384763711564805, 0.34416596235856634, 0.34989234026029853, 0.3556504115486209, 0.3614416495859441, 0.36728508325730436, 0.37313726448616985, 0.37905475573391384, 0.3849641581762557, 0.3909044168344934, 0.39683409958247645, 0.40283668601366296, 0.4088794785318111, 0.41492740323138083, 0.4209982341535756, 0.4270447631233275, 0.4331633951915341, 0.4392665689617311, 0.4454213171430994, 0.4515888772973945, 0.45784837506486004, 0.46402908837795537, 0.47020660582205503, 0.47641753398417763, 0.4826390209795206, 0.48876977247014375, 0.49502070629245126, 0.50130624652859, 0.5075535577900288, 0.5138020532739123, 0.5201045542346134, 0.5263452360295577, 0.5325367372518781, 0.5387835582868888, 0.5450249935577731, 0.5512378305035358, 0.5574675071495072, 0.5636847334756414, 0.5698925911628073, 0.5760954934495208, 0.5822752107974019, 0.5884399082576789, 0.5946161642088166, 0.6007431127534097, 0.6068104488369025, 0.6129056876500447, 0.6189775692368823, 0.6249768470584272, 0.6310041060701358, 0.637059210624463, 0.643017987226689, 0.648947851977441, 0.6548432061485774, 0.6607109437135411, 0.666564718411914, 0.672360502939096, 0.6781203616352814, 0.6837567014962803, 0.6894504578100886, 0.6950844257522294, 0.7006873829967601, 0.7062417803863485, 0.7117486543965855, 0.7172027331789035, 0.7225933139782083, 0.7279447326269161, 0.7332416309956413, 0.7385408041324217, 0.7437179220193502, 0.7488143135356081, 0.7538834943948832, 0.7588930985034426, 0.7638217331238915, 0.7687104544614948, 0.7735102706074881, 0.778270909550993, 0.7829627834081906, 0.7876307702985322, 0.792176103369597, 0.7966400154318708, 0.8010464961330386, 0.8053799151951873, 0.8096369455437199, 0.8138205248976935, 0.817911025281535, 0.8219411726871193, 0.8258908423492929, 0.8297849182917131, 0.8335671149044592, 0.8372630759120437, 0.8408800308849379, 0.8444120296009835, 0.8478339478062831, 0.8511956249322739, 0.8543737547007136, 0.8575670781908244, 0.8606637253153804, 0.8637634597623051, 0.8666537488491773, 0.8694064963726396, 0.8721182671138934, 0.8747336686222125, 0.8772820055209719, 0.8796989175670308, 0.8819712466058933, 0.8842000341050404, 0.8863277464642099, 0.8883659417359255, 0.8902887023096221, 0.8921217418690769, 0.8938390393932062, 0.8954542413693745, 0.8969188090194876, 0.8983340963504597, 0.899666841629204, 0.9008659531501089, 0.9019596299706721, 0.9029834758504562, 0.9038607154418022, 0.9046035946089851, 0.9052752424559071, 0.9058397137003957, 0.9063507146878601, 0.9066933816640164, 0.906889375322277, 0.9070273099088852, 0.9070570950493037, 0.9069526900580461, 0.9067692614890825, 0.9065599767987169, 0.9061466891246301, 0.9056288320508609, 0.9050099707322569, 0.9042812776315056, 0.9033833208535363, 0.9024518138503446, 0.9014110685621877, 0.9002895299110398, 0.8990282326265149, 0.8976986954656054, 0.8962205186639446, 0.8946389146911639, 0.8929239988016724, 0.8911396290982426, 0.8892046672972318, 0.8872173315755976, 0.885123870782773, 0.8829432355651524, 0.8806381659021509, 0.8782428569636924, 0.8757326321074594, 0.8731224843126623, 0.8703512415720339, 0.8675513346418608, 0.8647062714656342, 0.8616984654219325, 0.8585953467475352, 0.8553697759983622, 0.8520820681895136, 0.8486860669327987, 0.8452126498574899, 0.8416464369976805, 0.8380046786155956, 0.8342546655217083, 0.8304085685236889, 0.8264845127945086, 0.8224742069558693, 0.8183728992497964, 0.8141945830351952, 0.8099633973200683, 0.80561696542262, 0.8011920538224256, 0.7967257219580762, 0.7921426746970762, 0.7874207082624011, 0.7827009161378896, 0.7779063709501983, 0.7729907500018647, 0.7680575899377935, 0.7631017437672891, 0.7580190279305694, 0.7528704353196034, 0.7476335038991354, 0.7423607182270207, 0.7370232741722416, 0.7316271621825471, 0.7261717550896981, 0.7206607943544981, 0.7150917705620866, 0.7094827592771459, 0.7038057452343668, 0.698078975945326, 0.6923200331263132, 0.6864965607991633, 0.6806290901040346, 0.6747191441734028, 0.6687682767642886, 0.6627221468824088, 0.6567012792953814, 0.6506172064601438, 0.6445229955375087, 0.6383923708157372, 0.6322595151019078, 0.6260586496233913, 0.6199035885089538, 0.6136390181800938, 0.6073541477956704, 0.6010302254855366, 0.5947110109983903, 0.5883422812212822, 0.5819935564697868, 0.5756286447413921, 0.5692514244725676, 0.5628595211473553, 0.5564691440228553, 0.5500566501383511, 0.5436380431985532, 0.537153137475239, 0.5307353241481737, 0.5243590581236739, 0.5179288926438874, 0.5115013236398905, 0.5050221745639345, 0.4986121012446906, 0.4922566336764215, 0.48585176800217666, 0.47945865774244545, 0.47302901690881655, 0.4666706602379024, 0.460356131687974, 0.45402375096673137, 0.4477109124857411, 0.44137335028772184, 0.43511039536138774, 0.4288613638929576, 0.42264522026212487, 0.4164544265070761, 0.41028090782230364, 0.4041477446350703, 0.3980768672900991, 0.39200212980054694, 0.38597305107580165, 0.37996982261885714, 0.37400565689692, 0.3680239333127727, 0.3621491022574129, 0.3563638735869355, 0.3505637952795427, 0.3448095646146037, 0.33907240389279897, 0.333417185482474, 0.3278296058531395, 0.32226857164645034, 0.31675903190355864, 0.31127015592969526, 0.30587099863134537, 0.30045694272193807, 0.29517369916404973, 0.2899422201813094, 0.28489607234510833, 0.2797565814268915, 0.2745772935993188, 0.26957941316976325, 0.26464051895788426, 0.25976786419793985, 0.2549498908860592, 0.250242728229848, 0.24554544003236, 0.24091564467300375, 0.23634584568148037, 0.23185351850665312, 0.22737377254712354, 0.22302605904713976, 0.21874476059503228, 0.21456876865961144, 0.21041825612255444, 0.20626499370259455, 0.202266541028327, 0.1983359011857496, 0.1944560571931118, 0.19066608869225102, 0.1869954316072823, 0.1833387276717812, 0.17975574043578252, 0.17626666458897114, 0.17282921500797796, 0.16948114040976345, 0.166192665555755, 0.16298026348847064, 0.15976785101507446, 0.15671662489636304, 0.15377658382943113, 0.15086319457415215, 0.14802401675396296, 0.14523500501074338, 0.1425470105430568, 0.13987562058875133, 0.1373397634889669, 0.134873261389536, 0.13250043087776633, 0.13017054978782203, 0.12787615257707713, 0.1256935432385527, 0.12358000371122463, 0.12162743399334487, 0.11964040711660757