0.03777936818331119, 0.03745885418879821, 0.03716294597429591, 0.03689665745639297, 0.03663878684960967, 0.036384808214049866, 0.036157724251301177, 0.03594137152241934, 0.03572216089954735, 0.03552407945916736, 0.035325023286119084, 0.035138630336971136, 0.03495613729039032, 0.03479410471701444, 0.03461590462250779, 0.034449972657401275, 0.034277880682638345, 0.034109514628810976, 0.0339327594985008, 0.03377290419980614, 0.033648211290603795, 0.03348992093656388, 0.03333652633809595, 0.03314875832748928, 0.03301003027470674, 0.03287402428039371, 0.03274116248585143, 0.032611864440651464, 0.03249507107640383, 0.03237305937424177, 0.03223584818892081, 0.03212727201754788, 0.03202345032374759, 0.0319061040570453, 0.03181557394845268, 0.03177614830743491, 0.03169047697276289, 0.03161352222924087, 0.03151981162227692, 0.03146385455003679, 0.03141041273138083, 0.031370703823481574, 0.03133899796817726, 0.03132245929662371, 0.03130690466391394, 0.031292175681697884, 0.03129663183060461, 0.03131040941852037, 0.031301387407546455, 0.03133872516959805, 0.03138606089371562, 0.0314402635914006, 0.03150380098735369, 0.031565134155592554, 0.03165001040293586, 0.03174635329597434, 0.03185094042671681, 0.03196615677569846, 0.03213495750003183, 0.03226698680950669, 0.0323771238827407, 0.032541430822003226, 0.032717498153251735, 0.03288681823931734, 0.0330895153531068, 0.033307042675767375, 0.033532513747959715, 0.03377030046055462, 0.03406332203000277, 0.034321195090755555, 0.034582652503888936, 0.03487297705648898, 0.035177984060269486, 0.035470445611747815, 0.03580845114161037, 0.036146178071616894, 0.036512952272594976, 0.03689294224510113, 0.037342818795377125, 0.03774329050079621, 0.03810497894291489, 0.038547422205662873, 0.03900398618131963, 0.03945290173520636, 0.039941682660333364, 0.04050073827101875, 0.041010914467376244, 0.04153922635816552, 0.042048137114407136, 0.042617423904862985, 0.0431856920415187, 0.043789545740041645, 0.04440914113239206, 0.045072202444706506, 0.045721117009276134, 0.04634418751331544, 0.047035820252820285, 0.04774371198212908, 0.04848369515243712, 0.04922357589462941, 0.04998190519398145, 0.05075892546691375, 0.0515548617325437, 0.05238186001834323, 0.05321473200846558, 0.05404049087025694, 0.05491722805697205, 0.05581275200257986, 0.05674440857597831, 0.057676202246549096, 0.058625129197448084, 0.059598522720244414, 0.06059242670417036, 0.061589889002646656, 0.06262726420801794, 0.06369299897379095, 0.06476917895952496, 0.065866079857749, 0.06701279379487937, 0.06814776749071842, 0.06926102619874247, 0.07044668671384545, 0.07165217415443222, 0.07289818096905652, 0.07414139303556347, 0.07537548666869114, 0.07666571473363469, 0.07797575793273138, 0.07934335456525873, 0.08068891771830423, 0.08204332678672091, 0.08343541724597292, 0.08484889354694039, 0.08625813253813516, 0.0877174762067218, 0.08918468272184776, 0.09068527815177671, 0.09220525765917352, 0.09372604095655353, 0.09528765399574349, 0.09690041678814953, 0.09849565257951465, 0.10011184722504149, 0.10173351892457715, 0.1033931599107836, 0.10509634345286357, 0.10679226785595157, 0.10850910679725324, 0.11019884145446364, 0.11196273673950168, 0.11376793844322346, 0.1155638031224839, 0.11737863959856315, 0.11921570133098479, 0.1210675644530749, 0.12291590848705469, 0.12480764794032172, 0.12671633329756612, 0.12863337408500083, 0.1305768067220824, 0.13252448936671588, 0.1345017258473957, 0.1364942887974126, 0.13849701753005403, 0.14052070657810306, 0.14258476571648027, 0.14463469197439502, 0.146700588522103, 0.1487718410558894, 0.15086982043227432, 0.15296669050472497, 0.15509477624574564, 0.15723560462841543, 0.1593872573723221, 0.1615531206171261, 0.16371897616645262, 0.1659099332703107, 0.16811157958007264, 0.17033563095238663, 0.17255645255013755, 0.17477082779395153, 0.1770146165327056, 0.17926723985679213, 0.18153352685420474, 0.18380228553842, 0.18606899600408613, 0.18835501361461035, 0.19062906414941186, 0.1929306865250945, 0.19523732656678952, 0.1975777317042401, 0.19988997756382712, 0.2021909790812196, 0.2045164193806565, 0.20684555514624073, 0.2092035256158303, 0.2115354825147958, 0.2138558561714677, 0.2161965918942136, 0.21853886381563933, 0.22090088857968954, 0.22324223283350075, 0.2255623605335236, 0.22790770694282406, 0.23025136699800794, 0.23257920062855247, 0.23491970885945487, 0.2372528309942321, 0.2395854027347366, 0.24191295270491753, 0.2442486925774017, 0.24656316152721452, 0.24885667387470398, 0.2511612669461108, 0.2534581914493156, 0.2557043369947749, 0.25798986125038653, 0.260306470019473, 0.262563327098278, 0.2648106094349616, 0.26704257167350737, 0.26926946086543174, 0.2714658366017844, 0.27367099388795596, 0.2758621521242498, 0.278032037952717, 0.2801946809069741, 0.28234663524418746, 0.28447656430359447, 0.2865900371381356, 0.2887274386548526, 0.29080118789076576, 0.2928591190191189, 0.294900330875661, 0.29692395612977945, 0.29891722180848423, 0.3009047036203001, 0.3028953786035287, 0.30483782072817167, 0.30675961303573185, 0.3086496934252841, 0.31052902202147764, 0.3123438071383442, 0.3141804209345479, 0.3159898259613193, 0.317773431429586, 0.3195272878697302, 0.321236011629551, 0.322935481444662, 0.32460513172297534, 0.3262822008326988, 0.3278866065817506, 0.3294623808245168, 0.3310088667377116, 0.33252542563785437, 0.33399097298644903, 0.33544841777398, 0.3368780880878627, 0.3382686965798899, 0.3396258785234212, 0.3409730481092059, 0.3422589824079373, 0.34352510224834715, 0.34474175755253145, 0.3459244689504146, 0.3470401419753245, 0.34815701823474465, 0.3492054692867644, 0.35025044135222305, 0.3512553108784908, 0.3522234102186901, 0.3531473795283202, 0.354046466374926, 0.35488785329349426, 0.3556894923180537, 0.35643911381017296, 0.3571617735903711, 0.35784815066856057, 0.3584871490524133, 0.35908459698085854, 0.3596726298821151, 0.36018209124724926, 0.36061693684612517, 0.3610491820680775, 0.3614380278540471, 0.36181571859989936, 0.3621132035125335, 0.36237717285466364, 0.3625890887288195, 0.36275866462375894, 0.36288038248695675, 0.36296476074065914, 0.3629986081878419, 0.36299618731255057, 0.36294921957064125, 0.3628166493767932, 0.36268539488148566, 0.36252402079724133, 0.36229652319368266, 0.3620233026453095, 0.3616976165880453, 0.3613340490862708, 0.360941668311884, 0.360484353048835, 0.35998240721284996, 0.35943071568297, 0.358840175730343, 0.35818431113557836, 0.35750673104541697, 0.35678334417604274, 0.35606047745244374, 0.3552405022752851, 0.3543644962128891, 0.35346136729598604, 0.35251492642845655, 0.35154743718087406, 0.35051188060502736, 0.3493988072633241, 0.34828435731828306, 0.3471262186090919, 0.34590088295476007, 0.3446594850771542, 0.34340997628949765, 0.34207677725808266, 0.34070278777998164, 0.3392422143858635, 0.3377932349532456, 0.3363340962484002, 0.3347965873694874, 0.33321968383813966, 0.3315781851266632, 0.329926875843391, 0.32827684013797054, 0.32654167654900207, 0.3247703973545566, 0.3229376997806274, 0.3210982859157779, 0.3192393013898914, 0.3173250618411418, 0.3153763127189701, 0.3133713315623197, 0.3113577253499618, 0.3092944183207895, 0.3072147301381985, 0.3051011919565853, 0.3029733627284303, 0.30079213909883235, 0.2985651259914815, 0.2963255659216081, 0.2940559257263228, 0.2917842380127556, 0.2894532265657932, 0.2870839571064076, 0.28470232727173944, 0.28229476065180764, 0.27984827408214474, 0.2773925456293422, 0.2749462266679716, 0.2724375922011516, 0.2699077673927598, 0.2673402158115055, 0.2647717468005602, 0.2622015296144221, 0.25959041773789127, 0.25696134233199786, 0.25427739285268386, 0.2516189753082342, 0.2489867161230056, 0.24628731269574913, 0.2435741552945172, 0.2408478307923628, 0.23810895599264673, 0.23531554309859504, 0.23255891394227055, 0.22978934420475874, 0.22704369696200033, 0.22424685082322232, 0.2213824744868871, 0.21857817918077355, 0.21576409746526817, 0.21300794211140855, 0.21016945465846593, 0.20729941127295792, 0.2044600028575735, 0.20161752573944094, 0.19875576680744722, 0.1959118234564252, 0.19308512021224566, 0.1902367353503538, 0.18738979646489023, 0.1845450789981148, 0.18170335951551933, 0.17886370990429667, 0.17603053352620293, 0.17320088530375397, 0.17037918089932239, 0.16756419010691323, 0.16473113048658147, 0.16193518514595928, 0.15920316448668678, 0.15641639091339182, 0.15364236531784695, 0.1508440442802804, 0.14810170449664165, 0.1454141400185134, 0.14269154823643776, 0.13998517649188877, 0.1372750345158019, 0.1346051348659685, 0.13191087332238258, 0.12927998183195522, 0.12666476242376506, 0.12409181755980288, 0.12150773162157358, 0.11895391781414633, 0.1164093060614178, 0.11388667035771859, 0.11137294861823609, 0.10889772799390154, 0.10642157701092214, 0.10399594208114031, 0.10159325283870521, 0.09927743969877979, 0.09691512961355835, 0.09458510231713148, 0.09228031831174587, 0.09000505291190074, 0.08774760931928965, 0.08553363557606579, 0.08338852306471795, 0.08122927058661583, 0.07910266234748525, 0.0769627447497904, 0.07490755056676479, 0.07285209709610849, 0.07086221246104257, 0.06890213302344773, 0.06698284937877885, 0.06508331085510798, 0.06322650519709193, 0.06139120351721288, 0.05958999980958281, 0.057838621944416614, 0.05610479500237692, 0.05439848250380482, 0.0527380130734987, 0.05111349795947906, 0.04952348959175113, 0.04797185722658792, 0.04642270721886075, 0.0449487893064912, 0.04350998177177437, 0.04210675155229675, 0.040739514541396044, 0.03944444960028778, 0.03814573151636924, 0.03688599067972779, 0.035617435040305886, 0.03444155105680927, 0.033378563838536886, 0.03226562985340525, 0.03119377632733217, 0.03010122997465506, 0.029118179959891535, 0.028205810123664, 0.027291789698343852, 0.026416600826165766, 0.025580081041207667, 0.02478206537352554, 0.023983164025396162, 0.023266604824120598, 0.02258582719105991, 0.021925612957190137, 0.021318679955914608, 0.020794665478632963, 0.020252159356159097, 0.019747694519950957, 0.019233159257079652, 0.01880972329687307, 0.018449550367461175, 0.01809101772209591, 0.017768379750873805, 0.0174574567697642, 0.017208695570478168, 0.016991826562843617, 0.016810322787004544, 0.016661978231610197, 0.016584099347344155, 0.01649666863552471, 0.016431841078408668, 0.016414396928710218, 0.016429628473957916, 0.016497512536276317, 0.01657404486808786, 0.016659055644323448, 0.01680264651982153, 0.016975936304379036, 0.017140964849349325, 0.017377049992375892, 0.017675167714136294, 0.017958988540812345, 0.018270631094481623, 0.01866410169775691, 0.019022796318170054, 0.019356104238945977, 0.019779045461437866, 0.02022612198351834, 0.020730954109906836, 0.021220518637634755, 0.021741453519511098, 0.022278451935587248, 0.022838799370557338, 0.023466016107634154, 0.024065029402761548, 0.024682382449589594, 0.025327843807831204, 0.02599431440010374, 0.026658671691157043, 0.027367144690894338, 0.028148919346268245, 0.0288836730620874, 0.02963730139107171, 0.03043087599222129, 0.031216222202594977, 0.03205609222706019, 0.0328696033602185, 0.033700079390573914, 0.03455817437216953, 0.03541731322531683, 0.03633995410296014, 0.03721980527739399, 0.03811429115285861, 0.03904249015007862, 0.0399596147644301, 0.04088527908562211, 0.04182548556103444, 0.04277505098538225, 0.043738057648034456, 0.04470266964598095, 0.04571156277795227, 0.04668409109251696, 0.047663806922994656, 0.04864453228916151, 0.0496361665990511, 0.050723839833017835, 0.051710943100455216, 0.052705628626416215, 0.05373033520504425, 0.05473299658959756, 0.05572872870807444, 0.05674165177259371, 0.05775650775579409, 0.05884398014970802, 0.05985091836280534, 0.06090387393499107, 0.06191090924998686, 0.06292128687877045, 0.06394556775227749, 0.06495714175516223, 0.06597414715903561, 0.06698463564990076, 0.0679937060041386, 0.06898683031676392, 0.06999223193599748, 0.07108346092404284, 0.07206782472134741, 0.0730517526550658, 0.07399830949941696, 0.07498265505495352, 0.07604513166172314, 0.07700758772958853, 0.07796842722330014, 0.07894538358575603, 0.07989767757284791, 0.08082625598412964, 0.08177381643123222, 0.082715458471741, 0.08372577971944126, 0.08464486771423575, 0.0855730910709726, 0.08648422370950508, 0.087391665059076, 0.08824355818297061, 0.08914810230298019, 0.0900784225419416, 0.09096201608121289, 0.09183926575880032, 0.09277648190793021, 0.09363210870767152, 0.09451540428952243, 0.09536052809063145, 0.09620331796204117, 0.09701247053313465, 0.09785276736833153, 0.09872333945924983, 0.09954800049797578, 0.10038617097260155, 0.10120137255224278, 0.10201363595667848, 0.10280400483362483, 0.1036122516894944, 0.10448436495979777, 0.1052754776858074, 0.10606647431532468, 0.10680590815001491, 0.10760237716305183, 0.1084362164510691, 0.10922079913529947, 0.11000494775425369, 0.1107973059771333, 0.11157992069296825, 0.11238698057448913, 0.11316793231384, 0.11395127363433542, 0.11470984174277385, 0.115501843231387, 0.11627479814842116, 0.11707274220331909, 0.11787201997925494, 0.11872110631457851, 0.11951919365318872, 0.12030471007267567, 0.12111787883589463, 0.1219368988350767, 0.12279133295392036, 0.12362012888837141, 0.1244445355453428, 0.12529395379556316, 0.12615268576610883, 0.12700596737921438, 0.12788703879748708, 0.12876302769584058, 0.12966733445706352, 0.13058257535349518, 0.13154203963638206, 0.1324777048190407, 0.13343045195060668, 0.13439724319730434, 0.13538070494948817, 0.1363575790248332, 0.13737926620905777, 0.13843864972265404, 0.13949307545903117, 0.14056759216835937, 0.141627065523511, 0.14274833279204185, 0.14396136602158363, 0.14511486363541048, 0.14629449121538593, 0.1474648070093955, 0.1487023776326927, 0.14996190571502707, 0.15125143171332084, 0.15256770963985317, 0.15391155255799752, 0.15528376811246247, 0.156649347693937, 0.15808523638564112, 0.15954987593703665, 0.16104433764303566, 0.16256965040436183, 0.1641711409862631, 0.16575548347979094, 0.16737602949004254, 0.16900773339943173, 0.17070553629473453, 0.17243122527517912, 0.17420370969498297, 0.1760136686348, 0.17786021118687775, 0.17974775364573728, 0.1816409411591782, 0.18361305523527774, 0.1856244999810753, 0.18767114734430881, 0.18976480824764214, 0.19190884056706725, 0.19408598844944544, 0.19630716035659737, 0.1985952360703886, 0.2009037530647846, 0.20322205635928137, 0.2056303580840032, 0.20808472395505945, 0.21059099446631463, 0.2131389704551088, 0.21574557004302009, 0.21838959221892512, 0.22108365997621277, 0.2238196575658086, 0.22661610722158018, 0.22944965660547154, 0.23234973741156079, 0.235300612486567, 0.23829252913365495, 0.24134768402626808, 0.24444073821309587, 0.24760115029489602, 0.25081319300929283, 0.2540654027697294, 0.25738358264160305, 0.26071476543593264, 0.26414277115406054, 0.26762158064342234, 0.27115352352238914, 0.27473550904690924, 0.27837853331365175, 0.282064829030219, 0.28580477377541974, 0.2895882982909044, 0.2934372709339141, 0.29732601394928043, 0.301283637799921, 0.30529405880120053, 0.30934374434339584, 0.31346175340659405, 0.31765582131632425, 0.32187523403658386, 0.3261482134951899, 0.3304744998532385, 0.33485380324616615, 0.33926193125159504, 0.34374930339981485, 0.34828731423903325, 0.3528774614922911, 0.35751586228955845, 0.36220593549618507, 0.3669436946880653, 0.37173075667599237, 0.3765479125354696, 0.3814345648014776, 0.38634072912221556, 0.3913240253768925, 0.396351740841127, 0.40146623288470445, 0.4065765029988175, 0.4116796918141492, 0.4168873954457518, 0.4221362711833889, 0.42743101616273355, 0.43276026549286345, 0.43812781422732644, 0.44353663946125227, 0.448984026224085, 0.45446242263485426, 0.45998555756312565, 0.46552578898305913, 0.4711222020092989, 0.47675176786372425, 0.48241374977260804, 0.48810735372736097, 0.49380785890321066, 0.49956513493205323, 0.5053500075532754, 0.5111906735194124, 0.517024632338487, 0.5228545567469175, 0.5287445163790399, 0.5346569913660452, 0.5405943980589029, 0.5465484409349113, 0.5525288858376828, 0.558520070855849, 0.5645288701256187, 0.5705267201809907, 0.5765703371329495, 0.5826210163127538, 0.5886885118390208, 0.5947656037945941, 0.6008835212773997, 0.6069721532651596, 0.6130395713984166, 0.6191458698511235, 0.6252552160233414, 0.6313373018718778, 0.6374524234417351, 0.6435717443436001, 0.649679592624282, 0.6557828158419479, 0.6618835045306107, 0.6679730513665028, 0.6740182923149916, 0.6800939340268737, 0.6861561640099588, 0.6921918492959725, 0.6982251237181192, 0.7042576272511122, 0.7102518554699829, 0.7162266817532008, 0.7221431168355767, 0.7280794405770088, 0.7339897740539304, 0.7398728884718084, 0.7457275040637239, 0.7515471803057213, 0.7573414314894913, 0.7630806409190779, 0.7688105613761093, 0.7745001492006978, 0.7801553911745904, 0.7857709445529969, 0.7913488995530235, 0.7968806475016529, 0.8023483712162097, 0.8077941439873871, 0.8131923084541975, 0.8185125668767494, 0.8238152242324633, 0.8290475804054233, 0.8342447427441999, 0.8393853453123693, 0.844473401553483, 0.8494968806671667, 0.854467458490255, 0.8593693585848174, 0.8642093509676123, 0.8690133496391252, 0.8737219585511102, 0.8783677667524601, 0.8829455470437978, 0.8874557449928088, 0.8918541743516624, 0.8962299659898725, 0.9005448566165837, 0.9047687204216174, 0.908916562398426, 0.912951327649288, 0.9169479310837714, 0.920828697233507, 0.9246652286648599, 0.928416253275396, 0.9321356580598763, 0.9357066804880483, 0.9391606882310007, 0.9425653467379894, 0.9458811406046737, 0.9491020454024268, 0.9522380304411686, 0.9552787293803081, 0.9582305358385387, 0.9610885621359508, 0.9638161778275096, 0.9664887187737655, 0.9690630332995137, 0.9715386180098443, 0.9739149485593137, 0.9762034222693875, 0.9783781066673645, 0.9804491526917402, 0.9824231613967377, 0.984295463593978, 0.986085931605322, 0.9877504774852964, 0.9892564710899436, 0.9907228763590263, 0.9920824906289738, 0.9933522062318493, 0.994495587954149, 0.9955394406303816, 0.9964689371321381, 0.9972918390825892, 0.998004396578412, 0.9986135515359531, 0.9991064642575829, 0.999501043851204, 0.9997870145038055, 0.9999267656843523, 1.0, 0.9999929987917386, 0.9998407696439867, 0.9995798784714504, 0.999217161363971, 0.99873815806746, 0.9981134936231314, 0.9974229940568347, 0.9966223841432783, 0.9956848091829252, 0.994668718016, 0.9935678594579042, 0.9923285034912794, 0.9909815444154755, 0.9895325268603913, 0.9879710203616265, 0.9862779645918908, 0.9845082021040108, 0.9826319637374128, 0.9806687224518558, 0.9785793108035065, 0.9763576498568891, 0.9740659722897675, 0.9716706163862288, 0.9692219203144291, 0.9666156151262176, 0.9638820880582241, 0.9610834915223706, 0.9581861128163655, 0.9551874020069807, 0.9520954989926839, 0.9489328647106703, 0.9456460773815979, 0.9422663807939227, 0.938751957956582, 0.9351943280756524, 0.931526938271748, 0.9277873533083122, 0.9239567125791793, 0.9200825046710841, 0.9160682593314158, 0.9120005474038342, 0.9078151527071653, 0.9035494728875672, 0.8991856454164566, 0.8947645248733234, 0.8901950466074101, 0.8856271288884013, 0.8809793773403273, 0.8762843708823869, 0.8714786881933417, 0.8665987417485824, 0.8616497048591478, 0.8566311173269763, 0.8515445591341719, 0.8463916190209159, 0.8411738951028094, 0.8358929953715002, 0.8305505380871461, 0.8251583836940902, 0.8196964149877286, 0.8141852031231539, 0.8086118229396176, 0.802985941386263, 0.7972579662996431, 0.7915382734411208, 0.7858140230243604, 0.7799893580298564, 0.7741207446665952, 0.7681791098099864, 0.7622313678234091, 0.7562190106598989, 0.7501947337272732, 0.7441322206751356, 0.738016514203673, 0.7318859362490967, 0.725771802890868, 0.7195710939732908, 0.713344385924022, 0.7071291494425912, 0.7008509107202472, 0.6944684433275438, 0.6881644673470703, 0.6818396129646522, 0.6755216449241161, 0.6691583086112024, 0.6627819461023621, 0.6563944047441759, 0.649997520236308, 0.6435573064312289, 0.6371517258182082, 0.6307760436280299, 0.6243561909671544, 0.617936550019657, 0.6115358771342786, 0.6051196109441638, 0.5986652760294654, 0.5922687056765192, 0.5858790335290164, 0.5794930735140434, 0.5731235959563735, 0.566805628539996, 0.5604576337730088, 0.5541278198390965, 0.5477937897186521, 0.5415077920712937, 0.5352669549150582, 0.5290221921650926, 0.5228033917135853, 0.5165881199943445, 0.5104285835282754, 0.5043099258600499, 0.49820839095365604, 0.4921396924766446, 0.4860660821072288, 0.48007241737131073, 0.4741035241443513, 0.46818289502660804, 0.46230010810693045, 0.4564534575203678, 0.45065183766775796, 0.44493884077431634, 0.4392181159554423, 0.4335456098093342, 0.4278797665203899, 0.4223123109993741, 0.41682288309076054, 0.4113512373439314, 0.4059330018535525, 0.4005317236705476, 0.39522822156723614, 0.3900030280425868, 0.3848066812172689, 0.3796686582678367, 0.37460871424878345, 0.3695879291573793, 0.36460213919579126, 0.3597101205492356, 0.35487353402635713, 0.3501078380025062, 0.34540587840133063, 0.3407600554148239, 0.3361893798739482, 0.33169313044827625, 0.32725403669198894, 0.32288299104969814, 0.3185397593161944, 0.31431202250480206, 0.3101707563985158, 0.306076980990558, 0.3020537089605105, 0.2981100735417635, 0.2942285012029684, 0.2904247001709094, 0.2866881872552752, 0.28302537188882554, 0.2794297167641002, 0.27591598114307486, 0.27246779806726135, 0.26910354982065715, 0.2658133693791171, 0.26262137993829665, 0.25947702223151486, 0.2563524199284997, 0.25336716908417284, 0.25045464070622453, 0.2476527046519046, 0.24488186619056054, 0.24217135398408132, 0.2395536481516519, 0.2370104205457225, 0.23452794949273373, 0.23213512517462653, 0.2297815525176652, 0.22753966994823416, 0.2253690119820762, 0.22330718767532065, 0.2212744363437056, 0.21932700080315937, 0.21743906954001235, 0.21562430394624177, 0.21388894897928762, 0.21221791094360243, 0.21062035867664072, 0.20909199429516348, 0.20763415476950198, 0.20622567456284138, 0.2049093566801529, 0.20367051360037156, 0.20248682233078266, 0.20136978452248763, 0.2002999316901377, 0.1993164216826917, 0.19838438641221592, 0.19752859173718296, 0.1967342668211151, 0.19598035390763022, 0.19530972635423757, 0.1947111440897726, 0.19415503900630737, 0.1936569267443263, 0.19321943755683735, 0.1928345029037, 0.19249166399782122, 0.19221902145145314, 0.19199950829260662, 0.19186297052179752, 0.19174325267212025, 0.19163651379821345, 0.19162495945326538, 0.19166101474840092, 0.1917625606989689, 0.19188879449879762, 0.1920473060727477, 0.19226597141695564, 0.1925275141682798, 0.19280872191130283, 0.19315566777941642, 0.1935905015832095, 0.19400713727594948, 0.19446308883601343, 0.19490579885412665, 0.19544266985749864, 0.19602718620015458, 0.19662577278238683, 0.19725560145107918, 0.19794623268452016, 0.19863124695260773, 0.1993423704560962, 0.20008543612986993, 0.2008550127539534, 0.2016139388356168, 0.2024370274475898, 0.20325332421438863, 0.2041198264003419, 0.20500322436534177, 0.2059094935926484, 0.20682323890295962, 0.20777205938768328, 0.20871142109851343, 0.20966447904026347, 0.21060101496417916, 0.21158144782373403, 0.21261461148702268, 0.21360524324188404, 0.21460476839895204, 0.2156254479648112, 0.21663692026256537, 0.2175977188993141, 0.21862609783607384, 0.219654139834617, 0.22070142662323047, 0.2217235412502186, 0.22272159278480227, 0.2237416203431098, 0.2247563162607685, 0.22577330238274165, 0.22677353170530626, 0.2277798041360707, 0.22876211080017372, 0.22973558955788176, 0.23067185813570376, 0.2316278581557633, 0.23260096380163164, 0.23352508974959604, 0.23443571379337816, 0.23532494431360432, 0.2362062451502986, 0.23706712779360956, 0.23791391607679202, 0.23874166934833785, 0.2395034862758357, 0.24029643111907392, 0.24110786426462547, 0.2418466969197856, 0.24256288122024405, 0.24324194775851457, 0.24391210304639896, 0.24451039407895128, 0.24513408246279647, 0.24572808681519712, 0.24632114472753142, 0.24685132685018887, 0.24735942377638273, 0.24783036334876263, 0.24827165562480888, 0.24866735489313113, 0.24904951899917058, 0.24944719024573925, 0.2497584260831921, 0.2500392874328834, 0.2502787647990542, 0.25049789560649477, 0.2507026742741486, 0.25085268397155336, 0.250969617518214, 0.25097954621835356, 0.2510378472294336, 0.25108118642395916, 0.25105894126387884, 0.25099946059643147, 0.2509248157286584, 0.2507877757433328, 0.2505888937867757, 0.25038230954562957, 0.2501375543552518, 0.2498597611127646, 0.24953807355387964, 0.24916492810646926, 0.24876932971843577, 0.24833515605718287, 0.24788812129497098, 0.2473739707452323, 0.24679239987481863, 0.24620862102232194, 0.2455863102764123, 0.24493424678639394, 0.24423455257928636, 0.24351461789328394, 0.24273837120062508, 0.24192618208349584, 0.24104914219947468, 0.24016900909226094, 0.23929086590283985, 0.23833171781763332, 0.2373383522999489, 0.23628528268611304, 0.2352270355320322, 0.2341011360617814, 0.23297689776034555, 0.2318164319008771, 0.2306460141714041, 0.22941192726338924, 0.22812972894387348, 0.22683249021366492, 0.22550251076665268, 0.2241727762996337, 0.22277497393719375, 0.2213360654145934, 0.21988175805127866, 0.21839658946967533, 0.21688467321130034, 0.2153444987249893, 0.2137919510962328, 0.21219494831166652, 0.21054662889432532, 0.20890184442479404, 0.20723083486338845, 0.20548145820738678, 0.20376684562801245, 0.20204396192956595, 0.20027406585688987, 0.19848043448831182, 0.1967253554505348, 0.19487916361615576, 0.19300849167969328, 0.19112819122650282, 0.1892305899834439, 0.18729401142573446, 0.18536611992722643, 0.1834195489834417, 0.18145868435431725, 0.17948227167961073, 0.17748938407955808, 0.1754844266784683, 0.1734422886578508, 0.17141452960931378, 0.1693737095575711, 0.16732081105075217, 0.16525679134010646, 0.1632047531581114, 0.1611184700249129, 0.15902505185117, 0.1569064395698489, 0.15480322584282152, 0.15273998106136252, 0.15061966544371289, 0.14849757805845226, 0.14634349190787013, 0.1442231786047144, 0.1421196282893437, 0.1399937569265178, 0.1378685428837802, 0.13571051850978844, 0.13359285543275876, 0.13149293272081275, 0.1293754285139981, 0.12726142002835908, 0.125163592193807, 0.12305730243690105, 0.12095398891017849, 0.11886153262277335, 0.1167765328814894, 0.11468600977823853, 0.11261963232217087, 0.11053975597660175, 0.10849428261237691, 0.10645774008427314, 0.10442762132860248, 0.10241204240471835, 0.10045724967717709, 0.09845890471515657, 0.09647627242153542, 0.09446707447528702, 0.09252233586595954, 0.09061078663700177, 0.08869328093701867, 0.08679271037575759, 0.08493347659916699, 0.08306533140523324, 0.08115903515388567, 0.07933818128810045, 0.07753452327560574, 0.07574885416737115, 0.07398191666328924, 0.07226851191315062, 0.07053676918855135, 0.06882763144919866, 0.06714821897207911, 0.06548432480213458, 0.06384772074197129, 0.06223139096989198, 0.06063960730234648, 0.059043592036897165, 0.05750520391491573, 0.05600742886546682, 0.05451445281250096, 0.05304685783457635, 0.05158101983070127, 0.05016794317446362, 0.04876427500659634, 0.047403056989016194, 0.046066509950827686, 0.044787493073308225, 0.043497521092282825, 0.04225403403749118, 0.041017209709222714, 0.03980928962728694, 0.03858242778244132, 0.03743806872692057, 0.03636571173895188, 0.0352677626139894, 0.034198937694700185, 0.03314374811271602, 0.03213469605221662, 0.031119400057943777, 0.030170383622551138, 0.029247302866452628, 0.028384511920716123, 0.02750968966506084, 0.02663433606494604, 0.02581993851395961, 0.02503205403887114, 0.024320202480045603, 0.023579258559424384, 0.02287452508489881, 0.02219107119053059, 0.02153655838669576, 0.020869619032739994, 0.02027686164562405, 0.019680498856405236, 0.019142119999682308, 0.01862736045183129, 0.018167039071394803, 0.017695955737655186, 0.01723167193536124, 0.016813803905172293, 0.016419886462697812, 0.01604295527863844, 0.01569734202253655, 0.015412295885077898, 0.015107870766753125, 0.01482823012907861, 0.014528506227763183, 0.014302459478123156, 0.014095444064720986, 0.013910941246187336, 0.013746752224063866, 0.013602674206840021, 0.013478471258669597, 0.013426740477611524, 0.013334777742732933, 0.013264778300945029, 0.013219386405307199, 0.013190615612380472, 0.013180088577932311, 0.013190724777565808, 0.013219827645174344, 0.013265049505711293, 0.013329393699892096, 0.01340341719482413, 0.013501048301037733, 0.013613656352333225, 0.013752679158244834, 0.013892237041470192, 0.01405277235187893, 0.014219191311246087, 0.014398984092013177, 0.014639278920178153, 0.014837941895668486, 0.015054261498228048, 0.015280029496243928, 0.015518383378037442, 0.01578209658823388, 0.016041343713158306, 0.016273972345417463, 0.01655892104247845, 0.01685103987961874, 0.017236860052763734, 0.017531015087229998, 0.01783762627341887, 0.018151942193980572, 0.018474943697033466, 0.018824420091593012, 0.01915958972167336, 0.01953079757541183, 0.019875482005997154, 0.020227080696680003, 0.020634035017334126, 0.02099026355891801, 0.021329529350204532, 0.021701428040105407, 0.0220766702462785, 0.02249882918297856, 0.0228729289225454, 0.023307038639181987, 0.02368055781740954, 0.024059188502051767, 0.024441716611871334, 0.02482705882477806, 0.02522959671730254, 0.02561583460127109, 0.026003155723117215, 0.026424860636962512, 0.02680771257777662, 0.027203347383114487, 0.02758554795206349, 0.02796769501681161, 0.028383151105891947, 0.028758741567564996, 0.029173448811109975, 0.029543100010438264, 0.029913404047248203, 0.030261293498213958, 0.030633127646354643, 0.031037827103160432, 0.031398841577357665, 0.031826391594078324, 0.032174861521930095, 0.03252443042768089, 0.032898016642344444, 0.033244035637726224, 0.033572971259839934, 0.03392030770890199, 0.034265224484053405, 0.03464482963475257, 0.034979021546144705, 0.0353494270437566, 0.03567578057255158, 0.036002051738727996, 0.03634297663398936, 0.036665422431585916, 0.03703659565145397, 0.03735091093530426, 0.03766651916994462, 0.03797936960838803, 0.03829620158198915, 0.038658625411985455, 0.038968466349584965, 0.03927999144817392, 0.03955009724299557, 0.03986908166265257, 0.040240847166206746, 0.04054954131496938, 0.04085991945471562, 0.04114110881585988, 0.041458287836113314, 0.041845058700114277, 0.04215304960439517, 0.042465271100781146, 0.042747413787449416, 0.04307188991210488, 0.043422214806354, 0.043747944797694324, 0.04407766743629631, 0.04440987028779513, 0.044748421972587826, 0.045113761190094845, 0.04545908816596429, 0.04581099209866361, 0.04620721435080108, 0.04656825417558774, 0.04694902622396596, 0.04732782983092337, 0.04771689339407142, 0.04808733940159603, 0.048500993092614915, 0.04893404671440108, 0.04936527412563851, 0.04980732599024676, 0.05030161574224552, 0.05076162914342585, 0.051227774207590435, 0.05171840980116629, 0.052223740254961494, 0.052687900357364884, 0.05323100003854302, 0.05385177393696299, 0.0544133931203278, 0.05499342315523493, 0.055534273012519224, 0.056159659536920745, 0.05681512474384994, 0.0574726206696064, 0.05814921133581599, 0.0588883228202177, 0.05960008452632295, 0.06030839894790747, 0.06107170399621225, 0.06185818712845107, 0.06267366568328708, 0.06350796181613548, 0.06437464561756838, 0.06525986907191654, 0.06617235824110503, 0.06710078356290623, 0.06807114376442937, 0.06907335610622482, 0.07010089280849885, 0.07115850424324421, 0.07226563096162356, 0.07338306431265007, 0.07453366162110238, 0.07571794284070499, 0.07693644210790296, 0.07815730549187652, 0.07944998579929057, 0.08079549014513361, 0.08215476191912986, 0.08355078692597204, 0.0849296233188943, 0.08640792844712046, 0.08793713349213426, 0.08948564908097037, 0.09107260847573528, 0.09272268915152068, 0.09438589168445637, 0.09607071695516928, 0.09782118647930778, 0.09961360269518849, 0.10142816134810316, 0.10330900728913606, 0.10527006234403938, 0.10723229594889137, 0.10924077351245494, 0.11128221123134413, 0.1133859759565528, 0.11549706978270774, 0.11769935647269412, 0.11994689942368424, 0.12225237797514898, 0.124591095266291, 0.1269709800846713, 0.12940702615833857, 0.13189162282400316, 0.13439455401718056, 0.13698153207680905, 0.1396746446424121, 0.14235122378832363, 0.14508039258382296, 0.14785366111439827, 0.15068920149765902, 0.15353775412061052, 0.1564828343518248, 0.15947816582111066, 0.16255996942646853, 0.16565245678080007, 0.1687556583564698, 0.17196021000135858, 0.17521567381607306, 0.17853941479956556, 0.18189543335692585, 0.18529046755638945, 0.18875355926555895, 0.19226858348292772, 0.1958236961424973, 0.19944433550796017, 0.2030874154497487, 0.2068146615491166, 0.21059182838136503, 0.21441402726575262, 0.21829229477805712, 0.22224454899480955, 0.22622009954571795, 0.2302471936182765, 0.23432559811668902, 0.23845505132489508, 0.24257557964335147, 0.24681378219025885, 0.25109873702152646, 0.2554390834639568, 0.2598167199649513, 0.2642263337551228, 0.26870037176656353, 0.27322043874215846, 0.27776248459362335, 0.28237703368207784, 0.287049193988355, 0.29174979026588643, 0.2964947133936498, 0.30126307912808115, 0.30609792957801035, 0.31100524217236686, 0.31591934899207014, 0.3208760904400862, 0.32587811648155723, 0.3309173934139232, 0.3359494055677903, 0.3410748370051806, 0.34623636048112183, 0.3514965769113418, 0.35672076316253565, 0.36190447746240895, 0.3672133496209797, 0.37255345838449583, 0.3779379294039099, 0.383337168252547, 0.3887410799626485, 0.3942032401399903, 0.39969254347485617, 0.40520659647300084, 0.4107482770182189, 0.4163335231434399, 0.4219216071650722, 0.4275338233342964, 0.4331793203872592, 0.43883523700454696, 0.4445006112513727, 0.45019960064419656, 0.45591685638399104, 0.46161371859018224, 0.4673687993162515, 0.473119500136024, 0.4789011861123794, 0.4846927418023635, 0.4905325271214505, 0.49633621825771773, 0.5021389867150975, 0.5079612453756781, 0.5137400912500246, 0.5195794075434433, 0.5254194223121625, 0.5312251216080969, 0.5370680566348652, 0.5429443829923126, 0.5487735194932478, 0.5545989444968968, 0.560371650231139, 0.5661918806718925, 0.5720018588946878, 0.5778006340615526, 0.5835871884315981, 0.5893570338503494, 0.5951162915605437, 0.6008307602757638, 0.6065608910741175, 0.6122711681350094, 0.6179912495990301, 0.623654768209903, 0.6292729989003815, 0.6348952645043885, 0.6404918794697797, 0.6460769217421529, 0.6516164570795341, 0.6571153736632506, 0.6625975856950699, 0.6680475059251781, 0.6734432952387845, 0.678827080456243, 0.6841630357300937, 0.6894716810411903, 0.6947396557548637, 0.6999691711797502, 0.7051517489685347, 0.7102680052215974, 0.7153637852105212, 0.7204115672556337, 0.7254102148048923, 0.7303585633802462, 0.7352588357994794, 0.7401025731295601, 0.7448925869010774, 0.7496293219883624, 0.7543078872269204, 0.758925621716935, 0.763488497643565, 0.7679912062621599, 0.7723932845941883, 0.7767768966598543, 0.7810978408316896, 0.7853479573385367, 0.7895303424502915, 0.7936252497534021, 0.7976715623540463, 0.801637555150705, 0.8055404850125513, 0.8093693717108079, 0.8131404206274949, 0.8168165006745067, 0.8203776694426281, 0.8239062912258963, 0.827354955994328, 0.8307076132600099, 0.8339961684423088, 0.8372170686980982, 0.8403370350519652, 0.8433735464448421, 0.8462933883512523, 0.8491646427352625, 0.8519635302835374, 0.8546568704940265, 0.8572622439307197, 0.8597772355748852, 0.8622047645512508, 0.864514828907259, 0.8667647683164689, 0.8689216485960801, 0.8710089061354612, 0.87297532503013, 0.8748486797162217, 0.8766283172417556, 0.8783136090218981, 0.8798971310365813, 0.8813928116514765, 0.8828039729683814, 0.8841047670106184, 0.8853088674871418, 0.8863663072413499, 0.8873817668291202, 0.8883150824638273, 0.8891263595952954, 0.8898377606170194, 0.8904798012816802, 0.8909870466505283, 0.8913700684882361, 0.8916828830978583, 0.8918949166930557, 0.8920367938342205, 0.892043196115467, 0.8918838921815133, 0.8917000548840218, 0.8914128466637328, 0.8910482435862402, 0.8905522357395713, 0.8899690859421356, 0.8892699454385704, 0.8884711305578316, 0.8875693291143077, 0.8865719305050727, 0.8854375609232212, 0.8842462355951174, 0.8829538632778868, 0.8815883364555334, 0.8800922406390209, 0.8784558121362502, 0.8767700898637505, 0.874985076541028, 0.8731203216554361, 0.8711367182562451, 0.8690299380550092, 0.8668586187257326, 0.8645911328527315, 0.8622351782144214, 0.85977712030358, 0.8572617030495613, 0.8546135898578797, 0.8518759512638069, 0.8490220494462863, 0.846110498416451, 0.8431506024037787, 0.8400562419332515, 0.8368767395183718, 0.8335786031086092, 0.8302350280359883, 0.8268064110576617, 0.8232938073798709, 0.8196982880561601, 0.8159834246361805, 0.8122300964583359, 0.808417228605479, 0.8044991215825931, 0.8005034116210229, 0.7963869883990572, 0.7922453677993274, 0.7880427128100002, 0.783748002420895, 0.7793809679032082, 0.7749549775492356, 0.7704460722822931, 0.7658714924114448, 0.7612289321997721, 0.7565217399238979, 0.751734192796592, 0.7469038961822687, 0.7420239793649476, 0.737070569015351, 0.7320592883190501, 0.727003484460873, 0.72187919724409, 0.7166849254111196, 0.7114582823366982, 0.7061804785064943, 0.7008070079543448, 0.6954373172751888, 0.6900645466826087, 0.6845927112668926, 0.6790781392148012, 0.6734933156758561, 0.6679013739728046, 0.6623121663620531, 0.6566367875706663, 0.6509273836630421, 0.6451426972258454, 0.6393747856545178, 0.6335678441703059, 0.6277381752105544, 0.6218794899413386, 0.6160277076341436, 0.6101120960075752, 0.604142355981932, 0.5981888603242965, 0.5922147865422546, 0.5862167863757914, 0.5802074863647432, 0.5741876827483198, 0.5681482517711065, 0.5620969772707974, 0.5560065435474096, 0.5499402560475758, 0.5438620711569768, 0.5377811111255788, 0.531695172429381, 0.5256555277314424, 0.5195588012127117, 0.5134260001128974, 0.5073418436277864, 0.5012612876920576, 0.49519964348538564, 0.4891295457573746, 0.4830465787150177, 0.4769993698851281, 0.47095636216788855, 0.46493370911650933, 0.458924962082096, 0.45292664804864835, 0.4469512531460198, 0.441009649607965, 0.43507078645206315, 0.4291543622606461, 0.42327541214931, 0.41740630390590744, 0.41155429941630006, 0.40574239057797246, 0.3999597102443464, 0.39419733712560706, 0.38847832246738356, 0.3828259502672785, 0.37716904145557817, 0.37154924426939445, 0.3659522273086016, 0.36041164980419843, 0.35486946502103034, 0.34941385472662007, 0.3439975595425279, 0.338649314493317, 0.3333124937385281, 0.3279951208399714, 0.3227526536718861, 0.31755588681605534, 0.31244185706853095, 0.3073355932806285, 0.3022430594691896, 0.29724483054618783, 0.29229733490233994, 0.28742553248914726, 0.2825796960243525, 0.277746419178522, 0.27301711320044925, 0.2683421030560012, 0.2637036937936053, 0.25914277355191134, 0.25468584908258735, 0.250232425119842, 0.2458399311966484, 0.24147989238561796, 0.23721445243301595, 0.23300981258252182, 0.22886667180801706, 0.2247856822492909, 0.22076404072324102, 0.2168095639422974, 0.21288804708359868, 0.20906527145381482, 0.2053054074984868, 0.20163129900726912, 0.19799641208955257, 0.19442579797093062, 0.1909233845707213, 0.1874874218228599, 0.18409769261815273, 0.18079792195673217, 0.1775896675186369, 0.17441884665784704, 0.1713159655259067, 0.16825374251063174, 0.16529017738410368, 0.16240319666769007, 0.15957120156237664, 0.15680640087285758, 0.15409172281522665, 0.15146337599186632, 0.14893691987697233, 0.14643622580138024, 0.14400361490275268, 0.1416455486734247, 0.13934715634139097, 0.13709737214249004, 0.13493564550947823, 0.1328393524400366, 0.13077068093143807, 0.1288090843995758, 0.12689450369714034, 0.12505950365997104, 0.1232858025780366, 0.12162449135394113, 0.11996664917001114, 0.11831459327084054, 0.11679094025492377, 0.11532644928642076, 0.11398058764478199, 0.1126261586913129, 0.11128224321807303, 0.11005674885393818, 0.1088883095876075, 0.10777476858791997, 0.1067192534176924, 0.10576354217670471, 0.10481278603620084, 0.10391880755848645, 0.10300557344427874, 0.10223164231522941, 0.101580627478764, 0.10089623044275274, 0.10026471972183543, 0.09963724989659466, 0.09911426923522683, 0.0986552945004921, 0.09822338640960994, 0.0978379936059541, 0.09750845726638212, 0.09721211375029275, 0.09690216118759376, 0.09670086923439711, 0.09653865127190706, 0.0964678097718355, 0.09637531179639865, 0.09633151906951534, 0.09631714661890953, 0.09634112978996291, 0.09635792148745413, 0.09646060495820864, 0.09660409124781782, 0.09676943269450286, 0.09696586083012662, 0.09716855085254153, 0.09742729802298558, 0.09772311341440433, 0.09803342781991588, 0.0983694905158911, 0.09872862992670178, 0.09911348589006641, 0.09957049078674557, 0.09999348130161691, 0.10043991845507252, 0.1008691513843932, 0.10136319038871412, 0.10185724616926671, 0.1023865729455058, 0.10292998894527831, 0.10348490271590857, 0.10405403137772365, 0.10460373462652976, 0.1051983506327704, 0.10580063221808864, 0.1064507899968209, 0.10706103887738623, 0.10762952965176077, 0.10826026519283767, 0.10889362264381708, 0.10952375485570877, 0.11016077291861898, 0.11081147082059628, 0.11144605560258754, 0.11207984864829551, 0.11273748504533758, 0.11336362338685624, 0.11396027582609491, 0.11458430193488085, 0.11520230432298477, 0.11583897510531631, 0.11643903342030824, 0.11701478681822698, 0.11760140482207469, 0.11817765911745337, 0.11880063191764952, 0.1193461484322006, 0.1198017506474789, 0.1203365396118843, 0.1208544793822778, 0.12134479167467155, 0.12182866799428758, 0.12231048109930856, 0.12275345959691981, 0.12317724041397808, 0.12362547958052374, 0.12400322210911588, 0.1243110729593125, 0.12465680053655823, 0.12497894560147496, 0.12527189249176746, 0.1255460166859151, 0.12581181740923694, 0.12603257204463672, 0.12622798347365194, 0.1263940417787285, 0.12653741954862793, 0.12666034496156925, 0.1267478013420343, 0.12680735993537395, 0.12681120407146637, 0.1268168443220129, 0.1267881215425771, 0.12673204803223426, 0.1266443472343954, 0.12652821268516254, 0.12637617289320782, 0.12621762100761352, 0.1259979208657155, 0.12574708494742962, 0.12543910170769595, 0.12512796677269522, 0.12476601692022406, 0.12438939064990807, 0.12397780589034928, 0.12357051265778538, 0.12308413099442747, 0.12252924818897759, 0.12198171235100487, 0.12145007170186062, 0.12082560581195352, 0.12016887636138258, 0.11944713886188098, 0.11872900082654836, 0.11801172056692143, 0.11721922106675711, 0.11639393620716997, 0.11552203598453904, 0.11463239201549087, 0.11368149701967575, 0.11272743272020988, 0.1117380251054785, 0.11076135889543724, 0.10969623783736937, 0.10852443019941589, 0.10740543970565612, 0.1062505405446491, 0.10512007060271182, 0.10388773735960613, 0.10262642220695978, 0.10133259259803133, 0.10000839934314083, 0.09859431668590479, 0.09721745552717194, 0.09584498233836472, 0.09439786535726576, 0.0929211840197496, 0.09142726365721897, 0.0898911260592885, 0.08831878169762428, 0.08672870168736206, 0.08511117064327085, 0.08349734503961731, 0.08182243173707547, 0.08008229539133525, 0.07836422399551338, 0.0766201248853781, 0.07487113661490905, 0.07307441798705125, 0.07122925957596471, 0.06939055862046982, 0.06752859159851252, 0.06561852892477282, 0.06371550400209852, 0.061807055204248604, 0.059857855386043456, 0.05788897448560649, 0.05592332140846752, 0.053914490260856644, 0.0518570251444766, 0.04982036892163426, 0.04776677139245193, 0.04571924354909533, 0.04363147181463704, 0.04151684154981091, 0.039404983101938844, 0.037280396094217655, 0.03517793810557446, 0.03302583458662599, 0.03086345688160891, 0.02869489932947143, 0.026518645303495327, 0.02434546891069589, 0.02215418023490826, 0.019928478155538148, 0.017730533512521438, 0.015526618632711224, 0.013349945588466361, 0.011132422908988982, 0.008913164399301779, 0.006692702275764557, 0.004471595085706889, 0.002216319304414562, 0.0