0.04398671212322438, 0.043384307571046984, 0.042713177102116376, 0.04208348856090691, 0.04133698498657421, 0.040792151463001323, 0.04033317126099132, 0.03981116301609433, 0.039305164860899834, 0.038807819618870316, 0.03832752466805762, 0.03772910040736209, 0.037282727033655434, 0.036836354901507204, 0.0365326144482916, 0.036068966124678796, 0.03553562441457694, 0.03509896156986124, 0.03466553657362829, 0.03421598165787705, 0.033792409874396794, 0.03334252199610682, 0.03292957204680406, 0.03251932724800596, 0.03210282267180087, 0.03170177406794505, 0.031383943176972774, 0.03098309730568108, 0.03059296739641559, 0.0300909211801502, 0.029738207902519638, 0.029404586824418835, 0.029059955956734378, 0.028722863075082868, 0.028369667099287694, 0.028053423596030174, 0.027853911020558376, 0.02754230050345127, 0.027247187584710182, 0.026953729547473076, 0.026693185961176272, 0.026344973208018516, 0.026128508484669157, 0.025921968873775094, 0.025711596728492585, 0.025529603729196385, 0.025447764673820112, 0.02527895441800706, 0.025128470324142633, 0.024981559541594135, 0.02486955344078511, 0.024701390606215044, 0.024633875852542987, 0.02451131196731663, 0.024480661313472468, 0.02446131406158016, 0.024537941253470794, 0.02453407802801915, 0.02463779968969965, 0.024661319688189364, 0.02470935185279319, 0.024717521799017404, 0.024821141100070433, 0.025008191482657448, 0.02514314127133222, 0.02530171631462469, 0.02541979560919151, 0.025632925032308167, 0.02577215294309984, 0.026036314586360926, 0.02631547896929046, 0.026763034593025502, 0.027056303733171274, 0.027346808125190414, 0.02769685468047468, 0.028071327103576175, 0.02840150870886271, 0.02883366924753397, 0.02933571631182929, 0.029803906301103883, 0.03029695515203761, 0.0307659617302643, 0.0313155756316743, 0.03189286760457129, 0.03248803491736967, 0.03310748571302259, 0.03378121096084504, 0.034447051935212594, 0.035174702602377914, 0.03589127689353925, 0.036637648991187745, 0.03731555372821068, 0.03813384012038013, 0.03911880586160425, 0.03996846285350913, 0.04085201031775685, 0.04164625073731435, 0.042611913051098016, 0.04364283369026363, 0.044656260115313304, 0.04569937901776543, 0.04677254425885576, 0.047876096065492785, 0.04900053959603506, 0.0501670744968474, 0.05136438741824848, 0.05252409354423739, 0.05379273744567418, 0.055123716037779, 0.05644478735689549, 0.0577973733243524, 0.05916224360928863, 0.06058154366348943, 0.062125689779713514, 0.06359673317261266, 0.06510542944955337, 0.06648442565397143, 0.06808844480495818, 0.06977376771107628, 0.07142661983475593, 0.07311184746426116, 0.07482495004708078, 0.0765767256306042, 0.07842551372795858, 0.08023585706248579, 0.08208350445388798, 0.08387484445418673, 0.08580800994083916, 0.08778222287909766, 0.08977710798560726, 0.09180471336784315, 0.0940126508450962, 0.0960878680346161, 0.09811637351475481, 0.10028508972854978, 0.10248854126156678, 0.10461364110933132, 0.10690043346449386, 0.10929377807241025, 0.11162735022308887, 0.11399471072227074, 0.11641049492499578, 0.11884325769229898, 0.12129064255216565, 0.12379414969424228, 0.126330276730231, 0.12889399568243898, 0.13149560968058507, 0.13420281433362624, 0.13685882721718737, 0.13955059575666653, 0.142208588672286, 0.1449782789215627, 0.14773348467647354, 0.15056810498582437, 0.153429753970409, 0.15651507418097202, 0.15940648839761332, 0.16217430119982632, 0.16516155060658522, 0.16817515713090275, 0.17115127267823177, 0.1742255967275545, 0.17736672733712455, 0.1804810457358844, 0.18362108071114336, 0.1867768214411207, 0.189968921285776, 0.19317076044565673, 0.196413436992026, 0.19967925423933944, 0.2030073030500815, 0.20631379282229068, 0.2095712231367561, 0.2129355795176849, 0.21631909304582336, 0.21975607338205413, 0.22317327880700003, 0.22667499234931618, 0.2301249083317025, 0.23359795158680488, 0.23707337286267674, 0.24059188257754538, 0.24407029936454616, 0.24763310935357946, 0.2512098079671349, 0.25481970741941945, 0.25842065478343906, 0.2621042047970926, 0.26572353090478856, 0.26935929079710313, 0.27298080232503874, 0.2766495578222569, 0.2803001295612343, 0.2839943349988497, 0.28769649769312877, 0.29140602863599063, 0.29512231397190436, 0.29878578546999324, 0.30252109712184583, 0.3062578796597151, 0.31000081839265897, 0.31373916794804996, 0.3174096099976213, 0.32115786669433033, 0.3249021036043594, 0.32864720537781156, 0.33238259011212246, 0.336241508238927, 0.3399520760035314, 0.3436648380560826, 0.3473144078621214, 0.35103506210688795, 0.35471059679035, 0.35842370141430985, 0.3621270491283735, 0.3658151645255611, 0.3694978751568009, 0.37317853467331946, 0.37683559555120894, 0.38047996946673684, 0.38417467962678736, 0.3877831288883538, 0.3913652206211467, 0.3949508923653631, 0.39852138021757005, 0.40204604065737976, 0.4055863789192209, 0.40907695797316496, 0.41257956701819926, 0.41605848538856316, 0.41947869012269823, 0.42291259833190764, 0.4262648235578661, 0.4296497698239347, 0.43300302922427, 0.4363735660939794, 0.43965670694849246, 0.4429101902296138, 0.4461332048029327, 0.4493249172401189, 0.4525237628175804, 0.4556453320517873, 0.4586615409808419, 0.4617278256592592, 0.46475590059969024, 0.46772557047974667, 0.4706780096653486, 0.4736777490750875, 0.4765363073809619, 0.479357658910061, 0.4820815604517768, 0.4848320650083896, 0.48752844983170834, 0.49019090820520395, 0.4928071169549426, 0.49535679011389844, 0.4978810364917013, 0.5003608585423737, 0.5027852795778622, 0.5052528510557897, 0.507564532899512, 0.5098300238577482, 0.5119202352562956, 0.514105358158791, 0.5163461070182773, 0.518402153885092, 0.5204068656177321, 0.5223099680598413, 0.5242147908412541, 0.5260229363177537, 0.5278173634198638, 0.5295510342722046, 0.5312973563931973, 0.5328994003560283, 0.5344144976555298, 0.5359043757180161, 0.5373333159350562, 0.538656534750119, 0.5399674509398307, 0.5411346755668742, 0.5423251196134492, 0.5434456650337627, 0.5445360105924771, 0.5455129298971205, 0.5465262434361075, 0.5473564954954524, 0.5481254603672943, 0.5487387998702834, 0.549393983428125, 0.5500289173111202, 0.5505391388701698, 0.5509826659628789, 0.5512902770156952, 0.5516077375731991, 0.551995761525896, 0.5521516968929644, 0.5522441127082585, 0.5521786803121671, 0.5521529088079965, 0.5520556619319041, 0.5518869953640021, 0.5516469644846196, 0.551311071759802, 0.5509315915661337, 0.5505483054023753, 0.5500152848880777, 0.5494140888199299, 0.5486952977375794, 0.5479630887877398, 0.5472574117431522, 0.546369665293135, 0.5454162539694075, 0.5443770037704921, 0.543293258849938, 0.5422347657511547, 0.5410030275381468, 0.5397083641293009, 0.5383500625949887, 0.5369275579869225, 0.5353471131187447, 0.5338068342271657, 0.5321961861066119, 0.5304961841581141, 0.5287492591395164, 0.5269819516704574, 0.5250906556894509, 0.5231342510475875, 0.5210492927840941, 0.5189719715590483, 0.5169844102261854, 0.5147534575175066, 0.5124659374237661, 0.5100577032705241, 0.5076643398644245, 0.5051513701156521, 0.5026446823326262, 0.5000751999445039, 0.4975127974145181, 0.49481237163746306, 0.49194825966096917, 0.4891507030341469, 0.4862924903689558, 0.48339964502624816, 0.48042135845938005, 0.47735364041503797, 0.47427069201597694, 0.47113294362221225, 0.46798593636091823, 0.4647369810068288, 0.461434688256082, 0.4580903646560836, 0.45469908018291383, 0.45125194386344597, 0.4477707814055303, 0.44426948271415995, 0.4406968737873345, 0.4370830330922644, 0.43340916352849274, 0.42971791109775886, 0.4260851665451616, 0.4223031608178899, 0.41848913470437377, 0.4145451783034159, 0.41068055992389463, 0.4067943717234748, 0.40285667024683286, 0.39888624392404964, 0.39490887866028423, 0.390873592482531, 0.3867811899933629, 0.3826953646643376, 0.37858233485453285, 0.37449253380925973, 0.3703228508422453, 0.3660000762894468, 0.3618070749743089, 0.3575879996865616, 0.3534234845353373, 0.34914840841955236, 0.3448231903003571, 0.3405220957000399, 0.33620564631350547, 0.3319244087452257, 0.3275753853243689, 0.32317876853246125, 0.31881908890565497, 0.31445090426397526, 0.3100657521644913, 0.30568586188536984, 0.30136479004637745, 0.29696817638843015, 0.29257289196093944, 0.2881110252182276, 0.28372966163031493, 0.2792944040020667, 0.2749216383815134, 0.27054896137812157, 0.2661831623189533, 0.2618155910870547, 0.25759618648549937, 0.2532237128488085, 0.2488681314593225, 0.24441683754300986, 0.24011045349909424, 0.23574717651750543, 0.2314747080680172, 0.22721319902816534, 0.22308247518153274, 0.2188337645340835, 0.2146376660742861, 0.2104322396618237, 0.20625308114532606, 0.20210073536905426, 0.19797580318692648, 0.19385438027667154, 0.18978937401186624, 0.18575247827467703, 0.1816317024740312, 0.17766819310822046, 0.17393068987045548, 0.1699929095181713, 0.1660947122847153, 0.16209371167730477, 0.15829288085320664, 0.15453876037365483, 0.15080147045539463, 0.14709980978851814, 0.14340059218310638, 0.13977805836611262, 0.13634980083150816, 0.13278297914259796, 0.12926468428707485, 0.12565241868686303, 0.12224903248775908, 0.11895004152223898, 0.11562099451273074, 0.11233861176565528, 0.10908879496114018, 0.10590349953763316, 0.10278556502927277, 0.09969394657565327, 0.0966525736742658, 0.09355883224554773, 0.0906325284337524, 0.08766871892626571, 0.08484624709474488, 0.08206758669932933, 0.07943763122847161, 0.07673866438285723, 0.07417263237297757, 0.07157288484008043, 0.06903273871415591, 0.06647335119543712, 0.06406158416774055, 0.06162576078062671, 0.059333447419629766, 0.057092156794693046, 0.05505023275586278, 0.05289528596129205, 0.0508858068744227, 0.048843762917190274, 0.046769209452994724, 0.04486992380060731, 0.04302880203650616, 0.04120650051514837, 0.03948650345855115, 0.03772407093082419, 0.036128305703415256, 0.03458325866498881, 0.03327157801172517, 0.03180768491144495, 0.030387485723606104, 0.029051846936724763, 0.027776706721298013, 0.02646323619047926, 0.025319715898196263, 0.02433258174340731, 0.023282806204963015, 0.02229253930328997, 0.0214101833994251, 0.020530640513526755, 0.019514908757837564, 0.018779689604564213, 0.018091745224165384, 0.017712054139868583, 0.01708770679115945, 0.01636977439224434, 0.015890638441531203, 0.01546282223340575, 0.015169568857840822, 0.014833070024467678, 0.014556645073006365, 0.014328826709665976, 0.014154447447237734, 0.013914673519595402, 0.013859200800443566, 0.013950884543945337, 0.013970508712372409, 0.01404001928824893, 0.014153580465200898, 0.014320733995006316, 0.014662475502144083, 0.014906468704386062, 0.01520289197671974, 0.015392760723581339, 0.015808539534064737, 0.016341377744924297, 0.016823971173114148, 0.01734895430233034, 0.017989014407124262, 0.01858655596884922, 0.019154091596794955, 0.01984675053400801, 0.020575994413479112, 0.021385262832883476, 0.022179805763555754, 0.023011117742622197, 0.023878062893255676, 0.024779540732782514, 0.025837254703132573, 0.026789093189180515, 0.027661361101831858, 0.028702698338951217, 0.02977187860198734, 0.03102527581075627, 0.03212794017068923, 0.033353319281084426, 0.034511386792507356, 0.03570477084144972, 0.03679348428219021, 0.038067652034782, 0.03960321592678284, 0.04088767002262025, 0.04220478325452927, 0.04342415285513107, 0.04481482062307695, 0.04624318966454749, 0.04766646827940213, 0.04910691697469368, 0.05061747321724029, 0.05208224206905399, 0.05359359739410916, 0.05508751930367323, 0.05659758185431208, 0.05818620197992101, 0.05971630144099595, 0.06121303709746474, 0.06277917395432311, 0.06435511068419694, 0.06589072728823725, 0.06748949972644977, 0.06915629590048478, 0.07075490105639036, 0.07236034479937715, 0.0740158366039092, 0.07562645831067305, 0.07731725736236388, 0.07893039853721338, 0.08055188436890211, 0.0822046444684656, 0.08383498244386457, 0.08547058158800593, 0.08711000663438145, 0.0887519514716566, 0.09045415760886856, 0.09209022759069822, 0.09379761451117391, 0.09542874277999515, 0.0970636762803512, 0.09872038894855252, 0.10035561991282717, 0.10184885459060324, 0.10350159327076833, 0.10514423053690632, 0.10682105537837637, 0.1084381532559998, 0.11015097215994124, 0.11173989349388477, 0.11332658211525709, 0.11494923134123054, 0.11652333228161546, 0.11794716529852191, 0.11953294982814194, 0.1211055319258949, 0.12282734625483888, 0.12435411836189533, 0.1257746679024616, 0.12730726331115635, 0.12882905345873302, 0.1303695607076806, 0.13186619383529352, 0.133319494726185, 0.13480240760261494, 0.13627416263282, 0.13783317173536502, 0.13927077160046641, 0.1406934811901305, 0.142121589465323, 0.1435429852457776, 0.14495243220674384, 0.14636012219931185, 0.14779935277803913, 0.1491865021480396, 0.15056800363300704, 0.1518797224785136, 0.1532572064467538, 0.15473777928516014, 0.15608171137999657, 0.15742302998890667, 0.1587907515470019, 0.16012188686647952, 0.16135283581645107, 0.16269208699740162, 0.16402324197690804, 0.16535185818401613, 0.1666681380294297, 0.16799326612906482, 0.1692965189427118, 0.17059592887064265, 0.17194601316424063, 0.17323241902288963, 0.17434768272932244, 0.17565742065817275, 0.17695856149346242, 0.17828220524106447, 0.17956721611839926, 0.18079583714076458, 0.18208402829854917, 0.1833689441687298, 0.18484353467989564, 0.18610186157600087, 0.18723415507562732, 0.18853244365921154, 0.18983387444316013, 0.19120817527918862, 0.19251008953715273, 0.19380219123660677, 0.19512658731080418, 0.19646043092180077, 0.1977601080355487, 0.1991202080567842, 0.20057748412474977, 0.20194496345273671, 0.20332815005234986, 0.2046830810880353, 0.20610404383323477, 0.2075489563286953, 0.20899770677118712, 0.2104626896646208, 0.21187094698620812, 0.2133798400582792, 0.21493245492859264, 0.2164674703073781, 0.21802100220130366, 0.21956947220922254, 0.22116604665761236, 0.22279244084109204, 0.224428877212607, 0.2260880355866292, 0.22771684234191686, 0.22943108789853758, 0.2311776076460591, 0.2329368230414565, 0.23483453235745652, 0.2366316374934394, 0.23846274356243316, 0.24033284033230978, 0.2422316337260791, 0.2441454988045387, 0.2461164342718392, 0.24812149240106626, 0.2500776754312129, 0.25216302040758065, 0.254421746145529, 0.2565522280431669, 0.2587240272874791, 0.2609223464029858, 0.2631785306798246, 0.26531809723911887, 0.26767548455119056, 0.27006516379948864, 0.2725967815123855, 0.27504207459107105, 0.27752525537914857, 0.2800571485722054, 0.2826323359466836, 0.2851775868915098, 0.2878499729546169, 0.2905922729661763, 0.2933428407654918, 0.2961374496691776, 0.29900618087780784, 0.30188695204581456, 0.30489862842994675, 0.3078639437864484, 0.3108818793171974, 0.3137457519074463, 0.3168938065479998, 0.32022425980881786, 0.32343569764344815, 0.3266978041001343, 0.3299221603204205, 0.3332967216626663, 0.33677096448612204, 0.3402307211663289, 0.3437404875694567, 0.3472758060205324, 0.3508889639119573, 0.35451168662941884, 0.35822773982465256, 0.36199083890773665, 0.36574249718584867, 0.36960838838714377, 0.37372045357238737, 0.37765122375934773, 0.3816393630522824, 0.38552654654418145, 0.38964586127658085, 0.39380555928856714, 0.39801642029674417, 0.40227288001756306, 0.4066635305846223, 0.41100051213551386, 0.4153147252249456, 0.4197620568232892, 0.4242546596229245, 0.42882678165129046, 0.433405133172818, 0.4378827899260314, 0.4425724543612261, 0.44729930435038223, 0.4520835504642728, 0.4568838224708868, 0.4617874409254415, 0.4666586017425487, 0.47157264604779436, 0.47646496426005663, 0.48147051763760706, 0.48648352319009636, 0.49156630508442517, 0.4966835984853232, 0.5019235361593478, 0.5070977813892676, 0.5122760305905311, 0.5175301251111698, 0.5228181640989445, 0.5281981137983641, 0.5335436680058495, 0.5388989420408538, 0.5443146316647329, 0.5497602168445364, 0.5551313134485174, 0.5606459663943156, 0.5662300754473912, 0.5717787877725067, 0.5773496474662803, 0.5828188598153624, 0.5884464324289849, 0.5941204567963795, 0.5997676869912165, 0.605428473729408, 0.6111855842652488, 0.6168606800508567, 0.622458284063378, 0.6281751646313976, 0.6338993494305145, 0.6396152367676381, 0.6453532033241671, 0.6510456908776564, 0.6567961507158173, 0.6625454556190133, 0.668396008147023, 0.6741276728339671, 0.6797878053213489, 0.6855311915499511, 0.6912688867556325, 0.6969112742651422, 0.7026450493629905, 0.70837908755253, 0.7140814044975731, 0.7197686397812179, 0.7255134424799833, 0.7311580697635296, 0.7367835441618487, 0.7423984699573232, 0.7479952147050384, 0.753488520806614, 0.7590541518964459, 0.7644639428143474, 0.7699883306904504, 0.7754751727344162, 0.781066697082098, 0.786459689995785, 0.7918122067991432, 0.7971433021252398, 0.802439541478471, 0.8076451766100708, 0.8128733535296506, 0.8180732042802292, 0.8232121233908322, 0.8283062111083026, 0.833334344914622, 0.8383367994340055, 0.8433526770275519, 0.8482448604289382, 0.8530874596928505, 0.8578883763743474, 0.8626248526847563, 0.8672379243303332, 0.8718719286695974, 0.8764437519324648, 0.8809570974512357, 0.8854002931593569, 0.8898122764746723, 0.8941186491536985, 0.8983587602658327, 0.9024426325399788, 0.9065566905274017, 0.9106341769262375, 0.9145907835324325, 0.918472149003986, 0.9223114662652148, 0.9260344523149114, 0.9296609348307691, 0.9332312333381458, 0.9367207088724644, 0.9400643094124826, 0.9433966013193532, 0.9466900288785295, 0.9498395320910034, 0.9529025129315339, 0.9559613568521568, 0.9588374594806336, 0.9614320570691903, 0.9641611599496557, 0.9667908782486532, 0.969419518646271, 0.971838213011995, 0.9741630095067091, 0.9763929418750285, 0.9785270769448631, 0.9805203168891558, 0.9824657810979388, 0.9844429666284941, 0.9861694789319246, 0.9878016713642203, 0.9893085616805125, 0.990751423116788, 0.9919910225076862, 0.9932457512422473, 0.9943928246547943, 0.9955403581229796, 0.9964586539634464, 0.9972411173721207, 0.9979599776211117, 0.9985738063643033, 0.9989397752193048, 0.9993603611356483, 0.9997404957589269, 0.999924412265454, 1.0, 0.9999428056280515, 0.9998051452383488, 0.9995826431739988, 0.9992233981488354, 0.9987567467717317, 0.9982220705343825, 0.9975359429835259, 0.9967793394792633, 0.9958790097952744, 0.9949688293574341, 0.9938500897606507, 0.9926329335914847, 0.9912379286363179, 0.9898314809781308, 0.9882906932114549, 0.9866784934655188, 0.9849603710992005, 0.9832007984347089, 0.9812646772416214, 0.9792134569327611, 0.9770786657852936, 0.9748431730991474, 0.9724190778208024, 0.9699949101195388, 0.9675158666368334, 0.9648789095550908, 0.9621434696868211, 0.9592220840537539, 0.9563036819482215, 0.9532945364768112, 0.9501754837695028, 0.9469597979342813, 0.9438110660051996, 0.9403861679616529, 0.9367849042583937, 0.9332058233696002, 0.92953886296005, 0.9258883140104912, 0.9220360696418692, 0.9179285133406364, 0.9139420040321816, 0.9098680233088722, 0.9058609006433449, 0.9015989358006706, 0.8971266221385423, 0.892737051533023, 0.8882684183969253, 0.883860236997625, 0.8792220740255946, 0.874415334520194, 0.8696601040606503, 0.8648353228116301, 0.8599722821535565, 0.8550101407134149, 0.8500002830438674, 0.844912945256862, 0.8397671396655222, 0.8344170343807532, 0.8291774453924026, 0.8239150042728669, 0.8185489530603631, 0.8131284185310552, 0.8077391330645957, 0.802205762317017, 0.7965849796431406, 0.7909722019270086, 0.7853166406573354, 0.7796250836963712, 0.7738889610775768, 0.7680864845688617, 0.7622821391229617, 0.7564429121200844, 0.7504972124328347, 0.7446037284292455, 0.7388050563882262, 0.7328322806874675, 0.7268389002874581, 0.7207722921540727, 0.7147487774719151, 0.7086421317388532, 0.7025900883264611, 0.6965191132882573, 0.6904758675975303, 0.684368753077931, 0.6781983343045271, 0.6720813812158459, 0.6659558982640372, 0.6599322342262097, 0.6537828918755225, 0.6475739776470906, 0.6414425096157568, 0.6353143115397182, 0.6292207349407146, 0.6231009920008701, 0.6170457999340337, 0.6109418882513894, 0.604854753115168, 0.5987070114443439, 0.5926670019785474, 0.5865841840221233, 0.5805858595835433, 0.5746042907057254, 0.5686320446638161, 0.5626923025425158, 0.5569033424428309, 0.5509958606628456, 0.5451229753617621, 0.5391923995860812, 0.5334036215066255, 0.5276277791714035, 0.521908557598608, 0.5162245821567497, 0.510474680695529, 0.5048800354613358, 0.4994972989685803, 0.49395311260168134, 0.4884589626706836, 0.482814348813255, 0.47744831005624133, 0.4721285695725677, 0.4668472469538645, 0.46161253209851616, 0.45643151361255624, 0.451295779438658, 0.4462965183754975, 0.44125793571378963, 0.4362803813605831, 0.43136470711156294, 0.4265117554286179, 0.4217076256239486, 0.4169844665815614, 0.412325663970482, 0.40778615080632424, 0.40325194042434215, 0.39884670100072395, 0.3944455122945087, 0.3901184828077937, 0.38584102443962937, 0.381665392569628, 0.3774939033574063, 0.3734731142757259, 0.3695221015944941, 0.3655485069131054, 0.3617516336018084, 0.358110371129359, 0.35443827966134234, 0.35084127730833453, 0.347265881987994, 0.3438274644149859, 0.34047242731922667, 0.3371807450306716, 0.3339648014990513, 0.33092833103976194, 0.32785257064780404, 0.32480101460596916, 0.32189855318722654, 0.3190751172073839, 0.3163111927956427, 0.3136486513082552, 0.31110853173494696, 0.3085970476258773, 0.30616661470897993, 0.3037973346577997, 0.3015307214392679, 0.29928926263432876, 0.2971877158761733, 0.29516205620627245, 0.29322727707411494, 0.29135222629787827, 0.2895495119308492, 0.2878294801609122, 0.2861861712432084, 0.2845948646058554, 0.28310755241482505, 0.28159670417076227, 0.2802710467065705, 0.2790142292572163, 0.2779249892735979, 0.2767948283580028, 0.27579903500121966, 0.2748115792398052, 0.2739014074679064, 0.272969059268151, 0.27222218203381815, 0.271553269816225, 0.2709410723145717, 0.27039676207260915, 0.26994921150206624, 0.2695351142698633, 0.26930647500410615, 0.26901167999055187, 0.2687891052937904, 0.2685336563256866, 0.2684627682929104, 0.26841833647885455, 0.26847259790300976, 0.26858400622917705, 0.26878628954088, 0.269005636725389, 0.26920335450524757, 0.26954542519608016, 0.269937810909514, 0.2704143845496797, 0.2709014488701698, 0.27142423903239304, 0.2720130438572047, 0.27264936373861504, 0.27330765042267147, 0.2740390773029692, 0.27475459276449266, 0.27557858467208957, 0.2765189527109623, 0.2774080461410913, 0.2783381096147207, 0.27921443187667794, 0.280234011843804, 0.2813980370741884, 0.28246564494534177, 0.2835696290082489, 0.28458544176264217, 0.2857724106545026, 0.2869983707927726, 0.28823129729268454, 0.28948781935351847, 0.29077676072658293, 0.2920761752352436, 0.2933965616669649, 0.29473667602273496, 0.29609524115947283, 0.2975347934457355, 0.29891824728931005, 0.30024608583983725, 0.30167307064631976, 0.3031102599946454, 0.30456628454603274, 0.30601903781537815, 0.30749853208542455, 0.30896164981463703, 0.31043026663092566, 0.31192250899066737, 0.31339510538913756, 0.3147912272958227, 0.3162763342251996, 0.31775591865226294, 0.3192487020838409, 0.3207119458766016, 0.3221531401820747, 0.3236024148184921, 0.3250411400391868, 0.3265369738427354, 0.3279426049081908, 0.3293038346788975, 0.3306920732147726, 0.3320650406756547, 0.33336251246535176, 0.33470852819106545, 0.336110719892189, 0.3374012444227453, 0.3386722243047735, 0.3398043371923944, 0.3410468006668854, 0.34241111470321917, 0.34357318819471827, 0.34471261413570814, 0.3457834695510697, 0.346878112048376, 0.3479918472275374, 0.3490191507818496, 0.3500170354571841, 0.35090550387792324, 0.3518502993530696, 0.35278670338698465, 0.3536514971699243, 0.3544789511648678, 0.35517493796131583, 0.3559370735145875, 0.3566984412803358, 0.35736505645585154, 0.35798911653385423, 0.35857995806057597, 0.3591162022721053, 0.359662986614151, 0.36010486319264673, 0.360505148363581, 0.36079901394844227, 0.3611212985878567, 0.3613072564400692, 0.36154457903826986, 0.3617284480005732, 0.36198205986241755, 0.3620446814286949, 0.3619340745366735, 0.3619209574258065, 0.3618536082483663, 0.3618993589892038, 0.36170344903318397, 0.361360438108265, 0.36108846898259367, 0.3607645555096216, 0.36046718853386445, 0.36002920601097643, 0.3595434579776945, 0.35900925464607497, 0.3584259975978999, 0.3577342428216532, 0.35705887039752077, 0.3563052779382556, 0.3555258644706641, 0.3546917846754071, 0.35375923786101915, 0.35282259167157864, 0.3518741490355387, 0.3508206444746899, 0.3497150159774802, 0.3486852221140908, 0.3474600356555955, 0.346151459445906, 0.34484231920143826, 0.3434855810436423, 0.342041829964606, 0.34059456161727963, 0.3390040376094786, 0.3374690844131326, 0.3358797995428647, 0.33429141649348876, 0.3325902088135271, 0.3307527446368503, 0.3289675884482033, 0.32713080777896125, 0.3253714069314577, 0.3234191158208205, 0.3214162791667448, 0.31938386888483034, 0.31731043162965844, 0.3152306544546457, 0.31307180424986014, 0.31087004064503004, 0.3086359973667604, 0.3063641380012505, 0.30396153921289415, 0.30162706031900993, 0.29929506248468835, 0.2968728683506727, 0.29441400827936487, 0.2920470354217922, 0.2895013174595185, 0.28675685563631165, 0.28417901989503797, 0.28156455943403214, 0.2789444554331775, 0.27625750809925675, 0.2735792535035654, 0.2708272695311112, 0.2680491231002129, 0.2652897932096232, 0.26245610579189255, 0.259527502534337, 0.2566611332801654, 0.2537704617105812, 0.25093529094956, 0.24798974695160583, 0.24493463509926203, 0.24196891486694683, 0.23898285618310602, 0.2359778786203984, 0.23295536086157237, 0.22991664428779768, 0.22686303625922424, 0.2237958131076702, 0.22071622286025505, 0.21762548771176723, 0.21448551881909303, 0.21138103503414482, 0.20826673344798688, 0.20510969155359737, 0.2019844062113542, 0.19890068066353664, 0.195755663181937, 0.1926089275753432, 0.1894713308613523, 0.1863230088465159, 0.18322078350053903, 0.1800715884072084, 0.17692860846065353, 0.1737138305746026, 0.17059494326867708, 0.1675140460557285, 0.16439934713009702, 0.16129275750456773, 0.15823450236284767, 0.15514197060359552, 0.15218040827696624, 0.14909979118769878, 0.14604013307627392, 0.14288819900978803, 0.13988403097273774, 0.13674671515785886, 0.13379053990992332, 0.130842273772629, 0.12796792071759988, 0.12503372496581017, 0.12216123370363072, 0.11925766553380547, 0.11637643085927701, 0.11345441998878383, 0.11062811323485432, 0.10774415460221842, 0.10497084732279516, 0.10221641698680285, 0.09970356309087615, 0.09696392841192449, 0.09427501993952486, 0.09160505543465791, 0.08890727552814214, 0.0863170801073133, 0.08375872197373561, 0.08128166724930518, 0.07878186502197873, 0.07623429687281329, 0.07381650011986136, 0.07142981643354325, 0.06906521352954235, 0.06674432623546879, 0.06442187370719088, 0.06217170725713982, 0.059953880682151454, 0.0578577291268165, 0.055696145731262935, 0.05349097137417239, 0.05141974912504479, 0.0493837950850016, 0.04745259819766138, 0.04548063086029421, 0.043461411178635986, 0.04158290968242743, 0.039740608168774616, 0.03800890874624573, 0.036231829110769595, 0.0344430466904714, 0.03275735745665793, 0.0311108151980111, 0.02956763945276932, 0.027992403368738584, 0.02651490775979874, 0.025020010690672854, 0.023571346768232915, 0.022153522106232063, 0.02079727467959606, 0.01954358533764566, 0.018266786378162567, 0.01703624585877949, 0.015836464124655617, 0.014698084821622028, 0.013607984161674707, 0.012555288620124972, 0.011545415033667569, 0.010681096817521033, 0.009742673786997719, 0.008851768659798495, 0.008007242236835929, 0.007208077169844621, 0.006487740402321736, 0.005772318174985323, 0.005077176984269116, 0.0044535958983424155, 0.003871700049982373, 0.0033309341306896304, 0.0028307921919934072, 0.002410097402354617, 0.0019848784007016457, 0.0016011943315842041, 0.0013320161596178106, 0.0010200674414922249, 0.0006929435557745695, 0.00047482236989930743, 0.0002949880317907038, 0.00030522227986191935, 0.00018136835020007082, 2.4472137173762074e-05, 0.0, 1.3578804277679039e-05, 0.0002167706504743501, 0.0002852247812612277, 0.00032472725312990806, 0.0004901519406940598, 0.0006928024654868494, 0.001010423992511738, 0.0012751741217723724, 0.0016087414642393474, 0.0019471954173565045, 0.002324231129920905, 0.002669819223091149, 0.0031290078775187426, 0.003752048518280618, 0.0042565984067348015, 0.0047990885505578154, 0.005432117132575942, 0.006039534630176942, 0.006625139673211907, 0.007312771170498278, 0.00803141835276282, 0.008878587871115947, 0.009644774589284864, 0.01046517510845218, 0.011296679307021919, 0.01216131584064395, 0.01302347173317664, 0.01395513787233392, 0.015052173201343812, 0.016021563016783598, 0.017025353781278577, 0.01802754956660429, 0.019099808754214985, 0.02003322597656954, 0.021181990737484484, 0.02234787599662636, 0.023673946674639356, 0.02485791464275018, 0.026127590516342836, 0.02735689870687083, 0.02861483387745194, 0.029806980228348202, 0.031130753910726942, 0.03257313569571058, 0.033925214106063965, 0.035303069331186716, 0.0366714544559399, 0.03810268461564074, 0.03963397568306973, 0.04109788277220535, 0.04258699279284232, 0.04401688135958044, 0.045564237248430874, 0.047217982701108746, 0.04879015298208778, 0.050385277479392976, 0.0519338789307945, 0.0535815112408029, 0.05535433747166727, 0.05702266169230535, 0.05871428305372462, 0.06028103187545069, 0.062035448422409226, 0.0640236480480663, 0.06577632000017253, 0.06755534070078345, 0.0692022601450368, 0.07105010754397935, 0.07304955716386108, 0.07490861416688599, 0.07679025294076762, 0.0786102151569934, 0.08054536227714729, 0.08247184436881053, 0.08444206507007464, 0.08642717259176254, 0.08836370365679579, 0.09038776445630128, 0.09253222313383122, 0.09456815419993683, 0.09662405330523861, 0.09866042142774413, 0.10076062964405855, 0.10283879728755485, 0.1049786828471682, 0.1071340354632693, 0.10931519522171501, 0.11150175065253283, 0.1137646826907067, 0.11597899992944502, 0.11821469339732535, 0.12042737553436669, 0.12271088608197324, 0.12502758645208242, 0.1273464371268173, 0.12968514014832747, 0.13206840403133938, 0.13444417779411583, 0.13679256113131502, 0.1392179645573786, 0.14166232933076234, 0.14415065091134266, 0.14663113541133685, 0.14909884517142383, 0.15162706754143263, 0.15417534874336497, 0.15669015308050657, 0.159286810158983, 0.1619509840277899, 0.16457909829983122, 0.16723000747744451, 0.16987947828817201, 0.17258003756591314, 0.17528822127237642, 0.17803585510945397, 0.18080598469455486, 0.18365319044421047, 0.18646312454957717, 0.18922649407623385, 0.1920999650291525, 0.19499647711611048, 0.19801491709481536, 0.20094704747072023, 0.20387030230441586, 0.20686796590577936, 0.20989338225542606, 0.2130154793826915, 0.21608824518671654, 0.21921773563340324, 0.22235139082555266, 0.22551797899965464, 0.2286434392069623, 0.23188410213348215, 0.23514280061224935, 0.2384408474534882, 0.24176704255102138, 0.24505311412485595, 0.24844571931346482, 0.2518394357285995, 0.2552874450858384, 0.25886962933246915, 0.2623572426620895, 0.2658789451083714, 0.26936101024236575, 0.2729600420216891, 0.27669204246357676, 0.2803383092212517, 0.28402133746244423, 0.2877260517936194, 0.29148349246229116, 0.29513358043682125, 0.2989790761304851, 0.30285150523277765, 0.306737239210115, 0.3106685828631841, 0.3147124591334871, 0.3186922123371936, 0.322707328193907, 0.32670377208912943, 0.3307963895187299, 0.3349359960023641, 0.33909165181645096, 0.3432811036348012, 0.3474897655011688, 0.3517490727765046, 0.35597292024426846, 0.36030766033135625, 0.36467209522486105, 0.36910121672430163, 0.3735224317225952, 0.3780946613902853, 0.38256731980056463, 0.38707977846149716, 0.39156719699746234, 0.3961644101788022, 0.4008098017281769, 0.40547176566463655, 0.4101674372379382, 0.4147883606741782, 0.41956386521680167, 0.42447381777481186, 0.42928893713311783, 0.43413733816757, 0.4389300071182289, 0.4438543125507282, 0.4487363790623333, 0.4537225371824475, 0.45873153325417193, 0.46375407358383036, 0.4688114337209528, 0.4738627968811357, 0.4789710466065024, 0.4841014496292109, 0.48939666572697704, 0.4945539729193414, 0.49960919699992445, 0.5048430489818938, 0.5100975319716516, 0.5154020242064977, 0.520693687454489, 0.5259530785644991, 0.5312944847764122, 0.5366533986336365, 0.5420295899285097, 0.5474227387764001, 0.5529061076277778, 0.5583225797881763, 0.5637587247652969, 0.5691740599745401, 0.5746509504116184, 0.5800681113855326, 0.5855813524629614, 0.591102702377685, 0.5967399085026939, 0.6022628403258139, 0.6077545858164792, 0.6133077038563884, 0.6188685365723533, 0.6243182174880925, 0.6299063517784852, 0.635526900012497, 0.6411066581110346, 0.6466860417175196, 0.6523135276906116, 0.6578839821259307, 0.6634154189137974, 0.6689901514743434, 0.6745604855463582, 0.6801795170448122, 0.6857314074638969, 0.6911120594512562, 0.6966750482495035, 0.7022214624015937, 0.707775758877294, 0.7132854761875539, 0.7187547136485232, 0.7242349818959047, 0.7296964546290426, 0.7351531958599433, 0.7405731150855521, 0.7459482341226716, 0.751329727607636, 0.7566874671245409, 0.7619763145658933, 0.7672892498525703, 0.7725140120134696, 0.7777751552251274, 0.7830021416697734, 0.7883320230800317, 0.7934718194095732, 0.7985146892450079, 0.8036049272037418, 0.8086593720827591, 0.8136620313941642, 0.8186429471805802, 0.8236177651641632, 0.8285121779765351, 0.8333656006356857, 0.8382256046079335, 0.842986238955187, 0.8476647825395093, 0.8523428898931558, 0.8569722785990471, 0.8614581942538188, 0.8659976189642922, 0.8706310359211316, 0.8750340726148211, 0.8793860372988271, 0.8835916092172769, 0.8878472806733143, 0.8920114101099879, 0.8961456486231034, 0.9002141258147377, 0.9042455016465832, 0.9081762711773872, 0.9120354829205102, 0.9158324260385913, 0.9195601423741045, 0.9232322581347123, 0.9268163399348541, 0.9301862915319942, 0.9336437373679174, 0.9370190664034793, 0.9403760911936632, 0.9435789054461773, 0.9467322143244747, 0.9497724970287026, 0.9527337158021552, 0.9555656285609487, 0.9583715500771771, 0.9609990063477302, 0.9636457341312067, 0.9662006893503421, 0.968821047938001, 0.9711725594121416, 0.9733132014683037, 0.9755129636958928, 0.9776194159510407, 0.9798433992465322, 0.9817354967192748, 0.9834713461417619, 0.9852054398067001, 0.9868487014586474, 0.9883704637713158, 0.989832265638607, 0.9912424223307352, 0.992506222577937, 0.9936752487346593, 0.9945717082030185, 0.9955706242537204, 0.996540665176258, 0.9973154029636434, 0.9979883058808485, 0.9985346428693322, 0.9990064478457455, 0.9994088802787251, 0.9996688620385538, 0.9998270486766941, 0.9998929765302805, 0.9998455010666847, 0.999617430848438, 0.9993755676283281, 0.9990267482928825, 0.9985517550390012, 0.997992744305046, 0.9974348789637776, 0.9966489026395863, 0.9957630245923486, 0.9947178592256228, 0.9936383482529423, 0.9924446878436987, 0.9911580195611174, 0.9897669970708608, 0.9883161811360859, 0.986711956795973, 0.9849775058346514, 0.9831755227374883, 0.9812712600242313, 0.9791914449394074, 0.9770931353148741, 0.9750026132711829, 0.9726807574525231, 0.9702179578769928, 0.9677082709311106, 0.9650995832444023, 0.9624563235239446, 0.959643352310957, 0.9566680601569407, 0.9536768094732431, 0.9505885537782218, 0.9475122320157787, 0.9442190164639204, 0.9407393815825125, 0.937282260216584, 0.933731706754026, 0.93012811780851, 0.9263890702982421, 0.922542510429172, 0.9186310362948625, 0.9146322980101602, 0.9105130069729781, 0.906347378117487, 0.9020860801873983, 0.8977514443378284, 0.8933332930464336, 0.8887742060409578, 0.8842009942896124, 0.8796240312576025, 0.8748781880298073, 0.8700582766341015, 0.8652489898692455, 0.860274039920334, 0.8550418977158497, 0.8499604598620063, 0.8448039764188323, 0.839687781547977, 0.8343739785073488, 0.8289836075812529, 0.8235492157375128, 0.8180546459604293, 0.8125160588178679, 0.8069035807219749, 0.8010936977174787, 0.7953906362174619, 0.7896274041643753, 0.7838950022054919, 0.7780079558665395, 0.771989711664877, 0.7660193973480718, 0.7599998979764987, 0.7539089527902723, 0.7478009972769464, 0.7416982610304288, 0.7354986148746422, 0.7292623574941558, 0.7229372322864104, 0.7166398637223031, 0.7104063351163679, 0.7040299671474062, 0.6976290275371476, 0.6911163982197669, 0.6846813803681138, 0.6783779696428653, 0.6718741337335805, 0.665357800797837, 0.658854310838175, 0.6523123556134965, 0.6456686793174183, 0.6391226096988483, 0.6325648332269243, 0.6258351684950997, 0.6192801024068928, 0.6127835243382315, 0.6061919618384476, 0.5995955282208637, 0.5929670148586944, 0.5863712697318663, 0.5798983526108492, 0.5732895079869502, 0.5666921562449883, 0.5600485410301096, 0.5534852061568271, 0.5468993659603804, 0.5403659171648278, 0.5338459841508462, 0.527317044798165, 0.5208332911074094, 0.5144216335547763, 0.5079692795717434, 0.5015421203846895, 0.49522515341922696, 0.48884235892915584, 0.48245467791932495, 0.476146476550116, 0.4698721948410884, 0.4636331146182137, 0.4574305364543222, 0.4511086258421794, 0.44500287626904267, 0.4389287806073116, 0.4328692923095438, 0.42686862227456823, 0.42095985575003375, 0.41503044168034214, 0.4091464387734792, 0.40333401310847095, 0.39754249571784533, 0.3917778518244105, 0.3860935220597154, 0.38046166559408096, 0.37483453731117683, 0.36931787525263576, 0.3639530830606431, 0.35853291212806876, 0.3531750238613097, 0.34790951946250814, 0.3426743951323341, 0.3374069431014429, 0.3323164570420465, 0.3272872614780867, 0.32239431236580285, 0.31748218615579377, 0.3125065475918722, 0.30774984056329724, 0.30305576352022773, 0.298484819326838, 0.29391313729758695, 0.2894657497822636, 0.28502852477981894, 0.28066603880074154, 0.2762802914184968, 0.27208036857443646, 0.2679503604716286, 0.26389130054343934, 0.25990412553319536, 0.2559798599450789, 0.25214015101562015, 0.24847228481653655, 0.2447680935994238, 0.24114433477626068, 0.2375860205231554, 0.23412425266232575, 0.23072176194489588, 0.22742025291775392, 0.22419642828929368, 0.22113877144466507, 0.2180593739891484, 0.21498423076867587, 0.21207972452120183, 0.20925229582865656, 0.20649707743029747, 0.20382452145167632, 0.20117968628936211, 0.1986669797572516, 0.19622826831858078, 0.1939522457905546, 0.19165115310814212, 0.18922830588856956, 0.18711119919299452, 0.1850610847371651, 0.18320172228578477, 0.1812728361701358, 0.17937603050287657, 0.17760475684927834, 0.1759061882136464, 0.17433411407937932, 0.17277336406972582, 0.17116959341108323, 0.16977256905287746, 0.16844205001692772, 0.16723704826238311, 0.16603220845618483, 0.16487742129757682, 0.16381372564747423, 0.1628171234166837, 0.161950812433206, 0.16107834153953973, 0.16026464333332816, 0.15952930412108057, 0.15885943304040048, 0.1582784077642989, 0.1577328449427264, 0.1573291928576481, 0.15689901071279772, 0.1565338888230772, 0.15609929567876438, 0.15587534767386443, 0.1556494726570499, 0.15553593316220324, 0.1554701751342467, 0.1554764556015821, 0.15550215392578093, 0.15566419730887193, 0.1557738210780863, 0.15593470610034516, 0.1561059479522485, 0.1563695111247045, 0.15676087934094057, 0.15710133073032898, 0.15748838615748936, 0.15784649463108277, 0.15833048378443793, 0.1588171172840354, 0.15937839711807594, 0.15997255263622986, 0.16065765308482755, 0.16130747116327573, 0.1619416253098132, 0.16266306440136605, 0.16339261095670832, 0.16417098896342192, 0.16497388834251037, 0.16588384257458508, 0.16672232646445206, 0.16756247273376257, 0.1684547482053603, 0.16936841946847978, 0.17029712344124823, 0.17124986903902914, 0.17228818521566017, 0.17326451290689981, 0.1742588071179031, 0.1751562254661615, 0.1761951391505319, 0.1771813051720881, 0.17823926929943937, 0.17929852158320722, 0.18038322239841725, 0.18144066301078457, 0.18247474120844356, 0.18353680853802526, 0.18459691909492706, 0.18564941039365165, 0.18670391451112725, 0.18788144599080028, 0.18890962668832129, 0.1899385420634173, 0.1908827363989636, 0.1919178642308338, 0.1929974372813666, 0.194005558889081, 0.1950050801396031, 0.19604855434391802, 0.19701969912802642, 0.197971214658688, 0.19892224170303435, 0.19985952144338284, 0.20065389809400136, 0.20157548771879716, 0.20256036800829, 0.2034203361982062, 0.20425962748458906, 0.20496913442234702, 0.2057775683765223, 0.2065954594962825, 0.2073391755543079, 0.2080550118392444, 0.20875224529415748, 0.20940942855989017, 0.21004251288187029, 0.2106403930925677, 0.2112082187035566, 0.21175021000584296, 0.21225524741843974, 0.21280214081545235, 0.21323356489111525, 0.2136359708357144, 0.21390500046025143, 0.2142588205278532, 0.21459407779375866, 0.2148688743153511, 0.2151062891229919, 0.21520286491906235, 0.21537757614202266, 0.2156358332106719, 0.21570664492138913, 0.21574143352554026, 0.21568550065894745, 0.21565309594398221, 0.21553557308181423, 0.2154268372243354, 0.21527453748364703, 0.21509367702971902, 0.21485315573409303, 0.21466389642088707, 0.21432753254477271, 0.2139544436655829, 0.2135832012022638, 0.2131296398629672, 0.21246288954517914, 0.21195811802662282, 0.21140559976103251, 0.21094862106208834, 0.21028513338694943, 0.20963829667084038, 0.20889276098421977, 0.20811202068779863, 0.20715783371669802, 0.20632199438469073, 0.20556909754949756, 0.2046283691885333, 0.2036515078656356, 0.20249083631881742, 0.20145939112549233, 0.20042699563617025, 0.19930078505814183, 0.19813407988302753, 0.1970552036671389, 0.19579327729595264, 0.19439188245476222, 0.19308035928101847, 0.1917306697541883, 0.19035825679403906, 0.1889325005434528, 0.1876286812570303, 0.1861132223157537, 0.18457257193621274, 0.18282930108975232, 0.18125888677001903, 0.1797157978472394, 0.1780655378158452, 0.176384816676446, 0.17473322428530833, 0.17298613353742964, 0.17110590481165264, 0.1693225395203986, 0.1675086143297395, 0.1657390747562106, 0.16385851947666405, 0.16184722275626734, 0.15993550237244827, 0.1579962146250295, 0.15612910605124014, 0.15412677797081373, 0.15206257347032082, 0.15003102268048954, 0.14798045017258957, 0.1459363998708209, 0.14384764202380096, 0.14172454989401553, 0.13960967322428278, 0.13748058240325695, 0.1353726317180953, 0.1332136982436836, 0.131084696955919, 0.1289027843459497, 0.12671515266347652, 0.12447805131512102, 0.12228597980972612, 0.12016582090922788, 0.11795147531020003, 0.11573685213074564, 0.11338480781770789, 0.11118818297476818, 0.10909783590101998, 0.10687526894648852, 0.10465566012056071, 0.10243472478929867, 0.10022357838170863, 0.09809570210275727, 0.09588480177041486, 0.0936846140362939, 0.09140695186022592, 0.08924009293837244, 0.08700623468016858, 0.084863201545631, 0.08272504446397286, 0.08056403239211372, 0.07844446263636422, 0.07641653049595366, 0.074304420750978, 0.072208469347521, 0.07023756117229771, 0.06816279798249263, 0.06609313984080695, 0.06407032578310774, 0.06207119758942484, 0.06005678971762994, 0.05811102841998657, 0.05623209124422287, 0.05432679577368213, 0.052448213746427996, 0.050572240072316026, 0.04875158024474197, 0.04695772473395641, 0.04519142907272779, 0.04345344961267832, 0.04188695818533922, 0.040189866901172586, 0.03856080516910387, 0.036936713610835344, 0.03535216888943771, 0.03383134041650233, 0.032321764430078025, 0.030852347908223134, 0.029422868569665743, 0.02803322087359234, 0.02659500488871752, 0.02529627573859027, 0.024076859591273737, 0.022843709748903093, 0.021649998967056057, 0.02048151191851467, 0.0193701049971914, 0.018402019619639224, 0.017358613202722584, 0.01636248216002051, 0.01538395476741309, 0.014485565500470888, 0.013632420322807702, 0.012824769207853652, 0.01218074816774841, 0.01145002346026761, 0.010772280314626822, 0.010087956049898483, 0.009521854883208317, 0.009062817179720477, 0.00858569625100464