0.016376237030038456, 0.015673607825637214, 0.015047305193751618, 0.014483322658974312, 0.013961637504530982, 0.013500798703806842, 0.01307893412821528, 0.012666571622783658, 0.012308663066773164, 0.01196525817753779, 0.011649632928195465, 0.011349716692624951, 0.011049194528209636, 0.010776346710648983, 0.010497474061048543, 0.010245076378926844, 0.010000058517757064, 0.00974971287967613, 0.009520768644289149, 0.009301754394543654, 0.00908648241121338, 0.008879259440969064, 0.008687025669127683, 0.008497187519227956, 0.008319541291426698, 0.008151559577875805, 0.007995946856772117, 0.0078049524812112085, 0.007682850317916345, 0.007585595780522917, 0.007487808349842601, 0.007405575201056315, 0.007330585537026687, 0.007283910951838232, 0.007230353611932054, 0.0072243334963189255, 0.007237188733331113, 0.007229310242255387, 0.007288504969302752, 0.00740679252583957, 0.007502097295549153, 0.007621986671860203, 0.00773118549697571, 0.007907152103479307, 0.008087556023147448, 0.008316720940616647, 0.008571437043520284, 0.008854275487481408, 0.00916282840559393, 0.009510788134850831, 0.009875596231650798, 0.010270969679992666, 0.010645753740218838, 0.011110573589206257, 0.011614181846137462, 0.012137509546579522, 0.012692556204502098, 0.013292603561997822, 0.013911662991084725, 0.014549541585534054, 0.01524010905790704, 0.015965323984864672, 0.01670071242478877, 0.017500228900631937, 0.018320658558292263, 0.019192775656048267, 0.020100609334792883, 0.021035550820382446, 0.022018368692796355, 0.023049635362706388, 0.02410677196576313, 0.025203490547660166, 0.026332559235479683, 0.027511246667900138, 0.028674399999619817, 0.029942710885334695, 0.03125002800979714, 0.0326115223287488, 0.033998167013303535, 0.03540091948237741, 0.03687723411114922, 0.0383963078103201, 0.03995277760204884, 0.04156084079129823, 0.0432185939861282, 0.04491685081203849, 0.046661950003882395, 0.04844361107697637, 0.05028584644384697, 0.05214965234063157, 0.05409242768686707, 0.05608331495800239, 0.05812787529932397, 0.06021690644817853, 0.06234731652524043, 0.06453978776003821, 0.06678382938886526, 0.0690503235683725, 0.07140327636627045, 0.0737798252395297, 0.07624081214100148, 0.07875360570722903, 0.08132226684930005, 0.08394097130410394, 0.08662361241836342, 0.08935086377889427, 0.09213448007368995, 0.09494045711210009, 0.09784262512301199, 0.10079747048179827, 0.1038123328402993, 0.10688410745073194, 0.11000395419560244, 0.11319239458829011, 0.11642778042250576, 0.1197339406738434, 0.12309832177938668, 0.12649786491745305, 0.12998300268575988, 0.13353411130836307, 0.1371350096161977, 0.14079539501616822, 0.14449831289926957, 0.14828069380354314, 0.1521207665863179, 0.15602215908344597, 0.15998325116802503, 0.16396189080911786, 0.168048263488447, 0.17217670332642812, 0.17638094846527444, 0.18064275654174608, 0.18495777518812467, 0.18933627488889754, 0.19377287728991327, 0.19826773229340736, 0.2028209174694817, 0.20743244384286302, 0.21210226114145875, 0.2168145791439956, 0.22160258837887525, 0.2264475346740781, 0.23132262961463645, 0.2362843833416825, 0.24130259736211346, 0.24637386369987455, 0.25149989137471773, 0.25667888692790225, 0.26191390010122906, 0.2672199872307102, 0.2725600842253092, 0.27795416375022064, 0.2833514262317434, 0.2888579525756527, 0.29444980335858334, 0.3000499921615989, 0.3057008216059628, 0.311357667285805, 0.3171131717152918, 0.322928758453474, 0.3287739808823507, 0.33466503246926643, 0.34059496652860355, 0.3465764067460974, 0.35256981143551047, 0.3586411363773604, 0.3647603448672763, 0.37091018969414824, 0.37709930377550555, 0.38332064762751833, 0.3895867447985551, 0.39588774538995414, 0.40222612846836153, 0.4085991368183246, 0.4150011321038598, 0.42144114397850885, 0.4278922057522727, 0.4343966589727738, 0.4409293412268922, 0.4474893281503937, 0.4540756411311, 0.4606950931531049, 0.4673299343854378, 0.47398832031147403, 0.4806533471151798, 0.48735711509123053, 0.4940954846138618, 0.5008339302096804, 0.5075897832272505, 0.5143459826143657, 0.5211344822360531, 0.5279133657388257, 0.5347280191417244, 0.5415511423526219, 0.5483799793243649, 0.5552166282436302, 0.5620548159295354, 0.5688999016858394, 0.5757468260180502, 0.5826020693741087, 0.5894475593265035, 0.5962832966250614, 0.6031244318705417, 0.6099601475902663, 0.6167795342408406, 0.6236010774795278, 0.6303885776427778, 0.6371905676220251, 0.6439777078099153, 0.6507705986393898, 0.65752114772851, 0.6642476021041592, 0.6709616426907413, 0.6776541799588278, 0.6843424029719292, 0.6909846457691454, 0.6975732742940446, 0.7041664951485423, 0.7107291102889588, 0.7172438570753629, 0.7237424856133174, 0.7302158103149539, 0.7366389795048938, 0.743023439900915, 0.7493534269621827, 0.7556572946973661, 0.7619292279943858, 0.7681409832458872, 0.7743058141572483, 0.7804016313132552, 0.7864700868697411, 0.7924900728405663, 0.7984500468669944, 0.8043540175604043, 0.8102191970928168, 0.8160039508951744, 0.8217085266842354, 0.8273745053934258, 0.8329760208932151, 0.8385193411140818, 0.8439862152218153, 0.849362383571695, 0.8546928982250722, 0.8599501678166194, 0.8651531431865104, 0.870257023452316, 0.8752625103519117, 0.8802146746112169, 0.8850859521773211, 0.8898686675782359, 0.8945747574323665, 0.8991954012904186, 0.9037292515407944, 0.9081749603667597, 0.9125280457703793, 0.9167938373751636, 0.9209782712964528, 0.9250567046048238, 0.9290408302577472, 0.932919871142274, 0.9367124937375566, 0.9403968413450001, 0.9439917060071904, 0.9474847587614191, 0.9508482307562722, 0.9541377197485755, 0.9573331593263816, 0.9604070148606426, 0.9633732590248484, 0.9662418996377891, 0.9689886328879487, 0.9715862879570569, 0.9741172223114972, 0.976534082374951, 0.9788550465087124, 0.9810394457039697, 0.9831088834145134, 0.9850625573298701, 0.9868996891852359, 0.9886195265775913, 0.9902213446333834, 0.9916824907718669, 0.9930489890721199, 0.9942942405014634, 0.995433503753256, 0.996433016405622, 0.9973015172986421, 0.9980585104599609, 0.9986923983340463, 0.9992059605872731, 0.9995921986788913, 0.9998466816361724, 0.9999857919721862, 1.0, 0.9998656240086325, 0.9996325615696814, 0.9992619186484479, 0.9987771655638065, 0.9981654553411385, 0.9974427086066486, 0.9965758184972565, 0.9955663320955583, 0.9944510732350685, 0.9932098116679848, 0.9918679835446587, 0.9903725893718041, 0.9887474103401301, 0.9870059873817918, 0.985141152856845, 0.983136005926428, 0.9810276249038589, 0.9788023185418536, 0.9764473652229292, 0.9739708277069639, 0.9713780323203866, 0.9686596308128637, 0.9658046281253578, 0.9628504004136148, 0.9597772797623111, 0.9565783380727725, 0.9532711881276618, 0.9498475204507496, 0.9463083890321833, 0.9426548684014678, 0.938878645372351, 0.9350008504713665, 0.9310083650608557, 0.9269091070982769, 0.9227006334007556, 0.9183795501938098, 0.9139571919949724, 0.909429344528311, 0.9047974168561707, 0.900062836224768, 0.8952050928840397, 0.8902723444365771, 0.8852557993831581, 0.8801237980000031, 0.8748965790135371, 0.8695741453296227, 0.8641614264150171, 0.8586550494064032, 0.8530633398438102, 0.847384267425999, 0.8416195602312269, 0.8357709674156549, 0.8298135979532765, 0.8238059389176255, 0.8177182759026427, 0.8115573650911427, 0.8053152484142035, 0.7989963981992337, 0.7926094920635735, 0.786152835484841, 0.7796080883898682, 0.7730206599011014, 0.7663700697400032, 0.7596552169628218, 0.7528801790192002, 0.7460471574910639, 0.7391583492214592, 0.7322331999296811, 0.7252372177847455, 0.7181929970465321, 0.7110680901103087, 0.7039379416051259, 0.6967669796787967, 0.689550923062577, 0.6823115353009798, 0.675017796941415, 0.6676905745597439, 0.6603163700855528, 0.6529307266903112, 0.6454984789214786, 0.6380619806174602, 0.6306013009064702, 0.6231173392392849, 0.6156158718584691, 0.6080911878558418, 0.6005590346734162, 0.5930143793485748, 0.5854753211237064, 0.5779109012171604, 0.5703185088883388, 0.5627503888819412, 0.555180937025291, 0.5476109846606033, 0.5400462375139979, 0.5325138463108838, 0.5249594472847532, 0.5174168745049308, 0.5098819208725442, 0.5023699957026793, 0.4948600678800085, 0.48738760809034704, 0.47993618256806986, 0.472490769109668, 0.46509025588698877, 0.45770230462028183, 0.4503592213441427, 0.4430465632283443, 0.4357666522756981, 0.42852175751429833, 0.42132821280641275, 0.41415817453125436, 0.407030460147499, 0.399940764865602, 0.39290436928881595, 0.3859110627651543, 0.37897278582362887, 0.3720858760190697, 0.3652741957885216, 0.35849292337009886, 0.35176985455997917, 0.345106607027002, 0.33850478428016967, 0.33193931211576794, 0.3254684548103822, 0.31906066530497057, 0.3127210221772197, 0.3064493652452095, 0.30024735359122007, 0.29411659774780763, 0.28805709238871235, 0.2820736888717148, 0.2761660030909764, 0.2703291996684975, 0.2645780102736776, 0.25887970074847033, 0.2532923170473926, 0.24778563056464933, 0.24236267435931666, 0.23702150242217382, 0.23177469600058373, 0.2266034799321443, 0.22152015183781706, 0.216513196514585, 0.21161027413901282, 0.20681002456705946, 0.20208675013679808, 0.19745620936665606, 0.19290191213500785, 0.18846126005011626, 0.18412863963024045, 0.17987480349049875, 0.17571714996088758, 0.1716373930094697, 0.16767604304752712, 0.16382854369167893, 0.16005876640243522, 0.1563876070233506, 0.15279340532136562, 0.14932310677288857, 0.14595409815610041, 0.14268006049266982, 0.1395049913658272, 0.13645261835885983, 0.13347306401508058, 0.1305738528696453, 0.1277981909976575, 0.1251217914805538, 0.122532065962839, 0.1200556020803002, 0.11768996777528358, 0.1154083941645301, 0.11322556934817758, 0.11111295535866685, 0.1091302302039973, 0.10726870912936483, 0.10547482270892362, 0.1037779655231122, 0.1021681793664222, 0.10066488727679385, 0.09924222127936058, 0.09792960880361815, 0.0967097237575761, 0.09560866150554263, 0.09456910282418496, 0.09361091791317178, 0.0927565033701645, 0.09199190386886034, 0.09129738972422823, 0.09071203442003575, 0.09023455691612592, 0.08981740190983104, 0.0894856157341315, 0.08920198078330194, 0.08904202911780133, 0.08897915687442297, 0.08897574451660242, 0.08905119637695622, 0.08919334035261631, 0.08942428990493576, 0.08972979512239583, 0.09010864236853178, 0.09055957397943411, 0.09107501735287857, 0.09166697382257552, 0.09233292247538077, 0.09305816316046137, 0.09384871489056859, 0.09473445761406055, 0.09564717702274358, 0.09658321628346474, 0.09762413105603, 0.09872174408096468, 0.099880838807727, 0.10108655084025604, 0.10231651205360516, 0.10362911499740933, 0.10498931765366566, 0.10641605715838731, 0.10786448115275338, 0.10934461332338018, 0.11088139101748222, 0.11245822009965048, 0.11409068313626362, 0.11574040215088294, 0.11740410664856962, 0.11912661333774138, 0.1208800843742411, 0.1226690974512785, 0.12447859621400181, 0.1262970128640322, 0.12815923116933128, 0.13004304182354154, 0.13196558975741987, 0.13388515893184333, 0.135800333878132, 0.1377559230779913, 0.13972408651672338, 0.14172352112934106, 0.14370916671475567, 0.14570028023254328, 0.14770164237836614, 0.14970766892065368, 0.15171652484720477, 0.15372638712948317, 0.15574015046797834, 0.15774601308372918, 0.15974775621815535, 0.16173102747520463, 0.1637207210948084, 0.1657284648439473, 0.1676925857469665, 0.16964483257169724, 0.17157708021802218, 0.1735008565172151, 0.17538658072498903, 0.1772759211488162, 0.1791431106772271, 0.1810243260106618, 0.18283807335470492, 0.18460860049759603, 0.1863741931680505, 0.18811091317775097, 0.18982668886114187, 0.19150005746500473, 0.19314542787020159, 0.19475132455771768, 0.19632187951216584, 0.19785409254872424, 0.1993499088111914, 0.2008123982279581, 0.20222692497018255, 0.20359964961143517, 0.20492302776493695, 0.20620917151368087, 0.20749339026028085, 0.20868121145922122, 0.20982350670125915, 0.2109298775398472, 0.2119756810282203, 0.2129867911103611, 0.21393195189114708, 0.21483139730558326, 0.21567392007092082, 0.21646396601014256, 0.21721143691901582, 0.21789199108736357, 0.21855219279571853, 0.21911773397797435, 0.2196285567425625, 0.2200647775570286, 0.22046545695323735, 0.22082002403683437, 0.22110117945106783, 0.2213232071081539, 0.22151217743984644, 0.22161087689016593, 0.22167234043309872, 0.22164927799650452, 0.22156714211509834, 0.22143473608294725, 0.22123154248509166, 0.22102002923166583, 0.22068973796420896, 0.22030155809675495, 0.21987680061513573, 0.21936826070610366, 0.21878896205448675, 0.21816512452016776, 0.21748157578615687, 0.2167695633805125, 0.2159623623375645, 0.21509399019733016, 0.21417100642336717, 0.2131896972021962, 0.212175274365213, 0.21107458394386266, 0.2099332699081063, 0.20871814175568995, 0.20744799953724066, 0.20611678436222286, 0.20473814645416394, 0.2033301592251777, 0.20183999355841828, 0.20029792308068503, 0.1987153873470821, 0.19706958679697356, 0.19538039994070472, 0.19363509255242983, 0.19184176557824967, 0.19000582651469378, 0.18811804417349862, 0.18620207351036547, 0.18422209174062407, 0.18219942230881017, 0.18013960949009045, 0.17803355614535413, 0.17590504861778306, 0.17371839289866167, 0.17149503863109908, 0.16924222207162443, 0.1669476322116515, 0.16462291353738961, 0.16226249006776453, 0.1598712217630221, 0.15745342250234537, 0.1550036499076202, 0.15255354853219938, 0.15004771412942802, 0.14751900739424734, 0.14496230996694276, 0.142392177529367, 0.13978521059751314, 0.13717946479421872, 0.13455594845109714, 0.13193192778648255, 0.12927564990794296, 0.12661040721353176, 0.12393102387608741, 0.12124272856389452, 0.11853605952818226, 0.11583590115991318, 0.11316376592925062, 0.1104512855814941, 0.10773907865764935, 0.10500189323168355, 0.10229786903980403, 0.09962047859408014, 0.09692141562291676, 0.09423021551871882, 0.09155467482683527, 0.0888829963098458, 0.08622102104855986, 0.0835769414731005, 0.08094858822451793, 0.07832185750474809, 0.075731687043229, 0.07316896617203061, 0.07061874422803201, 0.06809200497868224, 0.06558881352593385, 0.06311413167609226, 0.060656745481267794, 0.05824162250773253, 0.05585739144443119, 0.05350573938556141, 0.05118832925603103, 0.0489115050963987, 0.04666687734377533, 0.044461601773115145, 0.04230034564006225, 0.04017795090399193, 0.038102756309356126, 0.036069539879773085, 0.03408344194488855, 0.03213644055355505, 0.03024991818443006, 0.028420376450774266, 0.02663588977056685, 0.024905263178759515, 0.023214121377766024, 0.021597100349403386, 0.020025938926778706, 0.018525348329871454, 0.01708367273718582, 0.015691309887476853, 0.014372931558248581, 0.013121539772775165, 0.011928451549249453, 0.01080049732412802, 0.00972787423340908, 0.008735056132946022, 0.007816417846908091, 0.006959747997612782, 0.006173540101837825, 0.005466608821419285, 0.004823208899138451, 0.004242522496015823, 0.003748677229964244, 0.003329440580582137, 0.002984049640943668, 0.0027166009319108224, 0.0025040016614857265, 0.002393630415539117, 0.002360168032347854, 0.002420078080076641, 0.0025407276642172216, 0.0027303411232139883, 0.003012735265151933, 0.0033753593482499424, 0.0038202621189128458, 0.0043445389140419855, 0.004939447703568241, 0.00562865505112016, 0.006399455635258902, 0.007242761295689034, 0.008178849986391535, 0.009204651723196487, 0.010303733316763075, 0.01148555163707793, 0.01272821477728985, 0.0140784312446104, 0.01552746183221592, 0.01703872891342619, 0.018632676174975236, 0.02027464251306534, 0.022037797940222734, 0.02387953161822759, 0.02580317558862993, 0.02780679851866007, 0.029885561589148478, 0.0320492683124333, 0.034303067697569536, 0.03662332669405608, 0.03902267729373649, 0.0414865065931645, 0.044044286312997276, 0.04667873811347289, 0.04938934705141314, 0.0521755436370997, 0.055038274883103415, 0.05797353516650153, 0.060949526325079495, 0.06403550736924506, 0.06719171370297627, 0.07042853158153549, 0.07372195292958282, 0.07705600037211707, 0.08048982291298003, 0.08398910886275518, 0.08755468054187582, 0.09118238625035813, 0.09487947151642831, 0.09863164023729612, 0.10244529946107551, 0.10630835725771316, 0.11024300296192732, 0.11420369244064982, 0.11825598144009751, 0.1223615874133012, 0.12653521356689118, 0.13074245891181988, 0.1350085949989586, 0.1393156442341281, 0.1436621275901499, 0.14806661305718924, 0.15251650492051672, 0.15700881847419915, 0.16154544039991078, 0.16609167148657883, 0.17071271859689868, 0.17536996931613322, 0.18006056324866526, 0.18478648919180837, 0.18954449706901583, 0.19433315930934802, 0.19915100619425802, 0.2039824148038537, 0.20885585749254326, 0.21373895386950997, 0.21866023062631207, 0.22360146869462444, 0.22855180917955306, 0.23352976759204247, 0.23852268112192218, 0.24352905439186107, 0.2485473506839031, 0.2535838383935926, 0.2586202372174808, 0.26365320848636375, 0.2687043760135275, 0.27375902313587713, 0.27880921991979873, 0.28386663022231595, 0.28891743808472886, 0.2939699930638139, 0.29901705883440827, 0.30403973516332644, 0.3090730423458551, 0.3140870603436644, 0.31909691548311864, 0.3240917613980935, 0.329063794160219, 0.3340247985292625, 0.3389626438071879, 0.3438824585580287, 0.34877897308677164, 0.3536427954444011, 0.3584890356336959, 0.36331311797465843, 0.36810018230058633, 0.37285611469137875, 0.3775808919363958, 0.38226958852184967, 0.3869005152667465, 0.3915187676856938, 0.3960967958485431, 0.40064261245760135, 0.40513480112980765, 0.4095752359113437, 0.4139791015613837, 0.4183356448935737, 0.42264032439235744, 0.42689841114711474, 0.4311079420458274, 0.4352608924327417, 0.43935962634008385, 0.44339337484480335, 0.44738080553203974, 0.45129691969043995, 0.45516716807884994, 0.45897549580897407, 0.4627176627474202, 0.46639923812855827, 0.4700389427597703, 0.473585690891197, 0.4770662490606135, 0.48049350062058976, 0.4838362356904605, 0.48708175733614273, 0.49028885912577225, 0.4934229716502428, 0.4964800481474552, 0.49946586763422757, 0.5023758505129292, 0.5052091736734132, 0.5079650340869, 0.510663038668293, 0.5132590742670489, 0.515743581842999, 0.5181857226285094, 0.5205457222346123, 0.5228324740276985, 0.5250254630389164, 0.5271431675203744, 0.5291683615597391, 0.5311097945701105, 0.5329324042444321, 0.5347090374954706, 0.5364454560643932, 0.5380414384739548, 0.5395524538061919, 0.5409544335322529, 0.5422969137167146, 0.5435563441961578, 0.544722525059868, 0.5458008514960548, 0.546778597196239, 0.5476822946191512, 0.5485126750810623, 0.5492364074686773, 0.5498720770656803, 0.5504133446916989, 0.5508735226178603, 0.5512404973192833, 0.5515243714130733, 0.5517197090959153, 0.5518204335461364, 0.5518401071153212, 0.5517794018128761, 0.5516219690475164, 0.5513774293746023, 0.5510649091185785, 0.5506447256076189, 0.5501285239324609, 0.5495398958389068, 0.5488661549519295, 0.5480732294563151, 0.5472349545857301, 0.5463329841959128, 0.545321438402232, 0.5442270899002798, 0.5430568437607108, 0.5417980168187859, 0.5404540044721884, 0.5390354681364944, 0.5375375317244672, 0.5359484048870204, 0.53429554901237, 0.5325555235240486, 0.5307492704974718, 0.5288666062271491, 0.5269587502970714, 0.5249200209566379, 0.5227794437454635, 0.5206043656952675, 0.5183584002382814, 0.5160315825941437, 0.5136482913051675, 0.5112169858777474, 0.5086954732996473, 0.5061090340913482, 0.5034539786165343, 0.5007413572979649, 0.4979572703172439, 0.4951228666852189, 0.4922281788391137, 0.48927289472195823, 0.48626161567039733, 0.48320317362609744, 0.4800788582114573, 0.47690110548980946, 0.4736617467560021, 0.4703820513392179, 0.46702864296610513, 0.4636529147055306, 0.46022842115278145, 0.456769278318514, 0.4532503581497851, 0.44969901256711853, 0.44609331894441867, 0.4424476829707942, 0.43874932580814957, 0.43502961087412817, 0.43126536487339273, 0.4274747470163341, 0.4236499641032269, 0.4197815770362072, 0.41589445861059715, 0.4119943958180814, 0.4080463008752351, 0.4040721525365894, 0.40008905561345864, 0.39606508316352745, 0.3920107954768741, 0.38794750082757207, 0.38386538573237367, 0.37975173923055755, 0.3756379828970805, 0.37150412860647564, 0.36736170452425704, 0.3632066561114204, 0.3590389489853724, 0.35486343457321395, 0.35069700976983176, 0.34650448649879945, 0.3423077457696246, 0.33806263084569216, 0.3338671824284971, 0.32968148915072376, 0.325480562704115, 0.3212808843568125, 0.31710434169984386, 0.3129090509185467, 0.3087237031203802, 0.3045428830259985, 0.3003715507215211, 0.29618583354949546, 0.2920403091114019, 0.28791749556405477, 0.2837954590283488, 0.2796901302295689, 0.2755994361176443, 0.271526475796566, 0.2674724636953152, 0.26343859839414036, 0.25941037903474545, 0.2554223215167043, 0.2514570289463331, 0.2475094867893536, 0.24359426095538286, 0.23972081071818863, 0.23585700093221565, 0.23202255706840189, 0.22821849795293306, 0.22444582533631632, 0.22068199848565, 0.2169780084832066, 0.21330698392817946, 0.20964965533293656, 0.20605045380264317, 0.20252237670014142, 0.19898988108193322, 0.19549672807567767, 0.19203897315131213, 0.1886273670898331, 0.1852445298498724, 0.1819178937276102, 0.17863335286314075, 0.17538544479355925, 0.1721882863345129, 0.16905715971395732, 0.16594613810425202, 0.16288191228888974, 0.15985872246004504, 0.1568904095820221, 0.1539480859533462, 0.15107896479349, 0.14825758307651163, 0.14548302928809062, 0.1427592514002584, 0.14009908097162882, 0.1374730470693336, 0.13489834550193164, 0.13237219193546867, 0.12990158611434566, 0.1274752843476672, 0.12511027150739631, 0.12279755876017937, 0.12050923815380526, 0.11830562834279551, 0.11615673952677279, 0.11405635489424304, 0.1120085785784092, 0.11001215710946413, 0.10807069196700955, 0.10618411769698993, 0.1043492896422031, 0.1025682103500546, 0.1008488166650145, 0.0991744924340552, 0.09752944148867597, 0.09596695113724366, 0.09445725084998945, 0.09302394799536945, 0.0916170526494297, 0.09025810116522773, 0.08896019231188912, 0.08771565037550082, 0.08653209439739994, 0.08539260471433369, 0.08426854808433785, 0.08323961326477228, 0.08226092528895, 0.08136377704469544, 0.08048134451653181, 0.07962859210600337, 0.07885174125983319, 0.07812434879274845, 0.0774696279414593, 0.07683720996964429, 0.07624042496062264, 0.07570869517895697, 0.07522473261809835, 0.0747802084037862, 0.07439129089473548, 0.07405602345158364, 0.07375725130189605, 0.07350374274384658, 0.07329961116429434, 0.07313424551419676, 0.07300631619193623, 0.07292849140978781, 0.0728926723489316, 0.07288253721097421, 0.07293078231266663, 0.07299153158271153, 0.07312092379088234, 0.07328684503945172, 0.07350771779396686, 0.07374307314532527, 0.07401623870716709, 0.07432318851381983, 0.07466506556635502, 0.07505837835802749, 0.0754656831941921, 0.07585485249917023, 0.07633501451455167, 0.07684404468990727, 0.0774128087734769, 0.07797405832427472, 0.07856586220438902, 0.07918400159114998, 0.07982944320564013, 0.08048559957068141, 0.08118491474379645, 0.08192361872522474, 0.08266758012687599, 0.0834345475812974, 0.0842204461125626, 0.08503101031992481, 0.08584277847907389, 0.08669486604033404, 0.08756411286784495, 0.08845603949651187, 0.0893565350793135, 0.0902847780188454, 0.09121323736639039, 0.09215589345272786, 0.09310394232554464, 0.09407310559838941, 0.09502964047211035, 0.09602269854098053, 0.09702358754689207, 0.09803319349196088, 0.09904747727067031, 0.10010677895693318, 0.1011269725556969, 0.10215366058134993, 0.10316536585291168, 0.10420438532985238, 0.10521264487284246, 0.10625934127277248, 0.10730469433257536, 0.10839048691155896, 0.10942608581373663, 0.1104609545652414, 0.11149412110270464, 0.11252463905192357, 0.11352021968323825, 0.11454666358848704, 0.11558011606350732, 0.1165899589190985, 0.11759226957812782, 0.1185753330633559, 0.11956176496721703, 0.12056922830778735, 0.12153039939045475, 0.12248174520953997, 0.12341611410741903, 0.12434600020067178, 0.125227098112083, 0.12613537663532712, 0.12702746456427821, 0.12792020987176253, 0.1287765081165557, 0.1296226009626854, 0.1304445666679161, 0.13124925133596851, 0.13201408527230007, 0.13278516181618935, 0.13354377791829367, 0.13427287213579595, 0.13498132572931204, 0.13567495371373725, 0.13633996431289366, 0.1369692166232995, 0.13759223879097346, 0.1381918677473969, 0.13876776125444523, 0.13931957865047692, 0.1398548240415324, 0.14035648946460896, 0.14083352079967498, 0.14128396619249442, 0.14171079284668917, 0.14209140585624966, 0.14246883656916645, 0.1428186657803111, 0.14315801512531878, 0.1434500645800854, 0.14372762360753358, 0.1439637343831894, 0.14417297410721897, 0.14435343164322106, 0.14450812970222748, 0.1446255206077371, 0.1447253718344012, 0.1447963384871886, 0.1448100735450085, 0.14482650362617522, 0.14483411309938304, 0.14478636498569425, 0.1446999532543213, 0.14459483918750754, 0.144459859841915, 0.14429350117187123, 0.14409915690894556, 0.1438891517380429, 0.14363355435017613, 0.14334914585625097, 0.1430123837032276, 0.14267329648669433, 0.14233231944952573, 0.14192965747313216, 0.1414989249367242, 0.141026008587579, 0.14054095264062433, 0.14001457433052902, 0.13947374766161208, 0.13890383936750791, 0.13832398425037667, 0.1376944751243605, 0.1370331743583436, 0.13635024752984262, 0.1356403116097619, 0.13490203643543397, 0.13413900910701845, 0.13333709404118094, 0.13252326267551173, 0.13168298088877559, 0.13081980053789835, 0.12992746543646144, 0.1290398967215038, 0.12809411886080985, 0.12712576384007032, 0.12611146584772198, 0.12510144386743166, 0.12408849355190149, 0.12302970664197795, 0.1219496445281903, 0.12082507395074615, 0.11970633644538103, 0.11856752084793054, 0.11740584306333325, 0.1162237050550364, 0.11503261711667705, 0.11380976589623128, 0.11259375883009377, 0.11133168016947109, 0.11005366000370168, 0.10877878357517207, 0.10746733202655598, 0.1061309161005187, 0.10479309223106241, 0.10344113520751543, 0.10208013703204874, 0.10070050627548344, 0.0993207909922408, 0.09791473256313725, 0.09649761339947424, 0.09508391449783771, 0.09364401894543732, 0.0922028866783827, 0.09074418132645588, 0.08927755144787855, 0.08782686729812307, 0.08634248669462737, 0.08487303333046872, 0.08337540854994652, 0.08187402834961013, 0.08038946698767578, 0.07887861536125151, 0.07737058761397636, 0.07585556083581284, 0.07433934305528621, 0.072837879024789, 0.07131813387910643, 0.0698209729150431, 0.06829998410007677, 0.06678146208180238, 0.06528756238168586, 0.0637718561770392, 0.06228101241232897, 0.0607718634847898, 0.059268770739042985, 0.05779069746291916, 0.056297836859836976, 0.054811150526799295, 0.053334149949147515, 0.051865222475987335, 0.05046584533139794, 0.04900631540149176, 0.04755466198667076, 0.04612083758643065, 0.044699317742013966, 0.04332319601161116, 0.04192266319932359, 0.04052910870704927, 0.03915927659301062, 0.03780403913547852, 0.0364871967651655, 0.035159050657332755, 0.03384778957994593, 0.03255363029519564, 0.03127684405131028, 0.030024022410100663, 0.028782183858689536, 0.02759364285573126, 0.02638540066837543, 0.025198660156998554, 0.024038274416935256, 0.022894441344283152, 0.02179963676758816, 0.020697419177952564, 0.01961960993402572, 0.018549068656407496, 0.01752264586367785, 0.016548383422809156, 0.015566643928764414, 0.014611220359834247, 0.01368858184470384, 0.012785622477874464, 0.011916300644224621, 0.011067519746392699, 0.010246970528770903, 0.00946587713112905, 0.008701166549063279, 0.007970819674412648, 0.0072650541892938245, 0.006589681479126454, 0.005962183434084029, 0.00534612698752377, 0.004762182432683413, 0.004210494249332335, 0.0036912349726547634, 0.0031889172860606343, 0.0027371063604015216, 0.0023566953793306487, 0.001964679995710381, 0.0016077904704921958, 0.0012876369922804544, 0.0010009576255728867, 0.0007371599221693226, 0.0005230330023232771, 0.00034386914816631804, 0.0002093252973938395, 9.963941756448571e-05, 4.030148814339382e-05, 1.4660038601810565e-06, 0.0, 2.9695765015153503e-05, 0.0001039749755546786, 0.000231197384594812, 0.00037816922392869533, 0.0005635948103365319, 0.0007545710580640912, 0.0010211787425643524, 0.0013762833969601987, 0.0017101630784753478, 0.00208432762941759, 0.002479822847971892, 0.0029365624108144014, 0.0034337770956692592, 0.0039682220695182865, 0.004541840698370958, 0.005132749760136437, 0.005787710217938022, 0.006488666821919449, 0.00721918524159342, 0.007988752402816037, 0.008800630191331376, 0.009648257606543507, 0.0105323004388011, 0.01145948127995513, 0.01242613177046557, 0.013426033139810454, 0.014472565283193543, 0.015558335499924364, 0.01668340644490508, 0.01784782126926543, 0.019048467953782053, 0.020292023536542695, 0.02157633747140593, 0.022898074561303727, 0.02425907101864112, 0.025656141934804814, 0.02709589433428946, 0.02859806714658831, 0.03011257102828969, 0.03166714533204444, 0.033217592318985925, 0.0348570162326452, 0.03653792468991987, 0.038250404878222184, 0.040000074044675024, 0.04179161694038519, 0.043614980178329266, 0.04546937980638222, 0.04736801920837158, 0.0493033256480487, 0.05127361063725906, 0.0532820673920276, 0.05534549960059375, 0.05742372009477146, 0.059529388529779785, 0.06168216010811019, 0.06387055512033771, 0.06608488950138047, 0.06834489112609743, 0.07061248075916346, 0.07294413149377588, 0.0753080762338657, 0.07772466415349776, 0.08015046044609331, 0.08258593287108702, 0.08508079022045942, 0.0876068859975623, 0.09017348236058803, 0.09276038864003254, 0.09536440676143956, 0.09801523740498957, 0.10069585897202384, 0.10341858750112096, 0.10615648533685025, 0.10890215026393661, 0.11170186569772143, 0.11452925224268387, 0.11738720127992153, 0.12026876875348638, 0.1231757953249394, 0.12611126666699105, 0.12907296037118623, 0.13202913771450367, 0.1350461091898605, 0.13808480906962012, 0.14114840597019165, 0.14423483475592608, 0.14735797266121575, 0.15048752953706115, 0.1536461612635455, 0.15682007465209943, 0.160016221629077, 0.16320427468869053, 0.16644706463158515, 0.16973704552476782, 0.1730138862916743, 0.17631063629218185, 0.1796000430040471, 0.18293821166031227, 0.186293025370057, 0.1896641119550438, 0.19305107390445125, 0.19644408081777603, 0.19986270151651225, 0.20328123345460122, 0.2067292906207814, 0.2101897559281628, 0.213674842284471, 0.21715750231958808, 0.22064747023524148, 0.22415422484003544, 0.22767166417816026, 0.23118045746023175, 0.2347200995351497, 0.23825681890020778, 0.24181356312555685, 0.2453769237577545, 0.24895594747769204, 0.25253022723030966, 0.2560696865133245, 0.25966050401321916, 0.26325391325116915, 0.26687320824738614, 0.27046808116096327, 0.2740801367384159, 0.2776787993586806, 0.28128018628010915, 0.2848600725164869, 0.28846778652353544, 0.29205442793914643, 0.29566285215140176, 0.2992684299127224, 0.302858242302428, 0.306458561255634, 0.3100572466513383, 0.31364726157183215, 0.3172319108177379, 0.3207997529256116, 0.32437364308829625, 0.32796517923423557, 0.33152055678808035, 0.33506897645153033, 0.3385626874119368, 0.34210104083472015, 0.3456324073355094, 0.3491464686860904, 0.3526484322436561, 0.3561378651017357, 0.3596143049280333, 0.36306001176041297, 0.3665111592791169, 0.3699468154885538, 0.3733618660009895, 0.3767658743411516, 0.38010889347949467, 0.38348384591306306, 0.3868383182986266, 0.39020195581379197, 0.39351117704103455, 0.39681035675313914, 0.40007892186598926, 0.4033274225372023, 0.4065348049866092, 0.409743758009661, 0.4129185275958144, 0.4160819587850318, 0.4192205513216487, 0.42234483889290114, 0.4254310083632103, 0.4285025319818195, 0.4315354707694392, 0.43454220952487577, 0.43747971491529536, 0.44043735278413854, 0.443376925766359, 0.4462714358383283, 0.44913536957648437, 0.4519854989480223, 0.45478464754890646, 0.45753703163177717, 0.46027535285192905, 0.4629804277765724, 0.4656345048551277, 0.46827376417746785, 0.47087259162400374, 0.47344062071378545, 0.47597189793538125, 0.47847703448031537, 0.4809323007837095, 0.48334086973649376, 0.4857222508904974, 0.48806481689420134, 0.4903697141046976, 0.49263317893161385, 0.4948456541193294, 0.4970300349320148, 0.4991728888842392, 0.5012550349392478, 0.5033161224846825, 0.5053586115964784, 0.5073289111343273, 0.509256441469546, 0.5111234760699176, 0.5129662337593565, 0.5147873819511942, 0.5165365880113886, 0.5182413564964294, 0.5198839261925249, 0.5215004922458233, 0.5230780249410681, 0.5245995365051914, 0.5260739881376597, 0.5274806183178586, 0.528862419256691, 0.5302168857131165, 0.5314971515648327, 0.5327289963096558, 0.5339073458689352, 0.5350418529336716, 0.536118776106143, 0.5371545083923775, 0.5381395057587021, 0.5390829817133648, 0.5399647334991836, 0.540800405598283, 0.541579734373913, 0.5423080405516856, 0.5429725116514631, 0.5435995813746298, 0.5441679121414696, 0.5446907360675382, 0.5451605321135705, 0.5455945060446903, 0.5459559277557343, 0.5462620180606554, 0.5465192674594438, 0.5467238083473891, 0.5468786647331462, 0.5469770706551099, 0.5469944256137058, 0.5469906700666951, 0.5469323500315227, 0.5468259136714854, 0.5466581854421695, 0.5464351717500597, 0.5461603071820647, 0.5458318387878149, 0.5454373373983276, 0.545003602996868, 0.5445331741354045, 0.5439895959316172, 0.5433934926957089, 0.5427229876042058, 0.5420248646077342, 0.5412685624288778, 0.5404643857979223, 0.53960706318338, 0.5387251496865006, 0.5377589330057762, 0.5367374034421867, 0.5356706471060809, 0.5345767328926704, 0.5334058074818611, 0.5321858818970573, 0.5309059995341319, 0.5295895695400694, 0.5282174402357032, 0.5268031813138753, 0.5253396280438023, 0.5238082876061476, 0.5222495224818603, 0.5206633916967068, 0.5190037300499253, 0.5172970230055132, 0.5155200868569316, 0.5137233082432209, 0.5119043427712089, 0.5100104211210338, 0.5080718029005921, 0.5060825948540675, 0.5040565400223462, 0.5019678248253298, 0.4998569652189226, 0.49770221525363395, 0.49552306937288293, 0.4932801765782544, 0.4909760687325366, 0.48865461078018263, 0.4862922197677057, 0.48387705684814725, 0.48143650509364516, 0.4789783841759161, 0.4764568036538327, 0.473898514580222, 0.47129627376799593, 0.4686673675306254, 0.4660062834267702, 0.4633070510785446, 0.4605740836415655, 0.45778140273294327, 0.45498639436501054, 0.4521833225819477, 0.4493197501112248, 0.44642625528959484, 0.4435019562382445, 0.4405508859558214, 0.43755464730754023, 0.4345506576050122, 0.43151925718122597, 0.4284550614622085, 0.4253722902702504, 0.4222816492733253, 0.41914737073374947, 0.4159907616327901, 0.41281101133337905, 0.40961222173561346, 0.4063729255740983, 0.4031372742640952, 0.3998819605940152, 0.3966110945711551, 0.3933189652163147, 0.3900023864390851, 0.38667894303091094, 0.3833402650314419, 0.3800014281066224, 0.3766333654982868, 0.3732427275091717, 0.3698536724242879, 0.3664540365579525, 0.36306041546882206, 0.3596403654659875, 0.3562070602812754, 0.35277460948735856, 0.3493363755140978, 0.34592456689226053, 0.34247332913457873, 0.33898609952004516, 0.33553684528585714, 0.332085395166826, 0.32862484554104654, 0.3251728013640829, 0.3217271852354746, 0.31827563552677973, 0.31482653426025925, 0.3113682338499563, 0.30792830637654106, 0.30448652692743045, 0.30105721528389146, 0.2976339136960017, 0.2942238890039006, 0.29081477191682986, 0.28740395197514024, 0.28401565298750464, 0.2806377591027475, 0.2772884652548312, 0.27393200785625843, 0.27057400512987945, 0.2672485492091759, 0.263937835046906, 0.26063175018688683, 0.25735448743623696, 0.2541033053169427, 0.2508590971835139, 0.2476338677952057, 0.24442055205990626, 0.24123658770201745, 0.23807815609277821, 0.23493605210778717, 0.23181661914898355, 0.228714306187482, 0.22564316170909712, 0.2225948940028388, 0.21957357060211508, 0.21657805030650826, 0.21358551574769716, 0.21064667987633703, 0.20774380278623836, 0.2048577156855355, 0.2020003467547972, 0.19918022438241953, 0.19638133443366426, 0.19362299635581415, 0.19088575021536594, 0.1881812595304048, 0.18547389843569223, 0.18284081254218526, 0.1802460540964135, 0.17767700283510568, 0.17514175411205196, 0.17264246254953114, 0.1701763482544529, 0.16775990655049616, 0.16536360791168703, 0.16300460459915125, 0.16067067318854106, 0.1583888081085495, 0.15614134104930272, 0.15393533880819307, 0.15176746641913763, 0.14963025999515056, 0.14754074799713185, 0.14550880759560195, 0.14349479021121328, 0.14152129335619862, 0.13958377454589488, 0.13769239339617143, 0.13583232215941957, 0.1340237456032783, 0.1322556963915315, 0.13052369124484872, 0.12883793285284748, 0.12721342033125102, 0.12560698928031053, 0.1240429141307023, 0.12252273818312631, 0.12104309764749431, 0.11958385675125227, 0.11819165284972083, 0.11684046328895614, 0.11552099063794861, 0.11425332811596435, 0.11301856158239508, 0.11183347018347241, 0.11068884985892413, 0.1095863679880194, 0.10852274941846274, 0.10751869188410891, 0.10653415165868312, 0.10559132960923547, 0.10468371705652219, 0.10382440979638302, 0.10299005261923148, 0.10221378289806839, 0.10147682568380083, 0.10077122109996092, 0.10011349464173984, 0.09950203602740106, 0.098920027050208, 0.09837656367963712, 0.09784941710533579, 0.09738498283413059, 0.09698207419277474, 0.09658717336858226, 0.09622975577017036, 0.0959046779927734, 0.09562149665930514, 0.09536948473310422, 0.09515821718998475, 0.09498168587261345, 0.09485515409034459, 0.09474483427945611, 0.09466097657556254, 0.09461965914189248, 0.09461101255044649, 0.09459686324362492, 0.0946567081152735, 0.09477998776551094, 0.09489307557619568, 0.09503647064554734, 0.0951954352430565, 0.0953993571609759, 0.095632481574163, 0.0958909512115965, 0.09616353311550362, 0.09647633621744238, 0.09681393793980592, 0.09718681859011376, 0.097571110243023, 0.09796356595546682, 0.09839687998288292, 0.09885184201239255, 0.09933261155691955, 0.09982861539334853, 0.10034796510156332, 0.10088334506871756, 0.10143780659487482, 0.10199340358941855, 0.10258611936974166, 0.10317759339064989, 0.10380393560671165, 0.10444414781534428, 0.10514009675129003, 0.10580122485716989, 0.1064896097980254, 0.10717765903438409, 0.1078793145639462, 0.10858418663785942, 0.10931133304735495, 0.11003615256002647, 0.11078449723932679, 0.11154071417040616, 0.11228214288986076, 0.11305476704734138, 0.11381466216630196, 0.11459798048527908, 0.11538376570730471, 0.11619824303467792, 0.1169842466687511, 0.117772803582555, 0.11856317026203278, 0.1193546060373151, 0.12013539522986941, 0.12092814913227216, 0.12173954437390765, 0.1225255901658411, 0.12330975508340734, 0.12408025074996655, 0.12485962935341227, 0.12563256406171955, 0.12640171814205703, 0.12716456968410347, 0.1279000805767613, 0.12865095950831595, 0.1294159795726342, 0.13014464363236342, 0.13086428416940565, 0.1315569608892391, 0.13225868339614755, 0.132962503858389, 0.13363789775449664, 0.13430104311719537, 0.13495131022725446, 0.13558808247173718, 0.13621389301512088, 0.13682148151583232, 0.13741397999527485, 0.13798609407552068, 0.13854725556112946, 0.13907409161614065, 0.13960278318372185, 0.14011243603802226, 0.14060584335214632, 0.14107598561620813, 0.14151210333182004, 0.14194382977471684, 0.1423540938636114, 0.1427567482953765, 0.14312150648006033, 0.14345850794345857, 0.14378069519103046, 0.1440802633847732, 0.1443600250096617, 0.1446129917420564, 0.1448629497414814, 0.145066215488794, 0.14524658238660523, 0.1453722150222461, 0.14550937707251577, 0.14562527607633505, 0.14570978454429212, 0.14576834093912566, 0.1458007807998575, 0.14580694481462791, 0.14578667983836957, 0.1457398398202459, 0.14566628664692108, 0.1455972577168734, 0.14546593382539103, 0.14528577333180434, 0.1451064498121247, 0.14489983501568504, 0.1446642810820289, 0.14440305745965562, 0.1441126896872766, 0.143796487948592, 0.14345258534183247, 0.143110793386131, 0.1427077721698039, 0.14227879633320656, 0.1418236746625246, 0.14134225791012334, 0.14080150094162122, 0.1402713646793238, 0.1397112938607021, 0.13912488092232453, 0.13851052581811235, 0.13788888266196284, 0.13721686081000412, 0.13655804277019704, 0.13582915497474332, 0.1350766868419322, 0.13428635281870108, 0.1334880567599105, 0.13267446092069562, 0.13182566369181736, 0.13095293382226927, 0.13006420856292175, 0.12914294627149678, 0.12822054497413993, 0.12725045238008625, 0.12625880861466882, 0.12526603539133607, 0.12422886544183619, 0.12318566105325622, 0.12210642564475771, 0.12100793091829103, 0.11990431446834356, 0.11876564929845841, 0.11762759424067083, 0.11645021683039947, 0.11525592279899752, 0.11403849417564269, 0.11281139619158878, 0.11160660719336138, 0.11034104884605497, 0.10906142840295947, 0.10779133726785083, 0.10648089270183214, 0.10518635429839471, 0.10384777433116114, 0.10249869648270796, 0.10113128228155388, 0.09976230069903419, 0.09839833741055193, 0.09700635410105254, 0.09560526576232053, 0.09421575389793223, 0.09279481754015066, 0.0913857946059602, 0.08994895659432092, 0.0885069127992159, 0.08707874078253702, 0.08562474609065521, 0.08420207324651308, 0.08273764015425472, 0.08127260211662887, 0.07980709297937656, 0.07834133231173941, 0.07688659418861633, 0.07541989695294302, 0.07395464577055565, 0.07251945737933606, 0.07105474573565068, 0.06957086266715623, 0.06811814234101142, 0.06666914029871764, 0.06526525549720157, 0.06382042810410608, 0.06239609817821787, 0.06096594992589367, 0.059545241081469455, 0.05816570768874937, 0.05676107549177158, 0.05534068146044315, 0.05396481944880778, 0.052600438088829166, 0.05126854473467025, 0.04992642783552736, 0.0485910192563743, 0.047279509410905765, 0.04598317398068207, 0.044744998560840424, 0.043475595806358666, 0.04225550981452978, 0.04102171638869344, 0.03980984433508494, 0.03858715325473223, 0.037423939768811296, 0.03629569281751622, 0.03517303582146799, 0.03407331100896448, 0.032990791161057395, 0.031939382874414717, 0.030940481187862804, 0.02993470415579419, 0.028949813918066194, 0.027999577348700323, 0.02707703120829386, 0.026199956967331055, 0.025332213457951013, 0.024472799329860934, 0.023668827645209438, 0.022894779401346575, 0.022190504421898526, 0.02147326331706568, 0.020757114572455652, 0.0201123961662921, 0.01950049372400646, 0.018961238937251615, 0.01841186920489607, 0.017877393634544367, 0.01740477365743119, 0.016968342144370423, 0.016587415654876043, 0.01622246750511832, 0.015904083369793477, 0.01561591941956372, 0.01536759182123715, 0.015153116268318475, 0.014986136169782232, 0.014865821269095164, 0.014779205840793433, 0.014734082634636965, 0.014721363665644308, 0.014761383842248746, 0.014851183114733893, 0.014974487752169035, 0.015140960465579681, 0.015344642123491497, 0.015599181950112343, 0.01589119126673793, 0.016234356505578973, 0.01662159124757755, 0.017072083569357303, 0.017546160870358485, 0.018074247206526173, 0.018639823006625488, 0.01925231601038739, 0.01989926874543975, 0.020607454466483252, 0.021362131761908418, 0.022163497793400096, 0.02301173611364222, 0.023874081267381303, 0.024820723027272198, 0.0258395164215534, 0.026874158090187693, 0.027956520753601936, 0.02907414268389033, 0.030253773656391005, 0.0314853365785697, 0.03275896764462222, 0.034080344628514676, 0.03543383413632255, 0.03685281566583292, 0.03833286799350904, 0.03984409376936986, 0.041403268246326376, 0.04298837266242006, 0.04464601847750765, 0.04635328336412499, 0.04810356452237026, 0.04990060134489292, 0.05173338568488304, 0.05362520319583694, 0.055569257900096224, 0.057552185351335945, 0.05958134407403456, 0.061639338718091734, 0.06376268559844506, 0.06594177024190977, 0.06815317283808923, 0.07040976291363374, 0.07270816727288712, 0.07505479755904969, 0.07744409730635386, 0.07987912847914791, 0.08235774194111528, 0.08487493056482952, 0.0874403764766668, 0.09003092171077468, 0.09268292797230834, 0.09537564891000061, 0.09810728877042559, 0.1008809182410396, 0.10368811095836741, 0.1065418895178713, 0.10943448728172267, 0.11237028321709518, 0.11533891380681517, 0.11834398605229272, 0.1213883808194948, 0.12446976850832829, 0.1275923724495628, 0.13074568652952404, 0.13389084185226138