0.06467415298123873, 0.06447719993463538, 0.06434656546593144, 0.06419021199914195, 0.06410511848793055, 0.06403291146536716, 0.06392679628419272, 0.06388041739719248, 0.06382139965006313, 0.06378703109438226, 0.0637554208475393, 0.06367349225795693, 0.06365295809495046, 0.06361339055594002, 0.06359321884185934, 0.06357155231694553, 0.0635354129406787, 0.0635138596775393, 0.0634802299359123, 0.06345889915923837, 0.06343712960798825, 0.06338187723161984, 0.06336517732388572, 0.06336794621926241, 0.0633480253209162, 0.06332994292534275, 0.06328949126171125, 0.06327951214508168, 0.06324993157473881, 0.06324657383267732, 0.06324474704275437, 0.06324618306487467, 0.06324904329127692, 0.06325289572225797, 0.0632629271002887, 0.06327685876677121, 0.06326365642195174, 0.06329035407684007, 0.06334588691653, 0.06337592851306795, 0.06341138772714823, 0.06343337651008098, 0.0634825507606098, 0.0635264149818811, 0.06358667568931899, 0.06365162889021646, 0.06371930849711427, 0.06379472015341928, 0.06386085104925106, 0.06394888019610857, 0.06404174928751821, 0.06414981018402235, 0.06425184508041192, 0.06436222428947524, 0.06447627497290995, 0.0645967287553799, 0.06470122334559358, 0.06483746860719349, 0.06498011987705421, 0.06512701205033257, 0.0652796638557624, 0.06543935890767895, 0.06560385938120994, 0.06578022463857525, 0.06595664727570194, 0.06612416241040694, 0.06631618019602499, 0.06651419034076668, 0.06673069118140625, 0.06693962250836245, 0.06715570450686402, 0.06737896798702474, 0.06760944612457837, 0.06782251836450885, 0.06807065306427988, 0.06834154486413065, 0.06859968797715808, 0.06886518260090178, 0.06913361121077483, 0.06941457128859693, 0.0697151539482267, 0.07000924436078354, 0.07031151694239261, 0.07061748133148242, 0.07093667160046821, 0.07126491638436352, 0.07159988490976185, 0.07194295681180088, 0.07229193748233713, 0.07265164255381465, 0.0730127481425293, 0.07338962414070715, 0.07377438820759809, 0.0741716457971913, 0.07457197855549688, 0.07498527756104341, 0.07540207364062543, 0.07582772941227063, 0.07628132032799533, 0.07672235725125617, 0.07714537898592672, 0.07760983945426184, 0.07808249898478453, 0.07857245972515618, 0.07906077959211698, 0.07957498375072186, 0.08007935248366511, 0.0805937922974543, 0.0811204340942487, 0.08165441562333844, 0.08219270082423355, 0.0827471156851167, 0.08331095538270364, 0.08389204218247152, 0.08447367398567289, 0.08504829949526573, 0.08565158724483388, 0.08626358646663596, 0.08689669692464132, 0.08752476440277436, 0.0881523314278992, 0.08880078808164366, 0.08945815054439368, 0.09013789505141222, 0.0908114420796531, 0.09148910234654527, 0.09218268598710413, 0.09288546623440631, 0.09358282312418245, 0.09430568581085604, 0.09503901194693913, 0.09577809542468123, 0.09652562997690131, 0.09729395281411568, 0.09805684544502041, 0.09883223366149697, 0.0996128427706352, 0.10040252580183558, 0.10118768547658312, 0.10199677604368504, 0.10281935686621603, 0.10364348288187705, 0.10447574060741417, 0.10530258561182397, 0.10615251643296639, 0.10702185345687636, 0.10788438219961036, 0.10875466470796773, 0.10963256936922881, 0.1105179623265015, 0.11139613782033667, 0.11229793874063064, 0.11320599479939604, 0.114110193156044, 0.11503193926476338, 0.11598390257181873, 0.11691366114809872, 0.11785035752093918, 0.11877470498759679, 0.11972698899418001, 0.12069005860503972, 0.12165193141238642, 0.12261915228434792, 0.12358709737791801, 0.12456515133249793, 0.12556466919086182, 0.12654977853037358, 0.12754022479157037, 0.12852228019665862, 0.12952427246080683, 0.13053451749672543, 0.13154333439256158, 0.13255586882784318, 0.1335719221811357, 0.13459129393834274, 0.13559921210821899, 0.13662645383851993, 0.13765558364454997, 0.13868875224505145, 0.13972108620710086, 0.14075175205373652, 0.14178774582388154, 0.14282492788187742, 0.14385979020427234, 0.1448993247820416, 0.14592930068319346, 0.1469710155843408, 0.14801237825135166, 0.14906674443228946, 0.1501054028108369, 0.151129556677899, 0.15216993184058464, 0.15320904204979985, 0.1542545917087736, 0.15528974236769624, 0.15632360142042567, 0.1573559234474289, 0.15838645979903201, 0.1594138382970174, 0.16044018829333545, 0.16145384190485665, 0.16247599913535518, 0.1634944806714718, 0.16450687259912922, 0.1655177568504042, 0.166515321648704, 0.16751844568848034, 0.16851632869271832, 0.16952340521811277, 0.17050854145351355, 0.17146750481185558, 0.17244527685108965, 0.17341637941891683, 0.17439189663988666, 0.1753478544764141, 0.17630967543798554, 0.17725088053782667, 0.17818578263403295, 0.179103928699118, 0.1800264123560663, 0.1809219084694139, 0.1818306774582517, 0.1827299338178301, 0.18362293749329503, 0.18450241728627645, 0.18536100291379298, 0.1862223449497858, 0.18707299855759935, 0.1879139742671902, 0.18874275986784947, 0.18957286322100328, 0.19037790016864023, 0.19117226878075408, 0.19194110973270528, 0.1927151184661164, 0.1934857494505185, 0.194233776347643, 0.1949696306219303, 0.1956740074598074, 0.19638717007256362, 0.19709530440999234, 0.1977792510295311, 0.1984495020458636, 0.19912491290404988, 0.19976476886678848, 0.20036001676674503, 0.20097702749550755, 0.20157835117706938, 0.20217288231957328, 0.20274146839938292, 0.20329573222592798, 0.20383310619904998, 0.2043547302168956, 0.20484696061567845, 0.20533820218978063, 0.20583029117464616, 0.20628501558535345, 0.2067234891655832, 0.20712641450731137, 0.20753407124053916, 0.20792482482494382, 0.20829623035872644, 0.20864954177754919, 0.20898354979340936, 0.20930054344338878, 0.2096237551623223, 0.2099006622579644, 0.21012446254756662, 0.21037112131507052, 0.2105979542000928, 0.21080835973481962, 0.2109952089967482, 0.2111748132602332, 0.21132092611362602, 0.21144808859441272, 0.2115292611448603, 0.2116215067779092, 0.21169737522520304, 0.21174743310032784, 0.2117770623877753, 0.21181431001881612, 0.21179961557427898, 0.21175827895519578, 0.2117067627728743, 0.21163559329368808, 0.211532330935197, 0.21142309190598046, 0.21130553895922907, 0.211153481260425, 0.2109815207393341, 0.2107716494303844, 0.21056193486297817, 0.2103176714530076, 0.2100675618169228, 0.2097957994455859, 0.2095227577821489, 0.20920572193281317, 0.20884293802764803, 0.20848921088236436, 0.20811405810518765, 0.2077614049198666, 0.20733850660222436, 0.2068759421928392, 0.20641881323575204, 0.2059417924683834, 0.20546623003123962, 0.2049469088302841, 0.20439002839880818, 0.2038360095251407, 0.20326225647410112, 0.2026621592149416, 0.2020501364739641, 0.20141836107681785, 0.200767017186986, 0.20009628751173938, 0.1993962672743773, 0.1986885867333654, 0.1979727071108216, 0.19722506032244916, 0.19645915468682182, 0.19567290610925275, 0.1948712433222217, 0.19403487191923033, 0.19319973001625598, 0.1923461306294447, 0.19150018201991717, 0.1906073887347912, 0.1896918152430923, 0.18876784951670525, 0.18782764558877033, 0.18686913816600978, 0.18589727809086937, 0.1849152108217523, 0.18391123855803754, 0.18289221123382898, 0.18184038021379814, 0.18079407007934375, 0.17974684847859787, 0.1786680908879821, 0.17757537439354212, 0.17646107638914743, 0.1753421093585845, 0.17422960669170695, 0.17308097853231247, 0.17192038719574892, 0.17074237220486282, 0.1695590123572693, 0.16836386186379973, 0.1671571631912894, 0.16593916832753, 0.16469108541045754, 0.16345369721974748, 0.16220586965265596, 0.16094565524354648, 0.159674802097259, 0.1583970745517347, 0.15710571586701683, 0.15582301842789334, 0.1545112014972214, 0.15319181760020326, 0.15184377292696247, 0.1505125636989627, 0.14918780791480674, 0.147838938020432, 0.14648358764311703, 0.1451253974409057, 0.14375750305275153, 0.14236848142188377, 0.1409919668141605, 0.13960968239755384, 0.13824333367444974, 0.13684804263758715, 0.13543257392388494, 0.13403289087359305, 0.1326293433398237, 0.1312548107874697, 0.1298405538206541, 0.12839175326084826, 0.12698000699713063, 0.12556568539764298, 0.12415705972527415, 0.12273786284831754, 0.12130881122486804, 0.11988930280286746, 0.11846906636950787, 0.1170473836137119, 0.11562702989638972, 0.11422611513721913, 0.11280450814511057, 0.11138511335827819, 0.10994796934884506, 0.10853619621265542, 0.10714298133902415, 0.10573297998124145, 0.10432646243622537, 0.10292367189878648, 0.1015248572977872, 0.10012466871858439, 0.09873527988905167, 0.09735032519095738, 0.09596675108618664, 0.09459201210764277, 0.0932403653268606, 0.09187400436499675, 0.09051445209219801, 0.08914842606768382, 0.0878047021588748, 0.08646756365549493, 0.08513731430960944, 0.08381425143501352, 0.08247849265504843, 0.08117321985203994, 0.07989278706767326, 0.07859949770199007, 0.07731496533279572, 0.07604279202932479, 0.07477606370030601, 0.07353243630851718, 0.07228351132203635, 0.07104539144968153, 0.06981480361065583, 0.06859899817747944, 0.06736609146718972, 0.06617580932416074, 0.06499516815019481, 0.06385144351707096, 0.06268779080656829, 0.06152401769327514, 0.06038642826332194, 0.05926053892135497, 0.05815327330429412, 0.05705052316555133, 0.05595257811116597, 0.05487624121460812, 0.053812354893155515, 0.05276446276390588, 0.05172558697211346, 0.05068641699500318, 0.04967567727134883, 0.04867758454126564, 0.0477102941184747, 0.04673587970766105, 0.045777975313335224, 0.04483184116600927, 0.04390015716491239, 0.0429885401026676, 0.04208509061788341, 0.04118188493488621, 0.04030988029021328, 0.039451829727065645, 0.038602234490114004, 0.03777310513591922, 0.036952295973494455, 0.03615184307005296, 0.03536522501482148, 0.03461275148174726, 0.033851642831038684, 0.033092406536732816, 0.03236356260693955, 0.031649133709618964, 0.030969332023859725, 0.030281288907392595, 0.02958758535339605, 0.02893334930549957, 0.028293257991781118, 0.02767519609864041, 0.027062507856201717, 0.02645215675460641, 0.025870297390561993, 0.025302287456760122, 0.024766091023251675, 0.024223593715555002, 0.02368927848610825, 0.02317728862897178, 0.022667193318491954, 0.022185115185608128, 0.02171637977483807, 0.02128228111432414, 0.02083752297688983, 0.020401652791564806, 0.019986371442102538, 0.019584845870435515, 0.01917899039177086, 0.01880678282891318, 0.018460313817888045, 0.018110976428962616, 0.017774647704213692, 0.017447813400671308, 0.017137468880233892, 0.016858534294473582, 0.016570363925021026, 0.016295351330570564, 0.016009665250568284, 0.015763070641630662, 0.015528586429790874, 0.015303759664386905, 0.015089831818743996, 0.014900145876821567, 0.014705986878471572, 0.014504079483111275, 0.01433469347894451, 0.014175058483662283, 0.014016126156238977, 0.013876863938056937, 0.013744315296799486, 0.013623193218170515, 0.013510772698771156, 0.013421548041643517, 0.01332444312446309, 0.013242178774751492, 0.01316259387058357, 0.013092070224591147, 0.01302471456599305, 0.012972159208329677, 0.012943189694093256, 0.01290421345899001, 0.012873556334983879, 0.012832930647717187, 0.012820126437211773, 0.012809127947058803, 0.012809296909899558, 0.012815154116128928, 0.012841121203972987, 0.012856058847517643, 0.012871425875534285, 0.012898846191590128, 0.012931408479876035, 0.012958793277057108, 0.013002217015004341, 0.013074176357448673, 0.013122091584260373, 0.013174961279825304, 0.013229057989658266, 0.013291183425326559, 0.01335927110644427, 0.013428264277530287, 0.013500533140592347, 0.013565701608080842, 0.013644939410577817, 0.01373165287710398, 0.013813746652369403, 0.013897665985393772, 0.013980941195399865, 0.01406811461414664, 0.014159677653852704, 0.014248282340571372, 0.014337707521254588, 0.014432213264185197, 0.01452204867685872, 0.014605576977518634, 0.014696851731797356, 0.014787683830446404, 0.014895829970176683, 0.014982984759708714, 0.015089232646891854, 0.015173742953232842, 0.015258749110295773, 0.015338214579043512, 0.015423657641427705, 0.015513689714461284, 0.015596103510976391, 0.015677255288731713, 0.015751244905209776, 0.01582971472999687, 0.015948373501438965, 0.01601647173506953, 0.016084195655981594, 0.01615888229476038, 0.016223393703102423, 0.016303410275765463, 0.016362756254821555, 0.016420930574221653, 0.016506598563475975, 0.01655737868757497, 0.01661632671853681, 0.016663818910919587, 0.016709969230157818, 0.016783418773656588, 0.016821772068705377, 0.016875925211382772, 0.016909575319258945, 0.01694212388603476, 0.016981991846814887, 0.01700964718210649, 0.017114869058374234, 0.017128046700568996, 0.017142940169942607, 0.01714854292671262, 0.017165515584856867, 0.017213761965447397, 0.01722368754232277, 0.017233330002198947, 0.017297023124274963, 0.017297508654442764, 0.017292611025817903, 0.017295874889382053, 0.017298719431894545, 0.017346632656295314, 0.017341535397672345, 0.017372224247373853, 0.01736424000154729, 0.01735819912422566, 0.01736466001671326, 0.01735926484665256, 0.01739519734035243, 0.017386254189732504, 0.017379836778617756, 0.017393328630714237, 0.017388167633411153, 0.01739756037112522, 0.017394913165059325, 0.01739452578231029, 0.0174375759184746, 0.017435686644003502, 0.017434414218294208, 0.017440526363229514, 0.01744976862769356, 0.017505690208708423, 0.017515265238845695, 0.017553704541911783, 0.017570657500596058, 0.017593749147959095, 0.017637238564527206, 0.017669933190062725, 0.01775264832916746, 0.017792277965143502, 0.017840432079802505, 0.017905720943222056, 0.017968832292354606, 0.01805815065456406, 0.018135408847307303, 0.018221760915116025, 0.01832717301721841, 0.018430160055642707, 0.018552774604201155, 0.018673590312555118, 0.01880462516588383, 0.018982931987732578, 0.019129996563489467, 0.019299827508165397, 0.019470912802570836, 0.0196551961088205, 0.019854923356991964, 0.020065404427952873, 0.020303999308689667, 0.020539904209334332, 0.020790577475482266, 0.021071866288103418, 0.021350616779216416, 0.02165348693596524, 0.02196396790164092, 0.022291562335497384, 0.022654409908512654, 0.023014635366044846, 0.02341167369912096, 0.023807584400620654, 0.02422381334639252, 0.024660500871310595, 0.025117843820294344, 0.025591605954838753, 0.026091610584157064, 0.02661288534291187, 0.027161432473919677, 0.027725759239199028, 0.028317419571862498, 0.028927297905459476, 0.029561133449948918, 0.030219345624918167, 0.03090237316130786, 0.03164205196845608, 0.032372122081944954, 0.0331301738574026, 0.033899634387309946, 0.034716528594831306, 0.03556128782445365, 0.03643438861809721, 0.03736321462739497, 0.038291062898112724, 0.03925024090271227, 0.04021974203156929, 0.04124516395344408, 0.04230054755171149, 0.04338881263218386, 0.04450916842511445, 0.04567000081569894, 0.04685516353126789, 0.04809015512324349, 0.04934207318619252, 0.05062993648591178, 0.051927185857475355, 0.0532913715457806, 0.05470786316586987, 0.05614150648173971, 0.05761275687192465, 0.05912091627183077, 0.060668790530072673, 0.0622599589497142, 0.06388531762758921, 0.06555059295646175, 0.06726737692041938, 0.06901222178639914, 0.07080548805631588, 0.07263316691642906, 0.07450350876752138, 0.07639322857704156, 0.078352634811696, 0.0803720976914819, 0.08241395287741485, 0.08449985393663245, 0.08660543063390681, 0.0887833993919326, 0.09101609558775202, 0.09328016892844332, 0.09558932655903561, 0.09793157757472933, 0.1003334602021538, 0.10278406717965333, 0.10527664341680319, 0.10781553324997495, 0.11042458864504992, 0.1130540588938113, 0.11572308678054974, 0.11845080621739336, 0.12122668805109332, 0.1240520020112401, 0.12692450668487973, 0.12982324647754848, 0.13279600131018832, 0.13581637256699447, 0.13889136430808735, 0.14200692537460208, 0.14518355384119536, 0.14839517002249838, 0.15165646754757317, 0.15496071792024055, 0.1583222091369381, 0.16174193622147542, 0.16520086050618973, 0.16870959578241335, 0.1722546164991943, 0.17586443745524172, 0.17952082211734946, 0.18322854560958568, 0.18698494349718056, 0.19080344706645258, 0.19465541706903094, 0.19854884864804467, 0.20250023019442787, 0.20650008244903043, 0.2105460163853032, 0.2146426335849931, 0.21879718815740878, 0.22298805067591496, 0.22722694938498303, 0.23149341133357726, 0.23583002572977046, 0.24020029101873425, 0.24463025713996567, 0.24910514959668578, 0.25362596316768266, 0.25819014840104476, 0.2627999471861811, 0.2674527274214242, 0.2721495329520571, 0.2768844387444116, 0.2816690112596298, 0.2865186624307826, 0.291385372103667, 0.29629526081248914, 0.30122307766067474, 0.30622065363073686, 0.3112481402496957, 0.316326573906625, 0.32144358284975544, 0.32659205030280236, 0.33178584481271606, 0.3370378421106814, 0.3423023160735401, 0.3476039645006311, 0.3529331312063597, 0.3583081795216897, 0.3637043439189657, 0.3691495689716085, 0.3746272763295063, 0.38015481197256784, 0.3856934269318866, 0.39126367854734695, 0.39686474647877085, 0.4024958019617281, 0.4081347136179041, 0.41382591588411144, 0.41952319907436725, 0.425268767696452, 0.43103804245692273, 0.43684500357243505, 0.44265803365035, 0.44849256242608493, 0.45435013748943676, 0.46022857602721157, 0.4661180432236167, 0.4720367154137678, 0.4779865307617426, 0.4839380375672298, 0.48990626105253104, 0.49586217230315044, 0.5018643321226988, 0.5078718557375304, 0.5138982328213498, 0.519934666429077, 0.5259792124619755, 0.532033394281267, 0.5380972349405272, 0.5441650536875428, 0.5502385581126539, 0.556312278057608, 0.5623947375973305, 0.5684695205791318, 0.5745570658808578, 0.5806444152190651, 0.5867238765322562, 0.5928087545757981, 0.5988889581722181, 0.6049658845586637, 0.6110371964111508, 0.6170738489102019, 0.6231343732689668, 0.6291924131756194, 0.6352304261792853, 0.6412567862096316, 0.6472592806748801, 0.653260709563307, 0.6592243492766894, 0.6651968773992236, 0.6711507717348016, 0.677070601588532, 0.6829864422257406, 0.6888913256152079, 0.6947605558814866, 0.7006064770512029, 0.706416842328306, 0.7122144203089016, 0.7179792702620815, 0.7237222972981019, 0.729435838363077, 0.735112155875612, 0.7407645117668299, 0.7463670853400525, 0.7519546037354625, 0.757506145491267, 0.7630342359619545, 0.7685093225755629, 0.7739216724015074, 0.7793226043428055, 0.7846818446892575, 0.7900018346563902, 0.7952744781064673, 0.8004792474859443, 0.8056651768714572, 0.8108034104717717, 0.8158785361271159, 0.8209206636820581, 0.8259116678298686, 0.8308507496941961, 0.8357370796635918, 0.840560836435561, 0.845340208845579, 0.8500513722954245, 0.8547197067699589, 0.8593297796550712, 0.8638662517002877, 0.8683593111285599, 0.8727696222724952, 0.8771417555587273, 0.8814497937259379, 0.8856740986084249, 0.8898545609011796, 0.8939467005647336, 0.8979952697197294, 0.9019745183058115, 0.9058683247218996, 0.9097095731078767, 0.913498239168819, 0.9171933779945509, 0.920805837949166, 0.9243587856734474, 0.9278382911310835, 0.9312437604675584, 0.9345745851032957, 0.9377965239587189, 0.940980447279614, 0.944085966889683, 0.9471015181960676, 0.9500505457551576, 0.9529205054800926, 0.955708674092062, 0.958416011813224, 0.9610432457840938, 0.9635875859132471, 0.9660387343717471, 0.968420093354606, 0.9707179797285639, 0.9729141250504117, 0.975046318301395, 0.9770930103812321, 0.9790540033281542, 0.9809290858146621, 0.9827157960648129, 0.9844186751597036, 0.9860101894250058, 0.9875425619159437, 0.9889864305667856, 0.99034291492289, 0.9916096137608075, 0.992783339238582, 0.993873576898029, 0.9948749751794408, 0.9957953654563415, 0.9966180505849263, 0.9973354840630352, 0.9979833426598271, 0.9985416905226868, 0.9990151067214801, 0.9993941559452678, 0.9996595847614257, 0.9998638951353807, 0.9999780147021056, 1.0, 0.9999349068994953, 0.9997893352443368, 0.9995445205799649, 0.9992113657401536, 0.9987934629769879, 0.998283906300457, 0.9976678776545256, 0.9969861387752393, 0.9962164270937949, 0.9953670303597084, 0.9944217116166948, 0.9933666630231134, 0.9922523256274014, 0.9910512780570538, 0.9897854317483008, 0.9884101183567722, 0.9869455254471686, 0.9854040078689843, 0.9837794017485183, 0.9820722388945834, 0.9802830694567988, 0.9784102209223723, 0.9764590478227021, 0.9744275071442445, 0.9723263309770548, 0.9701347338144501, 0.967841789314971, 0.96549816254519, 0.9630766679600662, 0.9605680821350404, 0.9579947200414013, 0.9553589733743824, 0.9526332017739988, 0.9498342641384546, 0.9469529194911626, 0.9440114762987084, 0.9409798281257565, 0.9378994588873183, 0.9347488121934908, 0.9315279004700233, 0.9282402276133701, 0.9248979073616235, 0.92147583731835, 0.917989702568208, 0.9144371439258578, 0.9108263238822788, 0.9071576519297577, 0.9034250395473119, 0.8996335314098436, 0.8957875395206206, 0.891880976058545, 0.8879020796000561, 0.8838876563425725, 0.8798188996962604, 0.875676859511929, 0.87150565344474, 0.8672882477332597, 0.8630141065527493, 0.8586912166989078, 0.8543399285357708, 0.8499210165556818, 0.84546725855935, 0.8409607110469596, 0.8364131130224924, 0.8318120934129508, 0.8271873499925125, 0.8225285813972004, 0.8178275014187085, 0.8130906617425122, 0.8083058314800275, 0.8035028348155447, 0.7986378617461173, 0.7937742230483109, 0.788878800435488, 0.7839542826211974, 0.7789998191117035, 0.7740361678450195, 0.7690266607949992, 0.7639939413267, 0.7589078998524483, 0.7538365338638355, 0.7487608106916874, 0.7436464980817376, 0.7385149578574259, 0.733367505873858, 0.7282054467414156, 0.7230334368752787, 0.717845611221871, 0.7126472211927227, 0.7074316613493362, 0.7022168488108586, 0.6969868909123338, 0.691759757838256, 0.686527447104303, 0.6812811975699573, 0.6760437635982058, 0.6708067456818508, 0.665566727985861, 0.6603276849364269, 0.655075206845664, 0.6498439176328545, 0.6446052943148483, 0.6393845148070698, 0.6341696378091264, 0.6289810864165134, 0.623779676319293, 0.6185780229286836, 0.6134010618292157, 0.6082366296423574, 0.6030634782031916, 0.5979304132991382, 0.5928131677102392, 0.5877106350528868, 0.5826253738477903, 0.5775764995264021, 0.5725270280803754, 0.5674835871842495, 0.5624804776106253, 0.5575000683386582, 0.5525546041235679, 0.5476212622912282, 0.5426885015438463, 0.5378120016488163, 0.5329621329150226, 0.528133217637902, 0.5233405621567365, 0.5185816674483542, 0.5138479898034004, 0.5091457797003204, 0.5044635845118293, 0.4998284637438161, 0.4952445854701574, 0.49067470469588315, 0.4861408735674519, 0.4816202221182234, 0.4771634456109017, 0.47274334324628015, 0.4683607184980361, 0.46401633432596456, 0.4597210021180188, 0.45545396181932896, 0.45119305282369826, 0.44701269424973855, 0.4428723197974792, 0.4387883975119046, 0.43472828542225256, 0.4307033642596699, 0.4267308132213678, 0.422801822425302, 0.41893034317031486, 0.4150882449014902, 0.4112784174589633, 0.40752975415828735, 0.4038266294926408, 0.4001548439569309, 0.3965457190082298, 0.3930036306285009, 0.3894836992861357, 0.38600362122897086, 0.3825802289290128, 0.3792043799918551, 0.3758616875256128, 0.37258329234888177, 0.3693420151622607, 0.3661595363920852, 0.36302412363706155, 0.3599337779195519, 0.35689346554661194, 0.3538950920838194, 0.35095071375878906, 0.34805380646620326, 0.3452100860440612, 0.34240770967950257, 0.33966342723446613, 0.33695574718182275, 0.3342965280035642, 0.33167662775095685, 0.32911492173499834, 0.3265748260209913, 0.3241110076629297, 0.32169281478370915, 0.3193337124584508, 0.31700507195732314, 0.31470927452529757, 0.3124746958997789, 0.31028518536179517, 0.3081439436982308, 0.3060436248123282, 0.30397564730220716, 0.30196593930556725, 0.29999961001429265, 0.29808763021683016, 0.2962058970024473, 0.2943438251635192, 0.29255103863851534, 0.2907992659157568, 0.28910841454195907, 0.28743528326761936, 0.2858033891263062, 0.2842121985617272, 0.28266116840861816, 0.2811419011208923, 0.2796705177719122, 0.27821587718459667, 0.27682274487199277, 0.2754654085769572, 0.2741647879545249, 0.27287519315880815, 0.2716135191187917, 0.2703958063593739, 0.26921213027947805, 0.2680607807859745, 0.26694353895108525, 0.2658405337057592, 0.26478928018967357, 0.2637679459993064, 0.2627850039701957, 0.2618208682950227, 0.26089232109340876, 0.2599844238487261, 0.25910447800619596, 0.2582495274163263, 0.25742362152209625, 0.2566020967082132, 0.25582953088000365, 0.25508003633409015, 0.2543541955435207, 0.25364906310534024, 0.2529575355077729, 0.2522956831991494, 0.2516536010786858, 0.2510374349278255, 0.2504322869375072, 0.2498600624180577, 0.249289094216415, 0.24873591937233414, 0.24820420600748028, 0.247683616905837, 0.24717753821274052, 0.2466875322977927, 0.24621146689323892, 0.2457552817316802, 0.24530390450697567, 0.24483314433213713, 0.2444089245573698, 0.2439933466829135, 0.24358476901345746, 0.24318503736027594, 0.24279451631840754, 0.24240788490131088, 0.24202722790246323, 0.24164522760681517, 0.24127558444314237, 0.240908622978053, 0.24054617511404738, 0.2401863560623712, 0.23983085048147484, 0.23947432934342094, 0.23913456685216952, 0.23877761099393965, 0.2384214301342018, 0.23807540058829824, 0.23771738222633715, 0.23731492096330434, 0.23696022406312658, 0.23660089338051896, 0.23623883733755047, 0.2358689370609018, 0.23550804392804287, 0.23512477603921986, 0.23473595352967264, 0.2343264737548633, 0.23392679489829776, 0.23352141604312637, 0.23310518553454226, 0.23268036513563756, 0.23225999490117377, 0.2318150697786436, 0.23136445242924636, 0.23090048593167645, 0.23042665775564244, 0.2299245389155565, 0.22943178456501356, 0.22891552676309584, 0.2283993063713467, 0.22786958053159265, 0.2273373599842667, 0.22677860890625542, 0.22620188850283185, 0.22561642885267533, 0.22501663553943455, 0.22441346906930051, 0.22378285687849314, 0.22313333568607985, 0.22247412219212143, 0.22179961864862488, 0.22109725571472136, 0.22039302138985337, 0.21968445226157138, 0.21894523382456332, 0.21818984724363896, 0.21742034042345726, 0.21663176988147226, 0.21581653872705645, 0.21499593261302796, 0.21415787840778344, 0.21331241625548475, 0.2124380580143425, 0.2115254057496873, 0.21061963492051353, 0.20969547752744705, 0.20875976051672757, 0.20779828340015513, 0.20681012853581296, 0.20581440257077935, 0.20480055092963814, 0.20378439166021248, 0.20273268691223184, 0.2016450658366188, 0.2005620447285983, 0.19946111297507904, 0.1983581516297422, 0.1972199846680601, 0.19606647527534654, 0.19489530216312595, 0.1937078695981348, 0.1925009017241554, 0.19128165144238793, 0.1900496246422839, 0.18879783420962548, 0.18753043036631614, 0.1862554170013014, 0.1849562852058465, 0.18363689611345127, 0.18230930354290206, 0.18096703949324716, 0.17960248202552923, 0.17823254934153626, 0.17684709132795226, 0.17544881375086072, 0.17403671700759119, 0.17261225998913754, 0.1711734001664077, 0.16973301374260175, 0.16826760644001804, 0.166790773647631, 0.1652859606506161, 0.16378918721685176, 0.16228534278018372, 0.16076532984880296, 0.15923488083832174, 0.15770671548319953, 0.15615501211436145, 0.15458017508647068, 0.15301348388731517, 0.15143802154643363, 0.1498654382354439, 0.1482723425453238, 0.14666009820795312, 0.14505526699688806, 0.14344250604254563, 0.14182466324291465, 0.1402008739014805, 0.13856600034322966, 0.13693242014093235, 0.13531862065837294, 0.13367267131160354, 0.13202422042858053, 0.13035786256161142, 0.12870726474135283, 0.12704522456660008, 0.12539126605746134, 0.12373524204114322, 0.12208552242660618, 0.12042593794879516, 0.11877075120233711, 0.11711085875761927, 0.11545198997750565, 0.1137833280361433, 0.11212909827913779, 0.11049885804737555, 0.10884543168746744, 0.10719580433580475, 0.10552897102704524, 0.10389051509482342, 0.10224100033854751, 0.10061190454703184, 0.09898648233919885, 0.09737653058687826, 0.09575878137810577, 0.09414478697562305, 0.09253974223058681, 0.09094141599863297, 0.08933678838564887, 0.08775487607485775, 0.08619139090259122, 0.0846230081785722, 0.08306346596508409, 0.08148848170916911, 0.079950850911644, 0.07844418840598981, 0.07692137856880296, 0.07540944419472077, 0.07389636347997826, 0.07240865293829453, 0.07093203043498973, 0.06946688669537596, 0.06801359508580829, 0.0665792371616534, 0.06514985570507334, 0.06373485104403417, 0.0623320999745397, 0.06094318172967324, 0.05957393881217559, 0.058212689142360115, 0.05688197853372913, 0.05554862096651349, 0.054231350031331706, 0.05292237285281916, 0.05163843858148225, 0.05037034912605378, 0.04911825726693144, 0.04788231655672202, 0.04665819741975915, 0.04545558492489236, 0.04426260374786675, 0.04309373687054743, 0.04194120835245387, 0.040829896689463414, 0.03970757935323959, 0.03857895081333768, 0.037496422350662, 0.03643082892209717, 0.03536892141945457, 0.034339480475328255, 0.03336151080547516, 0.03236139189572634, 0.03138043889046119, 0.030399522884759975, 0.029459091342856358, 0.028530951031591666, 0.027627118498881845, 0.02674105342015997, 0.025871752697515762, 0.025021698244287748, 0.024188524771803575, 0.02337468822688433, 0.02257891872296524, 0.021781090949407694, 0.021024133391562567, 0.020304378511578947, 0.0195790913721168, 0.01887225604833026, 0.018186048111518617, 0.01751562617903911, 0.016857953419219543, 0.016224835401033953, 0.015609529066232884, 0.015018681571722042, 0.014437905041652321, 0.013858240704184538, 0.013315272090190169, 0.012788951623861244, 0.012284847199486915, 0.011790986714306423, 0.011311680297657185, 0.01085155664262155, 0.010407816708852264, 0.009984803056121178, 0.00957283085495868, 0.009172555462802273, 0.008793300276398788, 0.008429549457004082, 0.008088964771002474, 0.007754671267519804, 0.007453676865405963, 0.007147578266116393, 0.0068573088897437885, 0.006558917084717395, 0.006302051175342992, 0.006077548712910345, 0.0058447157478896524, 0.005625891976367683, 0.0054352923591985385, 0.005241590220853202, 0.005061677904100065, 0.004895108400973284, 0.004741455466899159, 0.004607035798314292, 0.004477159003207922, 0.0043582796504622445, 0.0042523629852172515, 0.004157683721074396, 0.0040817120397333324, 0.004007403638020066, 0.003966100110114999, 0.00390973424922429, 0.0038644259788538655, 0.0038228985855965686, 0.003798934285025462, 0.003800906942315757, 0.0037926660176129112, 0.003793707386360253, 0.003824822230133934, 0.0038402585874232373, 0.003895014522505048, 0.003924154753191317, 0.003962917843080294, 0.004032968992765199, 0.004085960334993516, 0.004165705070339793, 0.004233319423811769, 0.004309325588648768, 0.004404166003114368, 0.004493317654844003, 0.004644325191006987, 0.0047397569074362845, 0.0048439629519191904, 0.0049761411570029696, 0.005092524821058506, 0.005237489889580402, 0.005364904767672416, 0.00549919611310643, 0.005654093709862321, 0.005797874461337168, 0.0059885811380297055, 0.006137343124529033, 0.006292589362853295, 0.00646690178379547, 0.006630923275752622, 0.0068548117964988935, 0.00702110709819035, 0.007194156681733796, 0.007390937059415276, 0.007572488072466778, 0.007788437871299886, 0.007976063615558878, 0.008169171460041558, 0.008384901991093614, 0.008584447122554401, 0.00881645529717084, 0.009020717750980298, 0.009229836902264449, 0.009472282876045807, 0.009685529094307786, 0.00990244346880521, 0.010124787842304988, 0.010350718113460994, 0.010599989014995674, 0.010829364430930724, 0.01109269223877506, 0.011325258533776852, 0.011562554635046482, 0.011825405031280198, 0.012068148685635797, 0.012327993778932905, 0.012578322971011906, 0.012833396122524503, 0.013110801274629711, 0.01337214183705025, 0.013647392917584237, 0.013917210226352042, 0.014191990018362388, 0.014510743986060833, 0.014789912631676219, 0.01507243126579061, 0.015365096836662361, 0.01569728819040452, 0.015997345752288568, 0.016304930254827665, 0.016621970950513765, 0.016943473854219026, 0.017287627976920798, 0.017620966169938152, 0.017962002917243244, 0.018318472447434286, 0.018673646444207305, 0.01903793481090407, 0.01940895450252092, 0.019788084459506063, 0.020188865681803402, 0.020582835424867364, 0.02098383015328157, 0.02139671598896647, 0.021818985456353895, 0.022286702125993714, 0.022723836249340157, 0.02316745567790706, 0.023629474010189937, 0.02410332035453249, 0.024580181651877052, 0.025079317081349767, 0.02561613107793559, 0.026136145110095283, 0.02667019659891389, 0.027218450497748053, 0.02778111289203613, 0.028360668085941662, 0.028952625298388837, 0.029559939947870466, 0.030182924646421923, 0.030821917182959624, 0.03147727764306383, 0.03214938580762413, 0.03283863880561344, 0.03356226012837947, 0.03428492784484062, 0.03502023514881939, 0.03578279371851231, 0.03656498965400266, 0.03735490966761871, 0.03817919691168008, 0.03905509309946805, 0.039916418064482706, 0.04080082673096664, 0.041697401233756, 0.042630290515149695, 0.04358994499472381, 0.04456966846834623, 0.04557389818749688, 0.046594109019447244, 0.04764981593702273, 0.048743201196517934, 0.04984858476771727, 0.050981076341496664, 0.052150069480725265, 0.053336934296859775, 0.05453814601723903, 0.055785061326561865, 0.05706083912343114, 0.058362633665663764, 0.05969810568207482, 0.06108059591392654, 0.062474883615848034, 0.06390136665163655, 0.06535033188475449, 0.06684360921690174, 0.06837526173209191, 0.06993384680689671, 0.0715264578184463, 0.07314790582741236, 0.07481051996084417, 0.07650808439532719, 0.07824105197799758, 0.08000986620671822, 0.08180823667709301, 0.08365088692887031, 0.0855246759401349, 0.0874419785252821, 0.08939661017283235, 0.09139352488663281, 0.09342363968167591, 0.09549940978117641, 0.09760691004736653, 0.0997544523129207, 0.10193336248869225, 0.10416299085957445, 0.1064453402024494, 0.108754537054577, 0.11110548446781786, 0.11347933827307569, 0.11591681681150076, 0.11840231293205443, 0.12092187403228581, 0.12348377304723464, 0.12609385606710663, 0.12874043287057574, 0.131421373503059, 0.1341558914325154, 0.13693352150570018, 0.13974997956705928, 0.1426149769940869, 0.14553009587540383, 0.14848121299945793, 0.1514764330797939, 0.15450686639270286, 0.15759163956591632, 0.16071907525113233, 0.1638916597231059, 0.1671081466609952, 0.17035739341909079, 0.17366327288834962, 0.1770327231552755, 0.1804229330510826, 0.18385781217144634, 0.18731256454591225, 0.19083947104903407, 0.19441257721010607, 0.1980247618393115, 0.20167999358185051, 0.20537596272333952, 0.20911733864877177, 0.2129035876989386, 0.2167298107496255, 0.22059849822613029, 0.22449599663472672, 0.22845067647217093, 0.2324531080658793, 0.23648882875083418, 0.2405655925715333, 0.24469544308642993, 0.24885185663341808, 0.25303563126316797, 0.25727491190435325, 0.2615533318895147, 0.26585595724815886, 0.2702133811918354, 0.2746090838960295, 0.2790403659382794, 0.2835082003917162, 0.2880043468271684, 0.2925450612912571, 0.2971228522962709, 0.30173253309916526, 0.30637629970943225, 0.31105140569287876, 0.3157620842879097, 0.3205051250077179, 0.32527996075573823, 0.33008599815442136, 0.3349304641161373, 0.3397960344985536, 0.3446633038512477, 0.34959110286095324, 0.3545455364163502, 0.3595327799591897, 0.36453794498772535, 0.3695649943479656, 0.3746203616011255, 0.379699328892547, 0.3847910704545084, 0.38991626957991427, 0.3950633289953344, 0.4002291335629318, 0.40541424493438655, 0.41060329131094137, 0.4158264255722649, 0.42108349715819027, 0.42633561652802454, 0.43160319480470155, 0.4368639665998052, 0.4421622286266565, 0.4474695624003105, 0.45278989872162706, 0.45811971949380265, 0.463443576419484, 0.4687915430324642, 0.47415778347757315, 0.47951524082615876, 0.48487761500314847, 0.49021587599168104, 0.4955885735063718, 0.500952561506851, 0.5063260687302013, 0.5116976138250854, 0.5170674730480781, 0.522432375550691, 0.5277770297001946, 0.5331338293569615, 0.5384832186917758, 0.5438231748452798, 0.5491551390089171, 0.5544723252500945, 0.5597832659190269, 0.5650816299800794, 0.5703675186413122, 0.5756375019580731, 0.5808750234592956, 0.5861147301961424, 0.5913232961236069, 0.5965259388484527, 0.6017070529464158, 0.606866805960139, 0.612001826987199, 0.6171000952655478, 0.6221867724993219, 0.6272462050306653, 0.6322594667593867, 0.6372636664953235, 0.6422365526943642, 0.6471772029557292, 0.6520846598263191, 0.6569254340198708, 0.6617676238653369, 0.6665728790565986, 0.6713380228796515, 0.6760635394570326, 0.6807586237563372, 0.6854009008217846, 0.6899778073327509, 0.6945383282887289, 0.6990535591030099, 0.7035170051114183, 0.7079396627396791, 0.7123262901454834, 0.7166497546423392, 0.7209236962364204, 0.725112317203412, 0.7292884404376438, 0.7333998391703408, 0.7374671899290864, 0.7414777628921227, 0.745417363858531, 0.7493138155644922, 0.7531313608952733, 0.7569098012780708, 0.7606258638130824, 0.7642845390417625, 0.7678732595270227, 0.77139572684561, 0.7748559522631743, 0.7782505143921294, 0.7815696832170171, 0.7848317502726931, 0.7880152460969788, 0.7911409084916529, 0.7941960898173348, 0.7971734220113275, 0.8000865486414949, 0.8029021978711258, 0.8056721857844948, 0.8083667330204867, 0.8109809285730849, 0.8135238514415961, 0.8159605869163616, 0.8183526440810287, 0.8206650947684355, 0.8228898474797, 0.8250433019320035, 0.8271326795788722, 0.8291219597766901, 0.831030723657772, 0.8328618790065007, 0.8346078234833566, 0.8362765680330149, 0.8378581124294345, 0.839357303974999, 0.8407400456827229, 0.8420773796134194, 0.8433313560134438, 0.8444970710359172, 0.8455770284251085, 0.8465497636117398, 0.8474603867319331, 0.8482701002373747, 0.849007512055009, 0.849656714793435, 0.8502122007350015, 0.8506859633926058, 0.8510882512090883, 0.8513834163990506, 0.8515914282938826, 0.8516965440379339, 0.8517320895649764, 0.8516783663554736, 0.8515378778377894, 0.8513094217746708, 0.8509942565946813, 0.8505901437104075, 0.8500862341023556, 0.8495088987497437, 0.8488437290069049, 0.8480966134029372, 0.8472559255480182, 0.8463241057674138, 0.8453109475048829, 0.8442114267617327, 0.8430225124951007, 0.8417516997200167, 0.8403886490059861, 0.8389480641712691, 0.8374224121820109, 0.8358099400655451, 0.8341159124530397, 0.8323359467421434, 0.8304753495201519, 0.8285320219380075, 0.8265065467211483, 0.8243995183514784, 0.8222093027741328, 0.8199412877578144, 0.8175934589067361, 0.8151608824726827, 0.8126561583806605, 0.8100789624787708, 0.8074181382592409, 0.8046810823195869, 0.8018595650806671, 0.7989734062654449, 0.7960284659184912, 0.7929922422894587, 0.7898841624432636, 0.7866971377762328, 0.783448633938951, 0.7801212169128763, 0.7767348495325989, 0.7732798428144846, 0.7697493536772916, 0.7661610737260508, 0.7625078635986834, 0.7587884290315408, 0.7550051855740759, 0.751177148797358, 0.7472672762883982, 0.7432743320552391, 0.7392493191500396, 0.7351653863531513, 0.7310371761276565, 0.7268372827301433, 0.7225715953046339, 0.7182650310346766, 0.7139054371538391, 0.709489536141659, 0.705028069142461, 0.7005359993223316, 0.6959740645966054, 0.691366047731569, 0.6866872712056895, 0.6819936679144827, 0.6772581350368692, 0.6724772694606621, 0.667655075714981, 0.6627906400675476, 0.6578900519484987, 0.6529474969040825, 0.6479738416763126, 0.6429651140795191, 0.6379137092661704, 0.632840045742669, 0.6277303837709333, 0.6225956677886962, 0.6174319935910004, 0.6122508679568559, 0.6070322461542941, 0.6017771173864263, 0.5965129916084614, 0.5912265830474968, 0.5859192818852054, 0.5805924641663938, 0.5752474929789431, 0.5698857194869729, 0.564508483828422, 0.5591070292093736, 0.5537041244886264, 0.548310446798351, 0.5428820993141448, 0.537445628918699, 0.5319854017976862, 0.5265383483022226, 0.5210779299509943, 0.5156221540341842, 0.5101630534468982, 0.5046941422150499, 0.49923344036786343, 0.49377298800591346, 0.48831414645142374, 0.48285825090736245, 0.4774144572187397, 0.4719673706596845, 0.46650960243502726, 0.46108046522371515, 0.4556599232501221, 0.45023134641420653, 0.44483413738160676, 0.4394483341327259, 0.4340752974142018, 0.42871634462790625, 0.423383960194048, 0.4180555516310365, 0.4127466971832341, 0.4074560946347338, 0.4021805266731412, 0.3969329419824422, 0.39170772904092854, 0.3864947234196679, 0.3813187773257243, 0.37616987737651086, 0.37104432464561277, 0.36594580545387356, 0.3608753071938176, 0.3558337906657622, 0.3508109836931766, 0.34583162862378963, 0.3408833586582156, 0.335940229445793, 0.33106035683060475, 0.3262262686228128, 0.3214104390244466, 0.31662978808701625, 0.3118795673220182, 0.3071725120330631, 0.30249381497090055, 0.29786333960181605, 0.2932712446744941, 0.2887284157314934, 0.28421416113532993, 0.27972543609911055, 0.27529620424607515, 0.27090848451366656, 0.2665584691697862, 0.2622563266137356, 0.2580141648518256, 0.2537968350368094, 0.24962477807025846, 0.24548269318759222, 0.2414043170243536, 0.2373714493921591, 0.23338455347162773, 0.22944405925818537, 0.22554139910691173, 0.2216960063461186, 0.21791442804663497, 0.21416129920894353, 0.21045684674182352, 0.20676986740933495, 0.20316725190059567, 0.19961203615215703, 0.19610460156173856, 0.19264528175814538, 0.18922764103347406, 0.18586622494477553, 0.18257346141807046, 0.17930667634708217, 0.17608990689623522, 0.172922011627478, 0.16980533589193103, 0.16672841288856782, 0.1637126286235843, 0.1607459745576062, 0.15782843367154828, 0.15495996147609725, 0.15211471011624358, 0.1493473965989096, 0.14662741749383584, 0.14396156031574087, 0.14133554067580928, 0.1387572802425192, 0.13622665254382701, 0.13374349855881698, 0.1313210775442023, 0.12893057290417456, 0.1265652283574295, 0.12427232817887045, 0.12202497524809255, 0.11982182769663172, 0.11766501421466379, 0.11556525192832026, 0.11349602002489152, 0.11147156305902996, 0.10947573081380998, 0.10754141534452416, 0.1056585430162383, 0.10380767776144662, 0.10199902444701446, 0.10021415586816758, 0.09849069271819691, 0.09680466364864997, 0.09516044116803617, 0.09355494989109102, 0.09197318494755194, 0.09044566375534922, 0.08896587382720542, 0.08750958553823072, 0.08608961742136617, 0.08472558398519862, 0.08337400945526116, 0.08203349712807345, 0.080755701702228, 0.07951069523355025, 0.07829566813491007, 0.07711479761712042, 0.075964824634334, 0.07484514133220396, 0.0737551216990311, 0.0727008477068323, 0.07166736292741659, 0.07065522422183099, 0.06967799382454505, 0.06872697871879427, 0.06779364318327506, 0.06689396908980604, 0.06601124543119972, 0.06515911740118407, 0.06432896440680502, 0.06354145304934222, 0.06275065735183571, 0.06198558031675121, 0.061235842694688236, 0.060505908446050034, 0.05976801506059736, 0.05907850688234444, 0.05842154675275353, 0.05776077433914129, 0.057115441029204295, 0.05645899186878971, 0.05584546662860127, 0.05527163221189292, 0.0546773523546203, 0.05409518322683348, 0.0535130969116139, 0.05295411713006035, 0.052412039533175324, 0.05186948741183679, 0.051335043821089936, 0.05078441669402458, 0.050266905682899786, 0.04976290663390564, 0.049252814546057684, 0.04874667831475908, 0.04823377335699003, 0.0477349093770919, 0.04723527793655063, 0.04673908860950074, 0.04624312582104628, 0.0457770964697777, 0.04527609492254967, 0.04474620160895953, 0.0442485683207808, 0.04374795372994917, 0.04324047428445683, 0.042732754657004504, 0.04224158604701383, 0.04172118770755165, 0.041196238370623, 0.04065373510102148, 0.04011923984608653, 0.03958090399852458, 0.039031065309402604, 0.038473194464151955, 0.03788659373005145, 0.03731364778046576, 0.03672999983726956, 0.03613532351542484, 0.03552928458219562, 0.03492387122296129, 0.03429252473443409, 0.033662927135982124, 0.03300603533553239, 0.0323373221461769, 0.03163048497012553, 0.03093983872145194, 0.030236669863031407, 0.02951597202989409, 0.028780154184297926, 0.028026714958141307, 0.027260164342149614, 0.02648096211728311, 0.025681730624098648, 0.024866222087221074, 0.024052122927125504, 0.02320106657965662, 0.022332912459320963, 0.021449685185295393, 0.020549730045870927, 0.019623788589252296, 0.018690659176846224, 0.01776191119366753, 0.016789733858799824, 0.015800500528940924, 0.014786066121637412, 0.013762849078794718, 0.012693323518242582, 0.011636933785290196, 0.010560433137718643, 0.009470678990558314, 0.008353497394908104, 0.007205752184367993, 0.00605133606879891, 0.004877060545971473, 0.0036741194659969715, 0.002461732352835602, 0.001255223626355616, 0.0