0.027606186751600408, 0.02730328703935197, 0.027044739499278565, 0.02683043312059672, 0.026641605569614375, 0.026457470764899446, 0.02632341180833909, 0.026208218764224907, 0.02610587387966527, 0.026020535652731536, 0.02594181106573929, 0.025877955866426026, 0.025822106570900956, 0.025779455327317916, 0.025735991019654278, 0.025640962619947277, 0.025616283626714816, 0.02559364927941128, 0.025621609435302867, 0.02559806961814294, 0.0255556243116336, 0.025547306275068786, 0.02554390170117867, 0.025499237929127037, 0.025513026199595307, 0.025508863785487938, 0.025533971454590507, 0.025563495976518077, 0.02563734332188747, 0.025673818307725593, 0.025701148971211677, 0.025759564478522193, 0.02582753400312386, 0.02588084898059016, 0.02597305438339783, 0.026095548461200404, 0.02620611862591488, 0.026329390427603676, 0.026417664301348204, 0.026573926824464245, 0.026726075551760056, 0.02690799538081245, 0.027102045220291113, 0.027341690191887456, 0.027558226457618826, 0.027719410176270987, 0.027977696891193615, 0.02824882385956369, 0.028546115278489635, 0.028843914284220964, 0.0291078894352077, 0.029444402690021455, 0.02979510707422867, 0.03019506766026413, 0.030572303835966052, 0.030947744418737357, 0.03136472005312739, 0.031799641718927615, 0.032287176817661634, 0.03275499617159036, 0.033205064290564856, 0.03372012850245528, 0.03425430594006544, 0.03480645435799424, 0.03538026518455523, 0.03595559991151065, 0.036572491650870204, 0.0372092077810988, 0.03785377685616785, 0.03853308964243723, 0.03925617041380013, 0.03997390574491702, 0.04071433377551977, 0.041424822106680304, 0.042218035162864945, 0.04306745265117953, 0.0438976837879367, 0.04475163521962694, 0.04559692977991915, 0.04650328136201942, 0.047472773539931984, 0.048419962533824176, 0.04939315568890788, 0.050303856043783436, 0.0513406969127958, 0.05246589097533496, 0.053538139111741885, 0.054637324562033934, 0.055693672615097986, 0.05685618833649799, 0.05804232756078942, 0.059252862017035765, 0.06048849548653454, 0.061805851470003385, 0.06308647645638348, 0.06437533779327788, 0.06571877051057404, 0.06709108617145172, 0.06845054353153063, 0.06988665743936007, 0.07140753850442771, 0.07289139357717096, 0.0744067664557226, 0.07587901129509345, 0.07746685979454514, 0.0790696281936518, 0.08071440569787078, 0.08238705180208945, 0.08414882425288296, 0.08587130758761462, 0.0875753877730505, 0.08937012651939122, 0.09123522159151276, 0.09308507142483542, 0.09496781578624934, 0.09687253192238454, 0.09882233215102718, 0.10083230240444543, 0.10284297910154928, 0.10488750903642123, 0.10692993762607175, 0.10904614743942619, 0.11117036199018686, 0.11335232555684395, 0.11556457304870557, 0.1178198267542003, 0.12009186914948232, 0.12238316443929527, 0.12472021947108017, 0.1270883518294365, 0.1294705618850784, 0.13190329440958876, 0.13434925512618337, 0.13684496403003835, 0.13937029429004652, 0.14189900714544987, 0.14448745691628967, 0.14712313169139274, 0.14976660573252418, 0.1524401304858409, 0.1551732221489619, 0.15790298476045453, 0.16064714688358325, 0.16344170549890072, 0.16626605466505534, 0.16909351656893004, 0.1719800429764647, 0.17495007347628633, 0.17788448314645036, 0.18084934615277462, 0.18383005155689638, 0.1868557639019975, 0.18986270381939627, 0.19294962082989325, 0.19606089516680458, 0.19922132785012622, 0.20237788316955033, 0.2055598094633823, 0.20876669052804245, 0.21199809634286865, 0.21520226747506377, 0.2184878679205906, 0.22183884041409696, 0.22515922270004815, 0.22850221187948916, 0.23182838056122054, 0.23521983619533215, 0.23861604314494556, 0.24204649858156327, 0.2454943425612536, 0.24901065103163186, 0.25248601024904466, 0.2559543268647463, 0.25947101535348427, 0.26300402551933555, 0.2665154693183326, 0.27008412073490357, 0.2737165578247822, 0.27730333972271837, 0.28090477762844246, 0.2844889373961881, 0.2881211264012946, 0.29171554017749196, 0.2953741203948263, 0.29903926798861474, 0.30271697263899255, 0.30639370574373215, 0.3101044466970263, 0.31378919948299017, 0.3174805415108959, 0.3211636865353497, 0.32486759272787896, 0.328605998590643, 0.33231206216038267, 0.3360218312511543, 0.33965655359782326, 0.34338057496785795, 0.34711185773392317, 0.3508269129127243, 0.354538201825492, 0.3582653789721269, 0.3619648511744869, 0.365687867642251, 0.36937406166457226, 0.37305567446714766, 0.3767098400528333, 0.3803817742894121, 0.38404467112410273, 0.38769765932341055, 0.3913398596551251, 0.3949859361671753, 0.3986019296660176, 0.40219755640602, 0.4057883224249914, 0.4093640173552427, 0.4129050381652894, 0.4164501243716538, 0.4199436146264748, 0.42345416233089767, 0.42694234659947083, 0.4303920609267741, 0.4338357699633961, 0.4372855418951595, 0.440674688166417, 0.4440393840204852, 0.44734141274465344, 0.4506592315649091, 0.4540068890603582, 0.4572581186799467, 0.4604821464649499, 0.4636669242551448, 0.46683446400514195, 0.46990080837872045, 0.473013761455344, 0.47608958768971354, 0.47917141800956636, 0.48216619740455174, 0.4850969054746552, 0.4880221475396342, 0.4909079117774195, 0.49373641092470033, 0.4965433138411766, 0.4993449894714443, 0.5020614754602969, 0.504736273870204, 0.5073326615675047, 0.5099257504456929, 0.5125251906559284, 0.5150179328128331, 0.517465858291675, 0.5198305636403002, 0.522190366426006, 0.524487687450183, 0.5267483108853838, 0.5289568527886184, 0.5310769732988411, 0.5331841396534222, 0.5352494562829369, 0.5372428479925386, 0.5391805099071966, 0.5410743803733987, 0.5428974890101702, 0.5446406931164831, 0.5463529558607785, 0.5480060633329193, 0.5496400120655295, 0.5511683807015726, 0.5525809871824294, 0.5539993890281444, 0.5553547930375994, 0.556656273576145, 0.5578837112091625, 0.5591038223080437, 0.5601971785783177, 0.5612295917343911, 0.5622002237847608, 0.5631082962167221, 0.5639064356805038, 0.5646931730910117, 0.5654127215911361, 0.5660384485974578, 0.566626368910189, 0.5671279173786787, 0.5675794842512567, 0.567960836270332, 0.5683311794235049, 0.5685649442519539, 0.5687336238879676, 0.5688334758880971, 0.5688659467814365, 0.5688182331727207, 0.5687164671044583, 0.5685036700823916, 0.5682689795926226, 0.5679626266858813, 0.5676346162489462, 0.5671793611998698, 0.566655920305054, 0.566064097565138, 0.5654037405154515, 0.5646451928064576, 0.5638512105806979, 0.5630101476251727, 0.5620726460345566, 0.5610665381140661, 0.5599281364251495, 0.5587931160036753, 0.5576048742434362, 0.556324406507951, 0.5549744213381221, 0.5535242810381213, 0.5520405769803397, 0.5505600728359682, 0.5489280605618047, 0.5472316467817494, 0.5454102520953831, 0.5435929579416839, 0.5417393194637773, 0.5397839114161377, 0.5377704262425083, 0.5356860704977234, 0.5335386566503886, 0.5312648585311682, 0.5290007093296731, 0.5267630483103404, 0.524357809904774, 0.521894482500078, 0.5193157541354233, 0.5167442618794774, 0.5141325326065926, 0.5114384507033827, 0.5086867895416342, 0.5058595920335871, 0.5029972619428018, 0.5001157967812184, 0.4971367499317186, 0.4941051701351126, 0.49094703310215404, 0.4878217174722418, 0.4847007429639508, 0.48145978846835413, 0.4781700251768779, 0.47477780925489516, 0.4713996851845226, 0.4680281098992138, 0.46454534421413723, 0.4610188608015982, 0.4573810344203856, 0.4537781889009155, 0.45019558503910323, 0.44649578404124807, 0.442757422052216, 0.4389549050980915, 0.43514532270957157, 0.43129054625363733, 0.427408259621072, 0.42349042021895184, 0.4194978137354392, 0.4155176250180927, 0.4115576755041729, 0.40750376067255, 0.40342172958440653, 0.3992939338849506, 0.395161086800013, 0.3909726284044661, 0.38679260640894103, 0.382587300423288, 0.3783566106405286, 0.3741052686569702, 0.36984838374334517, 0.36555427539424196, 0.3612426960669294, 0.3569350790706469, 0.35258965290616273, 0.34823153677648394, 0.3438617798872795, 0.33948145033344207, 0.3350512024500537, 0.3306581103265873, 0.3262477010350706, 0.3218379589983651, 0.3174211108299234, 0.31306236931962067, 0.3086275846113216, 0.30419043652673433, 0.2997583932142417, 0.29532867045212563, 0.29086490067562737, 0.2864474248652657, 0.2820688796446783, 0.2776545373976407, 0.2732480002143297, 0.26884871455231757, 0.2644610070008355, 0.2600140976053394, 0.2556578474591428, 0.2513105744467279, 0.24702367760127417, 0.24269291597096973, 0.23840197289079165, 0.2341023051463226, 0.22982255165213733, 0.22551070606963025, 0.22128007937592767, 0.21708148845061676, 0.21288981743645657, 0.20872107249874705, 0.2045421974771757, 0.20042706811936686, 0.19633011202672676, 0.19226591054027917, 0.18822840489170475, 0.18422510826449937, 0.18024403052439913, 0.17627660590002384, 0.17236029256081184, 0.1684759072830201, 0.1647178969422585, 0.16088895368929865, 0.1570646911248229, 0.15332141197921748, 0.14961712098702928, 0.1459229040167115, 0.14230222189948055, 0.13879230115433538, 0.1352419052982722, 0.13173646283007998, 0.12823111001868473, 0.1248220138618949, 0.12140328301016247, 0.11808804456679341, 0.11481445447255403, 0.11165979216018092, 0.1084630392001186, 0.1053090220525253, 0.10221123005644521, 0.09916258568661193, 0.09610433763541747, 0.09316248162834229, 0.090279920524706, 0.08743101442875534, 0.0846312242719722, 0.08186714419371353, 0.07916907938916073, 0.0765551931117631, 0.07395331336042808, 0.07140441863812826, 0.06890870668741861, 0.06646636245696222, 0.06403090620511297, 0.061701694845227924, 0.059423701988039694, 0.05721608793574694, 0.055039609189013274, 0.052922930221062474, 0.05085299606470024, 0.04883730050244545, 0.04689611477470845, 0.04498648304166, 0.043150978292292745, 0.04134974083656077, 0.03960465498933381, 0.03790605319216117, 0.03627345060476728, 0.03467217260240251, 0.03315158501333286, 0.03168386406158577, 0.03031715607030605, 0.028948862717093574, 0.027556561793100513, 0.02630835453411704, 0.025109935835514068, 0.023958327803457073, 0.02286020841969747, 0.02184766723183325, 0.02084461858117865, 0.019893267622391336, 0.018983852824947477, 0.018135768265238304, 0.01737017541584824, 0.016617233629563896, 0.015915135748368257, 0.015202525437578737, 0.01460766309581154, 0.014109454645826464, 0.013598580350548364, 0.01313546827447164, 0.012678966182839098, 0.012314328435698635, 0.01201946014845738, 0.011737753565857316, 0.011500033972744406, 0.011269847608956128, 0.01112254974826853, 0.010987145918652835, 0.010922724327281072, 0.010895706062804048, 0.010924455141953957, 0.010968927479536983, 0.011092750246746772, 0.011206011153420204, 0.011357696266732477, 0.011565433947860783, 0.011788526657573852, 0.01202937651993611, 0.012326520518109257, 0.01265677699323888, 0.01300054622874188, 0.013396572866350489, 0.013848293039604482, 0.014298713252047568, 0.014778298405313278, 0.015287578987857823, 0.015822236009531226, 0.01642198280073141, 0.01700314832269898, 0.017610711722206674, 0.018258926353800647, 0.018913475594651497, 0.019580656044659705, 0.02028232038706773, 0.02106966355060619, 0.021802693807467795, 0.02255756439679398, 0.023337361235335106, 0.02413067459160586, 0.02486075040322881, 0.025698161588640734, 0.026545979635790123, 0.027448707938372258, 0.028309835640806736, 0.029261358319110906, 0.030133613039507234, 0.03101938896446856, 0.031890641788775397, 0.03280207735901487, 0.03376611380690374, 0.03468573649074937, 0.03561320145579133, 0.03654089732893712, 0.037480744073723385, 0.03844903615586148, 0.03939175535926575, 0.0403372691212198, 0.041304588388711046, 0.0422495925875245, 0.043216888297943616, 0.044159007664071465, 0.045100593727631394, 0.046051320617967344, 0.046986911661993695, 0.04793006803025468, 0.048856565501157134, 0.04977827005334601, 0.050733027934688125, 0.05163721190598033, 0.05253278733591249, 0.05342521459353132, 0.05430975333537043, 0.05526475482892882, 0.056120694718036115, 0.056972094112097686, 0.05781424945713464, 0.05864773581392207, 0.05954137396307661, 0.06034531883160332, 0.06109161674886774, 0.06188466618774263, 0.06266435885032953, 0.06348284058684324, 0.0642270341185504, 0.06499620111479741, 0.06571003571889572, 0.06641183500361116, 0.06710678060325954, 0.06778073363639806, 0.0684542471950108, 0.06909681672307948, 0.06972434772801359, 0.07039837453346451, 0.07098605882134694, 0.0715744680911791, 0.07213293641809577, 0.07267724145615755, 0.07322216899227568, 0.07373401071397886, 0.07426172614867614, 0.07473862708655904, 0.07520104367709378, 0.07564215382303174, 0.07607470015220012, 0.07646762382261295, 0.07687029324365866, 0.07725497319367533, 0.0776933036688847, 0.07803332833608075, 0.07836760173114336, 0.0786792395480087, 0.07897718846669227, 0.0792363508179831, 0.07950950839027411, 0.07981229277439049, 0.08004904417443384, 0.0802733686804529, 0.08046345046699731, 0.08066561854796858, 0.08086045702950855, 0.08103508940376956, 0.08119726001857659, 0.08134734253023465, 0.08148574864069814, 0.08168912143853299, 0.0817959122384128, 0.08189673597048804, 0.08194330929930627, 0.08203816276677434, 0.0821430654245249, 0.08221892277843489, 0.08228841476841083, 0.08237846488400823, 0.08243338910711652, 0.08248346140859314, 0.082532377998668, 0.0825787474350054, 0.08268994885163197, 0.08272435445055816, 0.08275386431167003, 0.08279511486701176, 0.08283911644535129, 0.08286912326332332, 0.08292194383681754, 0.0830229492435204, 0.08307694807441623, 0.08313800954487258, 0.0831832207444218, 0.08326267012696277, 0.08338354101054914, 0.08347389145711087, 0.08357501410989963, 0.08369527357345201, 0.0838187847199461, 0.08392278719094444, 0.08407740608002867, 0.08424475803205037, 0.0844725338956835, 0.08466257918331756, 0.08485245137828806, 0.0850825091953675, 0.08533141270237898, 0.08558142139973635, 0.08587315433007303, 0.08618394444915767, 0.08651821681127696, 0.08687524323274516, 0.0873261154811871, 0.08772313876745094, 0.08814083022685845, 0.08859955385002038, 0.08908886006039701, 0.08957369509110383, 0.0901308618213105, 0.09077171797630612, 0.0913849337122108, 0.0920341176684887, 0.09266393705768124, 0.0933941207796538, 0.09415919093217678, 0.09496035011785921, 0.09579877002675564, 0.09669736311721397, 0.09761094939197139, 0.09860057050112796, 0.09959436434371352, 0.10063366824716305, 0.10171752844140335, 0.10284988086205811, 0.10397511316959959, 0.10520964346693132, 0.10648980776744789, 0.10783541234703407, 0.10920787593607875, 0.11064276009655061, 0.11211447343484807, 0.11363856770241397, 0.11523908731543235, 0.11686714206986394, 0.11853080011822437, 0.12027354933148414, 0.12207199577581056, 0.12393148669999546, 0.12584276876031925, 0.1277622480045578, 0.12979633368706134, 0.13188676260678303, 0.1340624928758034, 0.13626490663673999, 0.13855282599837693, 0.14087390261107852, 0.14325809123617245, 0.14567926227190006, 0.14819393398348318, 0.15074782051170255, 0.1533910299945923, 0.15609645256847268, 0.1588413907129723, 0.16167601647824312, 0.16462613592755257, 0.16757997780342443, 0.1706006498780239, 0.17368513505402114, 0.17684012980985525, 0.1800324825372833, 0.18332510427403795, 0.18668312270183815, 0.1901317050186409, 0.19361818295939132, 0.19712863083745433, 0.20075558398861132, 0.20444748338707933, 0.20819059574789187, 0.21201488031405352, 0.21590237154129585, 0.2198565721098514, 0.22387577184383592, 0.2279849293230351, 0.23213115482087, 0.23633139049319785, 0.24061179539707306, 0.2449075763503287, 0.24932429990434576, 0.2538028350136195, 0.25840390508627153, 0.26299854155050684, 0.26757906803917003, 0.2723134761795064, 0.2771073236650642, 0.28196835559871614, 0.28687991829124615, 0.2918712178204853, 0.29689892343310664, 0.30198653291942856, 0.3071318608011617, 0.31233754760961707, 0.3175606233344692, 0.32288634112170833, 0.3282661356740381, 0.33373064755526644, 0.33921321254693304, 0.34469403158639317, 0.3502912377935843, 0.3559376969944939, 0.3616531163641147, 0.3673939208148189, 0.37311182251052827, 0.37895803532357764, 0.38484703242777557, 0.39077219132040963, 0.3967462268190719, 0.402782941566221, 0.40883538823393534, 0.4149285677702118, 0.42103348841974636, 0.42720861567082974, 0.43339797465094093, 0.4396469346412693, 0.44592875704355095, 0.45227210523322564, 0.45861319056351235, 0.46499058351479994, 0.47139302692703233, 0.477824670350568, 0.48423276553810607, 0.49072498011582233, 0.49727492399118695, 0.5038054672408727, 0.5103577616961527, 0.5168727797085673, 0.5234713574309237, 0.5300901463799612, 0.5367148374270744, 0.5433516317252034, 0.550013254911441, 0.5566686246995528, 0.5632691654475545, 0.5699489261341849, 0.5766309618593911, 0.583300218549497, 0.5899853143882173, 0.5967026932319829, 0.6033784371917481, 0.6100517578063274, 0.616696189184258, 0.6233630283292706, 0.6299978960268651, 0.6366489430845753, 0.6432870960178225, 0.6499016869021601, 0.6565111638177614, 0.6631450393618998, 0.669712626668157, 0.6762621243120314, 0.6827668223851573, 0.6892778057899228, 0.6957513979018113, 0.7022124473740249, 0.7086446228892902, 0.7149764156633277, 0.7213550716639752, 0.7277180369942835, 0.7340179923622039, 0.7402795750031466, 0.7464781046912503, 0.7526617852293501, 0.7587938257195995, 0.7648894849371412, 0.7709382453836584, 0.7769761261074919, 0.7829224225319388, 0.7887685722701392, 0.7946219853141803, 0.8004202796359581, 0.8061917295868516, 0.8118722012751167, 0.8174952975572786, 0.8230594205202375, 0.8285629830283093, 0.8339764199636467, 0.8393576911983338, 0.844672151589188, 0.8499184985105996, 0.855095419694738, 0.8602047071415815, 0.8652384271626313, 0.8701787227608502, 0.8750672401513571, 0.879878742392406, 0.8845809719494052, 0.8892388988413912, 0.8938363487310431, 0.8983261121998415, 0.9027329908579417, 0.9070200793095703, 0.9112622970658372, 0.9154473240240186, 0.9195081995065842, 0.9234808525396564, 0.9273237363950003, 0.9311217282670995, 0.9348461564423759, 0.9384533064692008, 0.9419663404020738, 0.9453345797347923, 0.9486629343086712, 0.9519352118242137, 0.9550583556030855, 0.9580833562000364, 0.9609922363663703, 0.9638205242799612, 0.9665565046818556, 0.9691796867082357, 0.9717004661334075, 0.9740777149773195, 0.9763967368181931, 0.9786013028227458, 0.98070765871758, 0.982706312047169, 0.98461257231262, 0.9863931230959717, 0.988044329352609, 0.9896121059516991, 0.9910703489549826, 0.992395570255502, 0.9936372089381744, 0.994783075766379, 0.9958001443334287, 0.9967068327144575, 0.9975279189947595, 0.9982104077395867, 0.9987680992413123, 0.999233807171434, 0.9995889351390724, 0.9998489966466056, 0.9999809175398834, 1.0, 0.9999127867893066, 0.999715577040203, 0.9993990891746952, 0.9989832545247783, 0.9984525078268444, 0.9978170189223372, 0.9970715524643142, 0.9962351196981043, 0.9952684189706278, 0.9941239474836777, 0.9929507909328577, 0.991666530723006, 0.9902798830748561, 0.9887752304329553, 0.98723108501173, 0.9855027722904405, 0.983672021941028, 0.9816442457111861, 0.9796214920444967, 0.9775059917711942, 0.9752692213484324, 0.9729289342249083, 0.970497079003108, 0.9679515644497466, 0.9653109793827209, 0.9625663666821966, 0.9597242189439036, 0.9567528333203017, 0.9537226233192198, 0.950628621856063, 0.9474026675783743, 0.9440846465339299, 0.9406537880734732, 0.9371574147065622, 0.9335226334299962, 0.9298532123755296, 0.9260934123431525, 0.9222713313256627, 0.9183323794478716, 0.9142845285703662, 0.9101820363442933, 0.9059968346191488, 0.9017724693838692, 0.8974212030003065, 0.8929848851158388, 0.8884845372964048, 0.8839072322961348, 0.8792609082541604, 0.874543234957141, 0.8697120664638062, 0.8648614033562391, 0.8599334127285164, 0.8549464278108634, 0.8498930279878261, 0.8448496693277979, 0.8396594197633562, 0.8343407820609615, 0.8290470107902392, 0.8236947216753224, 0.8182981897711666, 0.8128327748418561, 0.8073258680089105, 0.8017560011515196, 0.7961377241391439, 0.7904617413970038, 0.7847528005564205, 0.779036961669829, 0.7732365740459334, 0.7673974803045696, 0.7614526670900714, 0.7555490730839621, 0.7496616903275827, 0.7436768435840153, 0.7376609125412849, 0.7316045550650068, 0.7255324816440681, 0.7193743107230967, 0.7132573817106861, 0.7071135045323746, 0.7009712806992598, 0.6947766051737674, 0.6885239196039015, 0.6822976860639658, 0.6760537088341821, 0.6698422667842746, 0.6635628712599118, 0.657296267670421, 0.6509976980439889, 0.6446944490659854, 0.6383396865878113, 0.6320373147751941, 0.6257597368655764, 0.6194492580006142, 0.6131407718162245, 0.6067876100781041, 0.6004938166284044, 0.5942085847255396, 0.5879239128946369, 0.5816471837099614, 0.5754128320578998, 0.5691531557705194, 0.5629038064471511, 0.5566761047151091, 0.5504659326124939, 0.5442685030937645, 0.5380984667527691, 0.5319483267342702, 0.5258228426964973, 0.519721610842286, 0.5136025197662925, 0.5075595659324967, 0.501520878479413, 0.4955344696501665, 0.4895762492405182, 0.48365731694817754, 0.47775952407269834, 0.47189707784108753, 0.46606814759458737, 0.46027599443641753, 0.45457173857999644, 0.44885087964114107, 0.44311910674755367, 0.43749298233937806, 0.4319089833715644, 0.42634973316740116, 0.42085614558393253, 0.4154415507043174, 0.4100344930723694, 0.4046766589896425, 0.39934406550325247, 0.39409049688403514, 0.38886872705563436, 0.3837194723219984, 0.37862165591956687, 0.37360747493026564, 0.36861183183097407, 0.3636631539649617, 0.35878195702117366, 0.35395786346397357, 0.34921179969527905, 0.34450146030932155, 0.33986073385002846, 0.335270241754644, 0.33074147118748476, 0.32623436047437276, 0.32183525058380463, 0.3174873626096424, 0.31321121826581255, 0.3089964169006313, 0.3048420645795104, 0.3007520749196771, 0.29670494897306104, 0.2927441922569448, 0.2888463690223586, 0.28505094144528303, 0.2812757646385728, 0.2775610530220087, 0.27392012558311546, 0.27034570406311115, 0.26685811566012835, 0.26341446283940567, 0.25999206719905493, 0.2566900104162223, 0.2534530035212647, 0.250324836110546, 0.24721311681975178, 0.24410727934222706, 0.24113933830417447, 0.2382354824477365, 0.23542238856944006, 0.23264401646534685, 0.22990685694781562, 0.22726365453118952, 0.22468479467367503, 0.22218269707162103, 0.2197308351035633, 0.21738267334882178, 0.2150552760250527, 0.2127943161448947, 0.21053073008151102, 0.20840937942927348, 0.206359612087541, 0.2043582110478553, 0.20241791277843862, 0.20058508382889667, 0.1987601937440211, 0.19695760628239412, 0.19526250704222603, 0.19362630498103364, 0.19203766718754528, 0.19051925688636018, 0.18908567499835516, 0.1876769398626523, 0.18632564981646058, 0.1849797236313095, 0.1837475088153902, 0.1826017508969188, 0.1814693261758619, 0.18039025432483694, 0.17934977365357754, 0.17837686144165327, 0.17742773334922743, 0.17655790176443548, 0.17573537556213276, 0.17496583139771468, 0.17423544818857536, 0.1735742661808239, 0.17293195184458265, 0.1723353230567692, 0.1718067223314775, 0.17129556288689055, 0.17077245716586323, 0.17035526443755114, 0.1699766224016844, 0.16969648377400762, 0.1693851547978154, 0.16908403826345667, 0.16885467162889767, 0.16866085707979053, 0.1685171521225775, 0.16838949316404178, 0.16826416830944782, 0.16820618245109475, 0.16817764120066422, 0.16821656583795588, 0.16823941454607333, 0.168249281290843, 0.16833422453336722, 0.16844339598123087, 0.1686023934051019, 0.16875414416555495, 0.16890104122891175, 0.16910149756685952, 0.16932131717824211, 0.16956741583368723, 0.16982238347034734, 0.17006186726066874, 0.1703543401802804, 0.17066021436229112, 0.1709787793645744, 0.17130929088794086, 0.1716976259667161, 0.17204378467618606, 0.1724021129191683, 0.1727325195949612, 0.17311648710846556, 0.173564423291205, 0.1739531657701612, 0.17430327570168572, 0.17471265307126885, 0.1751248795506634, 0.17556711594170898, 0.17597900872744726, 0.17638815812990594, 0.17680342369397134, 0.17721825719471526, 0.17765968291399167, 0.17806723620700385, 0.17844354868523596, 0.17885031947006902, 0.17925152921310325, 0.1795872887200902, 0.1799824656724832, 0.1803804024313714, 0.18075105189602295, 0.18111063070639616, 0.1814928628589759, 0.18182449365868758, 0.18209258299416706, 0.1824087436553579, 0.18270966130754804, 0.18302920314138987, 0.18329424838393663, 0.183602390143115, 0.1838305863394635, 0.18404619942854833, 0.18421700681795009, 0.18440809579067866, 0.18453195099665404, 0.18469372538622839, 0.18483394255408644, 0.18493062939671462, 0.18502985445691583, 0.18511029458714084, 0.1851619464119835, 0.1851902099846824, 0.1852275586196063, 0.1852043510113415, 0.18519475437878566, 0.18512222588192426, 0.1850285962673978, 0.18488048275773794, 0.18474665859280087, 0.18458789590005054, 0.18440389945858995, 0.18419439122152972, 0.1839435601870352, 0.18368422996204764, 0.18345221207502138, 0.18313169037245405, 0.18278694721996308, 0.18235060328624933, 0.18196439255620925, 0.18157372470520575, 0.18112588497890517, 0.18065047011997765, 0.18015521473311266, 0.1796235581224396, 0.17904757582886388, 0.17846357903885957, 0.177851299325944, 0.1771719793519007, 0.17650840817240754, 0.17588005120180214, 0.17514847350444357, 0.17439132349494155, 0.17361779343066133, 0.1728079478537037, 0.17189656827017288, 0.17104558895577227, 0.1701648545404641, 0.16929540141540964, 0.1683518244467169, 0.16741357252899744, 0.16641469606951853, 0.1653921743665366, 0.1643288698710409, 0.1632611714388911, 0.1621098193703009, 0.16100070550448659, 0.15986421006381213, 0.15873063265339046, 0.15753786055545888, 0.1563992641672766, 0.15514992139693168, 0.15388219348340254, 0.1525616646614394, 0.15126095950004226, 0.14993957526036814, 0.14859780970265507, 0.1472359898994295, 0.14579071363005577, 0.14439793360381134, 0.14300909156032363, 0.14156890930880706, 0.14010953965850625, 0.1385958561061554, 0.13710454249725154, 0.13567478811906977, 0.13413554974328734, 0.13258331446521476, 0.13097627376234713, 0.12940393376615847, 0.12785578971587366, 0.12624982290640083, 0.12463264969694612, 0.12294706074823528, 0.12131576515272861, 0.11973798337993528, 0.11807241390055495, 0.11639898487145146, 0.11470710054386608, 0.11302023877281811, 0.11129479520146406, 0.10959739339441829, 0.10789176450039874, 0.1061615799140867, 0.10444397407407473, 0.10277078141786895, 0.1010337522030406, 0.09929441199262237, 0.09752983739098033, 0.0957900573455983, 0.09407748635005846, 0.09232995890275804, 0.09058307138106428, 0.08878281262170216, 0.08704535606701042, 0.0853518970961611, 0.08360746021229423, 0.08186625459770358, 0.08008833289884147, 0.0783601651508116, 0.07671064361067942, 0.07497858307076458, 0.07325490015304766, 0.07149466628354659, 0.0697939906781845, 0.06813556886976346, 0.06644400602619889, 0.06476224439919176, 0.06312173298284084, 0.06145671114336938, 0.059785691012844505, 0.058148515099988696, 0.0565233251107853, 0.05494317617083103, 0.05333904456124305, 0.051707992283998035, 0.05013947910465135, 0.04858407508569132, 0.047107685867155656, 0.045572014598478615, 0.04409996439106017, 0.04259567816608628, 0.04111257485257944, 0.039617773798406516, 0.03818057624683019, 0.03679962280243938, 0.03539581980027219, 0.03401359403661257, 0.03265451513545651, 0.03131534596476414, 0.03008823469728315, 0.02878154037368967, 0.02750210366161542, 0.026252524809533672, 0.02502579716022255, 0.023811313090430563, 0.022638608404064724, 0.021490991319438567, 0.020402715815055743, 0.019301127125413684, 0.01824081047339663, 0.017191899594032545, 0.01617090176920895, 0.015229032186181773, 0.014257130383359918, 0.013365654007934255, 0.012448434223707755, 0.011564050500966953, 0.010719690274893225, 0.009898349978133542, 0.009102637336108, 0.008345440426374888, 0.007619151595040027, 0.00699517574499526, 0.006321338231574526, 0.005671327042835869, 0.005067739717188009, 0.004497261607313259, 0.003975182017500069, 0.003468243996656117, 0.0030258082354634314, 0.002581539305720128, 0.002172073442393807, 0.0018017347502649573, 0.0014603364690168128, 0.0012278345101716349, 0.0009453239275977965, 0.0007009403867205342, 0.0004768905614105309, 0.00030897165338650105, 0.0001780325292194964, 8.051179790642267e-05, 2.893659570642153e-05, 0.0, 6.45758289167054e-06, 5.591659207129276e-05, 0.00013171682469978214, 0.00033315261766812056, 0.0004683111379079606, 0.0006437558189058775, 0.0008182635625634322, 0.0010771272091350678, 0.0014497043086549955, 0.001770490651287925, 0.0021312977948108216, 0.0025049612764088945, 0.00294706836462807, 0.0034460371861969995, 0.003958637291400732, 0.004508574254755435, 0.0050830818407932, 0.005708338709339408, 0.006383398164560891, 0.007078407196851114, 0.007809842790420138, 0.0085977503967429, 0.009398999604934071, 0.010224934480721122, 0.011101742471188114, 0.012014481075781892, 0.013029915436966565, 0.014005770424862556, 0.015044367623226165, 0.016095500492540608, 0.017186219476744077, 0.018267662502658266, 0.01944176083244383, 0.020703874650287613, 0.02194152299448543, 0.02321718275350953, 0.024494622469916384, 0.025849486369327202, 0.027305986117122868, 0.02872190624520323, 0.030176294673997277, 0.031696580536311185, 0.03322274926777152, 0.034747035745474296, 0.03635480652079731, 0.03799771706805444, 0.039739382155921044, 0.04144410492538458, 0.04315451784219847, 0.04493945426271472, 0.04675976434986049, 0.04864012463515936, 0.05052745046694867, 0.05239969317280774, 0.05436563704798528, 0.05636430280308214, 0.05845338017085942, 0.060510656207567785, 0.06256385568005025, 0.0646985878727626, 0.06686671731796355, 0.06911648747384389, 0.0713454205159672, 0.0735623378996682, 0.07586937214489312, 0.07820918250631294, 0.08060518335257626, 0.08300784711157397, 0.08544481491327285, 0.08791594246784828, 0.09042109554677323, 0.09295392852416139, 0.09552755015160512, 0.09814537852781308, 0.10078421103949024, 0.10345686282311053, 0.1062331641697377, 0.10896417802620927, 0.11165322094788908, 0.11446825035993705, 0.11731487450670111, 0.12020874265227292, 0.12311686941429338, 0.12603282856132533, 0.1290094519419086, 0.13201724337180576, 0.13510142634969688, 0.1381662108062535, 0.14121680100383932, 0.14435540308287395, 0.14752473635211905, 0.1507233827848905, 0.1539547592612515, 0.15726531870763458, 0.16055263041718426, 0.16387375563010778, 0.16722834228237735, 0.1706160688350134, 0.17404286144308523, 0.17749522425809927, 0.1809802661205028, 0.18445261416020384, 0.1880079088878085, 0.19159569973722698, 0.19520952242269243, 0.19885317528247312, 0.20256093835491495, 0.2062601132247197, 0.20998652035561338, 0.21374981665806028, 0.21754424025615882, 0.22138670488080528, 0.22524065498514165, 0.22905305819271238, 0.23297902368193976, 0.23693184025614059, 0.24095070892175183, 0.24495323250103154, 0.24900581855989198, 0.25306534101695893, 0.2571555633774655, 0.2612466319182324, 0.2654010822235535, 0.26956348285844905, 0.2737767942294555, 0.27801706545292376, 0.282284396689223, 0.2865788516854613, 0.29089890571147414, 0.29524786501977485, 0.2996238620282063, 0.3040019740378619, 0.3084350401372867, 0.31295730275757594, 0.31743327541368893, 0.32193839652422906, 0.32639595927995196, 0.33096750703592254, 0.3355640273762705, 0.34018238607286627, 0.3448245364679119, 0.3495309583967546, 0.354215680577023, 0.3588860437524364, 0.36362761736587507, 0.36839219009232227, 0.37316725093687414, 0.37797914517655634, 0.38278347335684115, 0.3876429882149931, 0.3925226346766984, 0.39748314292885595, 0.40239557250387104, 0.4072787318765141, 0.4122444695204938, 0.4172296960091537, 0.42222961572816553, 0.4272539748017879, 0.43225350196122864, 0.43732057165538585, 0.44240344364951967, 0.4475084026683825, 0.4526222113276502, 0.4577692516493906, 0.4629129592239553, 0.4680733212251407, 0.4732436938320166, 0.4784368560500675, 0.4835936665012637, 0.4888228057455503, 0.49406312499163657, 0.49933320992905167, 0.5045932338698047, 0.5098743823255723, 0.5151563945816103, 0.5204498487147183, 0.5256919813979716, 0.5310144781510102, 0.5363260773910928, 0.5416630364189879, 0.5470049337041795, 0.552342312978068, 0.5576948076112035, 0.5630650997556007, 0.568423158765156, 0.573785195557582, 0.5791102653561828, 0.5844837857065143, 0.5898511305625929, 0.5952252232720825, 0.6005983336452607, 0.6060120589604864, 0.611376666585675, 0.616675986242079, 0.6220479996200684, 0.627414568899147, 0.6327815320034836, 0.6381352116606189, 0.6435026669271685, 0.6488402938060553, 0.654148012272297, 0.6594745608018545, 0.6647914794785632, 0.6700514158594485, 0.6753528341831349, 0.680684895821281, 0.6859512874509239, 0.6912048469595276, 0.6964011164475837, 0.7016317535395411, 0.706780571992423, 0.7119825456411325, 0.7171616269997457, 0.7223736112238658, 0.7274991667896755, 0.732593223954382, 0.7376780093755967, 0.7427397107163766, 0.7477463577602197, 0.7527631888760442, 0.7577322926906579, 0.7626959688106726, 0.767629576158363, 0.7725496048946683, 0.7774190086860161, 0.7822230807875205, 0.7870336610958546, 0.7918093634219634, 0.7964966417428359, 0.801207196955516, 0.8059088351030342, 0.8105350363655975, 0.8151221053120963, 0.8197283317389158, 0.824227222850804, 0.8286178094765984, 0.8330475176019093, 0.8374322565137701, 0.8418101581789648, 0.8460977735002481, 0.8503184896055427, 0.8545174436226048, 0.858667748804575, 0.8627529024093449, 0.8668050116019846, 0.8708093876194885, 0.8747552675788336, 0.8786473084865749, 0.8824426133633485, 0.8862295448919542, 0.8899886309487254, 0.893653151018407, 0.8972592540036479, 0.9007609277175512, 0.9042531488336996, 0.9076863378442238, 0.9110500236980199, 0.9143491311381383, 0.9175938806204188, 0.9207604352869309, 0.9238873920746815, 0.9269177221169331, 0.9298818694112961, 0.9327321529297813, 0.9355667712936587, 0.9383280278667545, 0.9410186571270182, 0.9436362277584892, 0.9461521529891754, 0.9486253425407569, 0.951017409476321, 0.9533378697631907, 0.9555807698738313, 0.9577690087367751, 0.9598525327309839, 0.9618584503063343, 0.9637860814544045, 0.9656347564302182, 0.9674318079888911, 0.9691170715635569, 0.9706670368527033, 0.9721999054151527, 0.9736486820777831, 0.9750052903112959, 0.9762859474661785, 0.9775013475898789, 0.9786082324580464, 0.9796302250210616, 0.9805233310715478, 0.9813796999160158, 0.9821536410960292, 0.9828318747442365, 0.983421678699175, 0.9839042451320572, 0.9843190979274384, 0.9846999899275661, 0.9849278678334455, 0.9850689027397178, 0.9850946118086704, 0.9850640705811989, 0.9849406697989012, 0.9847308935438822, 0.9844309498119704, 0.9840283256349125, 0.9835494162970139, 0.9829685830520123, 0.9823090476357871, 0.9815580185283383, 0.9807265574962063, 0.9797916936929701, 0.9787369320420355, 0.977625194832227, 0.9764216560410216, 0.9751204654701726, 0.9737352103128438, 0.9722853252617941, 0.9707149994152589, 0.9690558917455742, 0.9673361760213226, 0.9654965430950617, 0.9635174615189201, 0.9615114006817401, 0.9594159359041176, 0.9572798501897745, 0.955001212017232, 0.9525971737769575, 0.9501539022521854, 0.947623832924064, 0.9450106996862133, 0.9423085218094429, 0.9395387255966929, 0.936665567740879, 0.9337099229789435, 0.9306769829999972, 0.9275573896580717, 0.9243463706786538, 0.9210676648639269, 0.9177090289426248, 0.9142603300639099, 0.9107454909384737, 0.9071477734435305, 0.9034780077327859, 0.899731599359476, 0.8958690902333738, 0.8919774356393915, 0.8880378059697933, 0.8839920086338878, 0.8798744433034688, 0.8756472845451508, 0.8713942579222616, 0.8671031142037506, 0.8627058040989428, 0.8582423084236418, 0.8537261457377077, 0.8491319548790673, 0.8444475633727556, 0.8397335131162452, 0.8349577529549483, 0.8301138087332031, 0.8252195126596255, 0.8203027343873353, 0.8152887826998638, 0.8102213101758695, 0.8050298523839056, 0.7998676178397464, 0.7946573701065098, 0.7893876214122322, 0.7840674236503115, 0.7787232661698454, 0.7733038246306316, 0.767816756142236, 0.762313001577399, 0.7567663264762451, 0.7511922718072873, 0.7455626090386506, 0.739931174101397, 0.7342233114764085, 0.7284827208619449, 0.7226592101303352, 0.7168630661208378, 0.7110208148181804, 0.7051638700936177, 0.6992773170204646, 0.6933520018357809, 0.6874127742969922, 0.681484205374929, 0.6754919840780599, 0.6694801172060348, 0.6634360060828354, 0.6573908183551123, 0.6513200911596674, 0.6452452037600522, 0.6391566561244321, 0.6330995924413271, 0.626983015038426, 0.6208351096148168, 0.614709997833658, 0.6085795043570278, 0.6024373303245039, 0.5963014862920758, 0.59011449389308, 0.58398370579767, 0.5778518063379516, 0.571765811846262, 0.5656316903060901, 0.5595247934888449, 0.5534035304596819, 0.5472325561910266, 0.5411420624226336, 0.5350615804348444, 0.5289897515379057, 0.5229348922162547, 0.5169385239089735, 0.5109097014650481, 0.5049015146196445, 0.4989385001171521, 0.4929722762808906, 0.4869818895803119, 0.48107419328041434, 0.4751914063617301, 0.4693101332995467, 0.46348473324587247, 0.45769808974183873, 0.4519286469227079, 0.4461908142917301, 0.44053264209663395, 0.43485629304671547, 0.42918094243506444, 0.42358687115083665, 0.4180308807028243, 0.4125173282065475, 0.407040818625159, 0.40157822949206307, 0.39619021881557437, 0.39084480003118155, 0.3855666138518486, 0.380307323918563, 0.3750413029716532, 0.3698852660773865, 0.36477581166650025, 0.35972209181875303, 0.35470887451574035, 0.34976213557365987, 0.34484991083974165, 0.33999163832050944, 0.33519130126356333, 0.3304431271654487, 0.3257376081129371, 0.32110525832284537, 0.31653025511156146, 0.3120289627209394, 0.3075690885674007, 0.30317753311824813, 0.29883833758495854, 0.2945612514508555, 0.2903311967544642, 0.28618169997224946, 0.2820808225392189, 0.2780588805409042, 0.2740998482990874, 0.27018567160956486, 0.2663565924083066, 0.26260039310690186, 0.25889786192311764, 0.2552606026313358, 0.25165328988607655, 0.24815237490643524, 0.2447392446951979, 0.24136490377514588, 0.23805746702501573, 0.23480787914404075, 0.2316362139947353, 0.22852696743898104, 0.22549029122820077, 0.2225208547585999, 0.21961883834705076, 0.21678437638786052, 0.21400822947422068, 0.2113102869580389, 0.20867952505574677, 0.2061206557876408, 0.2036237605926738, 0.201203644857314, 0.1988403486621572, 0.1965447515448502, 0.19428704617746917, 0.19212977546050003, 0.19002525365894662, 0.18799984369302739, 0.18603869250760902, 0.18422412705562444, 0.18238074628483775, 0.18052806048644574, 0.17883049024463643, 0.1771952115483382, 0.17569042275061464, 0.17417035514319723, 0.17264873126510769, 0.17126681929824364, 0.1699446522113303, 0.16867411991706024, 0.1674713716701258, 0.166336112819123, 0.1652480922808335, 0.1642178842047783, 0.16325579438989168, 0.1623380639122721, 0.16145204158366494, 0.1606498744337118, 0.15990136317686793, 0.1591950295518703, 0.15855338644366546, 0.15798466005070017, 0.15744193724382374, 0.1569502995452498, 0.1564902079155277, 0.15610044822942953, 0.15580314035875772, 0.15550161759510345, 0.15524840364471434, 0.1550578521990663, 0.15489571790015097, 0.15478389229460152, 0.15471118151053423, 0.15468185601326145, 0.15468688123613555, 0.15474155728535985, 0.15484636457753329, 0.15497702893146162, 0.15514530536539806, 0.1553033464624652, 0.15554917391837278, 0.15584822755859296, 0.1561534392432169, 0.15648974435563998, 0.1568172507209058, 0.15721760133109175, 0.1576873331180919, 0.15813313400252277, 0.1586057238387126, 0.15910238743924118, 0.15962527840461477, 0.1601885167341637, 0.16075460133623712, 0.1613426371390445, 0.16187672622407592, 0.16251435383437626, 0.16317225610114153, 0.16383660801205902, 0.16451410889587037, 0.16518378498607664, 0.16588782450323267, 0.166617037628112, 0.16733765452498264, 0.1680673138293078, 0.16885019424440306, 0.16958946406448594, 0.17031572594941574, 0.17107394111179247, 0.1718370659299076, 0.1725837928944014, 0.17335602508505246, 0.17415832751021065, 0.17492697083011044, 0.17569598222269928, 0.17646264971078754, 0.17722914761277023, 0.1780018587507231, 0.17875987040258037, 0.179513164611554, 0.1802653008814091, 0.18100528344875033, 0.18168937593062615, 0.18241902808570662, 0.1831362071958884, 0.18387295971749695, 0.1845592165849037, 0.18524228044104593, 0.18590139133924635, 0.18654668596023385, 0.18713989438787834, 0.18775945931848953, 0.18839923538975215, 0.18897599787225294, 0.18953515317558567, 0.19004160559695213, 0.19056725225593724, 0.19108792628686294, 0.1915667455970128, 0.19202342677129244, 0.19245887523069677, 0.19286915318410014, 0.19326015228154078, 0.193621346618863, 0.19395766783982363, 0.19422963827758866, 0.19451934833878612, 0.1948051539626211, 0.19503393364417704, 0.19523488082422905, 0.19537800952684595, 0.1955257230166353, 0.19563179021030294, 0.19571920644901855, 0.1957749363721298, 0.19585176739464755, 0.19583717281926738, 0.1957391378329283, 0.19567285049770067, 0.195602995701092, 0.1954667302019565, 0.1952989655409245, 0.19513674905608447, 0.194900471605393, 0.19456717635927237, 0.19427855021819707, 0.19395508067298378, 0.19363890935170672, 0.19324089902058136, 0.19276573809748646, 0.1923091097713341, 0.19181751288848492, 0.19133626960054054, 0.19076970240729554, 0.19017134901808241, 0.18954105179603298, 0.18887869625220133, 0.18822774988838814, 0.18749559153812975, 0.18663419184566812, 0.18585486647293764, 0.18503968982884506, 0.1842266186605984, 0.18333689508956977, 0.18238101589107972, 0.18143197680801357, 0.18044958691870344, 0.1794639484590982, 0.17841277346965828, 0.17733774600583457, 0.1762259149707116, 0.17508493239721581, 0.17389018441666085, 0.17269487048504295, 0.17149476597034044, 0.17023750547064984, 0.16895305128816718, 0.16766506830046904, 0.166324321696492, 0.16487947856719942, 0.16349940522293432, 0.16209058788322966, 0.16070529291842459, 0.15923531006126598, 0.1577095425869223, 0.1561978618904451, 0.1546621059244797, 0.1531823218272737, 0.15159059871570618, 0.14995189665025127, 0.14832911898184423, 0.14668747641038102, 0.14499787820124424, 0.1433236379944431, 0.14163344247709564, 0.13992145867594832, 0.1381921399594119, 0.13650376909431608, 0.13473474557437853, 0.1329585214140612, 0.13116546188682282, 0.1293614274460037, 0.1275483323320833, 0.1257232817290865, 0.12390101426437135, 0.12205556639093076, 0.1202021794624699, 0.1183335443184067, 0.11646670485631512, 0.11463966779127092, 0.11275388118439661, 0.11086518479986217, 0.10891480555800996, 0.10702877985734885, 0.10521231055593537, 0.10330764342290503, 0.1014039992165014, 0.09946439671584323, 0.09756859712532318, 0.09568536202002635, 0.09378904125187133, 0.09189515432850066, 0.0900526186708791, 0.08815965288924706, 0.08632998194710843, 0.08444492495489135, 0.08257109805736321, 0.08068052486997135, 0.07883283849636291, 0.077030904815314, 0.07519917358094394, 0.0733804838439487, 0.07161400288942137, 0.06981742080565793, 0.06803401488121763, 0.06627055036176398, 0.06452358316284712, 0.06280588416240844, 0.06109139021988636, 0.05947922649555665, 0.05779121923343269, 0.05612710746091534, 0.05446337177879553, 0.052849539084160464, 0.051244063550124334, 0.049677019499869565, 0.048132229355440474, 0.046649104111426344, 0.04514554049274457, 0.04368675845150898, 0.04223337005746325, 0.04080778683776911, 0.03950043990437755, 0.03811983770301624, 0.03678075683228976, 0.03546632444948158, 0.03418552019358393, 0.03291640586047136, 0.03170521106112855, 0.030583754154956722, 0.029429969179114564, 0.02831222387689818, 0.027228867656819575, 0.0261832011848125, 0.02523565868329697, 0.024254124717119192, 0.023312363815615904, 0.022374365692601157, 0.021516041100228415, 0.02073080651550747, 0.0199429185020429, 0.01919501277221865, 0.01849027677734332, 0.017822228852995017, 0.017208719672773914, 0.0166201799452447, 0.016073385233532092, 0.015601132140591865, 0.01513415771691068, 0.014748607221840982, 0.014365089379207396, 0.014027758823848878, 0.013742600203809305, 0.013496225371591314, 0.013337878589415472, 0.013178187541555985, 0.013066764334600902, 0.012987727942896064, 0.012973894500474037