0.03835788042468141, 0.0379932327687866, 0.03766298469316198, 0.037366208110805765, 0.03709598481714091, 0.036828301451469085, 0.03660244117259111, 0.03629336288000477, 0.036107908667659325, 0.03592777451537322, 0.03580630722668494, 0.03562757826774747, 0.035433107884245904, 0.03526907118031062, 0.03510875311137774, 0.034973975759987765, 0.03481763813007019, 0.03464774785705124, 0.034502597826059286, 0.03436079072453531, 0.03418839586532422, 0.034058237241178034, 0.033956348769675036, 0.033827837978425, 0.03370416633438, 0.033571660310857676, 0.03346059666655332, 0.033282487301393965, 0.0331915374479629, 0.033102789467115756, 0.03304141059068169, 0.03295716209897811, 0.03286137295740505, 0.03279310355628186, 0.03273158114539092, 0.03267750241867536, 0.032631506474032325, 0.032602209751806645, 0.032573073837993405, 0.032554088203688415, 0.032565716834644744, 0.03256562939741095, 0.03256987010422969, 0.03259566403082846, 0.03263366318920212, 0.03265597387594462, 0.032722566193009534, 0.03277028642290951, 0.03286358628764435, 0.0329672382182362, 0.03311797482881225, 0.033239494439453905, 0.03335092976369232, 0.033503664079481396, 0.03366936057178351, 0.03383029472040449, 0.03402520604138975, 0.0342350321559848, 0.0344559272195075, 0.034690654313640226, 0.034985730795349515, 0.03524328904843839, 0.03545599654814676, 0.0357561017336916, 0.036069948730976534, 0.03640402989541367, 0.03674597259649038, 0.037073188551600196, 0.03745003988657858, 0.037841224505476806, 0.03829746743800843, 0.03871253616029738, 0.0391080925478856, 0.03956526391024628, 0.04003897923625427, 0.040529600388783074, 0.04103746871237111, 0.04158298336575864, 0.04212376211606045, 0.042683839785719435, 0.04321515515810974, 0.043820294182246915, 0.04450264538996579, 0.045134673827011924, 0.04578809652828592, 0.04647894864938209, 0.04717308057446627, 0.04782526990197329, 0.0485720453861041, 0.04933739377837228, 0.05010174544765169, 0.05090826133349021, 0.05174568498232161, 0.052588973259871406, 0.053452894493465436, 0.054325787433807414, 0.05523362324451826, 0.056174535426191524, 0.057123316740560835, 0.058094585633263904, 0.05908658178010243, 0.06010380612754026, 0.06117020099681419, 0.06223049053151457, 0.06331574478499824, 0.06446609967205186, 0.06559617383428094, 0.06672936881215645, 0.06791661141984968, 0.06912916085215723, 0.07034692694326464, 0.07161260002475366, 0.07287033089063458, 0.07418860787323138, 0.07552961837876128, 0.0769580242791331, 0.07833759392891626, 0.0797707326554164, 0.08120172673881723, 0.08266125260244916, 0.08414091008851915, 0.08565745449895837, 0.0871930820245249, 0.08876469425466267, 0.09036264592304866, 0.09191259383804384, 0.09357243799683883, 0.09533258816519702, 0.0970271117565691, 0.09874908599543261, 0.10042603225529866, 0.10221144688834541, 0.10405582758978747, 0.10588275444090652, 0.10773532119229416, 0.10963160915380019, 0.11153319428581587, 0.11344937911148137, 0.11540559857426995, 0.11738743267279893, 0.1193687063390656, 0.1214048288425762, 0.1234949522614912, 0.12557514215374926, 0.12768107350349542, 0.12979647341490758, 0.13195528000818652, 0.13410817084632354, 0.13631909077382093, 0.13855231891289704, 0.1408099765724323, 0.143087860766802, 0.14546264825010535, 0.14777635241756298, 0.15011674566105507, 0.15243294100976787, 0.15483101043197767, 0.15724095093885537, 0.15968393297556538, 0.16214789256808762, 0.1646447443038827, 0.1671487163413476, 0.16965178673692252, 0.17220061103698345, 0.17476876107852346, 0.17735809900538466, 0.17996417896912412, 0.18262129048615522, 0.18526088103952823, 0.18792066464799614, 0.19053785587053199, 0.19324425530483563, 0.19598982984648658, 0.1987233332180669, 0.2014731814213236, 0.20428924755031178, 0.20706446912528848, 0.2098437877772065, 0.21265630760516263, 0.21548466452022125, 0.21834230872273433, 0.2211987668259718, 0.22401185774726567, 0.22690469830230706, 0.2298077775587797, 0.23275504833459973, 0.23567371989017907, 0.2385436677610126, 0.24149239532063618, 0.244448115007366, 0.2474769964821298, 0.2504380226780202, 0.25340332064367316, 0.2563849204283197, 0.25937494390294663, 0.2623486113535051, 0.2653564724582585, 0.26835130094293, 0.2713710500641091, 0.2743938680185343, 0.2773892850485157, 0.2804209468107081, 0.2834247163696666, 0.28646015412254844, 0.2894997846285768, 0.29253071531867414, 0.2955599090917295, 0.29867341762629457, 0.30168734637905226, 0.3046592379468854, 0.30768189694052234, 0.3107020278131764, 0.3137370312393692, 0.31674781413090514, 0.3196988548246511, 0.3227088601826, 0.32571054606577904, 0.32877383352187806, 0.33174892045469445, 0.33462612478362347, 0.33760079411012506, 0.34056273342384313, 0.3435699527713967, 0.34649838183680004, 0.34935029546891155, 0.35226573072215306, 0.3551655180516769, 0.3581176366548953, 0.36097660946614996, 0.3637464885640459, 0.3665885260998584, 0.3694115679859348, 0.3722313771722696, 0.37501345405355646, 0.3778306038384813, 0.3805670034004449, 0.3832861740957691, 0.38595295683111724, 0.3886389349184916, 0.39126866819341916, 0.39391408654621085, 0.396534185637075, 0.39914465434634605, 0.40171093473645075, 0.4042013937190772, 0.4067221641277921, 0.409213294788513, 0.4117147359483577, 0.41414085238523046, 0.4165388225440715, 0.4189079785510059, 0.4212476558782773, 0.42353711846295133, 0.4258184010044292, 0.42805707536175575, 0.43027400482272404, 0.43245682429785165, 0.4345850334151396, 0.436700879148374, 0.43886448092729424, 0.440896232265675, 0.4428955062726857, 0.4448271330567419, 0.446762707373072, 0.44864288186963264, 0.4505054860462456, 0.45232857782602076, 0.4541017049291052, 0.45584579535058756, 0.4575284848010633, 0.45919212595594533, 0.46081263216763185, 0.462369736624929, 0.4639059135567951, 0.46540521585388556, 0.46685047479429176, 0.4682510595936253, 0.4696147794460486, 0.4709243202857424, 0.47222305560359895, 0.47343808589883957, 0.474609444322867, 0.4757144491779932, 0.47679949884976636, 0.47783393869490676, 0.47882599375059, 0.47977061341857274, 0.48062537942575123, 0.48147968897898913, 0.48227139760093907, 0.483026223800304, 0.4837299953061574, 0.4843748231810109, 0.4849778894209847, 0.485563902438648, 0.48606040448232435, 0.4865078410635927, 0.4869140301743041, 0.48726169778667366, 0.48759027084844636, 0.48783548255771836, 0.4880327364283791, 0.4881494853223793, 0.4882536606955559, 0.48831498532364903, 0.4883163662480721, 0.4882672950055165, 0.4881235481248689, 0.4879790075877112, 0.4877633599523176, 0.48751538552325424, 0.4872140523013602, 0.4869240621089121, 0.4865092315724034, 0.48602183480702027, 0.4855129526086329, 0.4849539919583683, 0.484337052753903, 0.4836793555342855, 0.4830157299939719, 0.48225249717685403, 0.4814421329815925, 0.48049018037503455, 0.4795972338070518, 0.47871796255154503, 0.4777122950737969, 0.47665932993597643, 0.4755351526562463, 0.47439119446767025, 0.47319317270395506, 0.4719543416012354, 0.4706680257187611, 0.469318660508707, 0.4679408900525219, 0.46649412817856456, 0.4650259518666833, 0.4635108487684842, 0.46197166956238234, 0.46036219049596244, 0.4586690822695436, 0.45697823083195604, 0.45524266258042284, 0.45346521887839725, 0.45164242859025217, 0.44978546289003163, 0.4478779698023731, 0.44593014901060934, 0.4440148951592025, 0.4419791406742589, 0.4397905176378997, 0.4377009258177589, 0.4355703950918489, 0.43341409680406406, 0.43120320857404004, 0.4289774418421872, 0.42669068932720394, 0.42436989218136684, 0.42206185192863954, 0.4196690128899642, 0.4172486224791206, 0.4147966822202562, 0.41231588906415506, 0.40973231755104944, 0.4072043216340899, 0.40468264818421196, 0.40208726637408043, 0.3994643255854985, 0.3968205499072653, 0.3941438416910276, 0.39142397201539736, 0.3887000378734018, 0.3859513617440033, 0.38317276753143953, 0.380377902163063, 0.3775283562372599, 0.374693310988157, 0.37183564799249397, 0.3690066725099869, 0.36610073542229626, 0.3631461070881333, 0.3602116951930902, 0.35726013926928374, 0.3543365082876948, 0.3513477722589477, 0.34835105109586184, 0.34533831537598847, 0.3423148556619609, 0.3392330307112839, 0.3361958683606832, 0.333144983240592, 0.3300856567846639, 0.3270165015183065, 0.3239204281585016, 0.3208368125644047, 0.3178034407376971, 0.314697569939999, 0.31158907000185615, 0.3084142185303558, 0.30531017076916434, 0.3022497099142509, 0.299131489980933, 0.29601355363804077, 0.29284433995393255, 0.28973548886114836, 0.2866560425958483, 0.2835430475310508, 0.280433149795027, 0.27729497843253376, 0.2741975784613903, 0.27114585602958313, 0.26805114415237474, 0.2649220806493365, 0.2618488793794691, 0.2587822572244978, 0.25571510133535175, 0.25266536774619147, 0.2496725876016429, 0.2466351834068401, 0.24361097397948708, 0.24057227232454864, 0.2375792795629461, 0.23462530620467625, 0.2316555421496157, 0.22870151901310704, 0.22572151901900808, 0.22280564164222263, 0.21992054986092946, 0.21703289426796865, 0.21416243199616816, 0.21134589949915597, 0.2085070380687739, 0.20565903430184462, 0.20286618364424866, 0.20009315612672718, 0.19736659114347666, 0.194631517417831, 0.19188517974116592, 0.1892004369349141, 0.18653722692884464, 0.18391419851161614, 0.18129348411673626, 0.178670879338083, 0.17610223841112949, 0.17355704987821755, 0.17105995954309772, 0.16856026118021944, 0.16607288107348597, 0.16362796931920567, 0.16120917052751954, 0.1587847346082671, 0.1564233167145373, 0.15409529384018694, 0.15178416135820028, 0.14949993658179264, 0.14723700643372564, 0.14500855203569338, 0.1428599891763899, 0.1406806824837738, 0.1385326814470976, 0.13640782697717255, 0.13432308782991595, 0.1322186893393359, 0.13020134728692936, 0.12821170521997952, 0.1262762634976589, 0.12433987837497411, 0.1224819028347854, 0.12059993759645514, 0.11875100440808092, 0.1168986108734731, 0.11511927848835883, 0.11331176458729542, 0.11159989749624238, 0.1099148430099193, 0.1083393805621027, 0.10669887893615615, 0.10501271163334407, 0.10344697898897949, 0.10190872781387557, 0.10040226116896175, 0.0989192702456067, 0.09748676165702118, 0.09605786951759121, 0.09465875989534338, 0.09331536647257462, 0.09197201406357257, 0.09066539736156831, 0.0893822963491266, 0.08812943460737688, 0.08683611198793685, 0.08565132441410479, 0.0845016118633724, 0.08336580049777702, 0.08225587122413408, 0.08118986651041095, 0.0801292988069755, 0.0790914154861265, 0.07808447060223435, 0.07710341838829833, 0.07619415508872278, 0.07525819999254703, 0.07434984840398537, 0.07346840711023617, 0.0726132164020403, 0.07176156308078105, 0.07095980275116778, 0.07014911935934036, 0.06939743486073355, 0.0686663779231911, 0.06798593005734994, 0.06729188778748528, 0.06660962241526781, 0.06596000423875156, 0.06533069020910502, 0.0647574263491758, 0.06416297161367743, 0.06353343975705394, 0.06298765677325495, 0.062458471296588054, 0.06195973668545668, 0.06146133711354876, 0.06101977969314583, 0.06054928133138148, 0.060096909731980536, 0.05966392627736534, 0.05924534723664227, 0.05879066325603957, 0.05841019107757655, 0.05804155246321161, 0.057698590222565946, 0.057351179225509356, 0.05703373516875548, 0.05670742707384954, 0.056393202241244465, 0.05605033607557401, 0.055763645942904914, 0.055503165695976, 0.05523025336392683, 0.0549660229160533, 0.054689972165112725, 0.05444435725381119, 0.05423109587624099, 0.053994407288191514, 0.05376484646340753, 0.05357801072470547, 0.053356526649441384, 0.05315866428026093, 0.052949464772057024, 0.05274715747470353, 0.05254085220843669, 0.05235109450887022, 0.05219939179728785, 0.05201254521997999, 0.05183031873640268, 0.05162376460377897, 0.051451866863406574, 0.051314789856144946, 0.051139508869085706, 0.05096594855477934, 0.050721142707351376, 0.050558129962364765, 0.05042095591035507, 0.05024560521616525, 0.05006767274331229, 0.04992300445362884, 0.04973446956132995, 0.049544514465056914, 0.04935256393181916, 0.04915808139395657, 0.049042876720794853, 0.048831453459840045, 0.04863877997597214, 0.04842536510731497, 0.04821161388561233, 0.04802462427072462, 0.04780373007452154, 0.04756731289366873, 0.04734431594044555, 0.047117289209294325, 0.046905687928391365, 0.04666627609188212, 0.046418300450870816, 0.04616971930676443, 0.045915279392700084, 0.045700749460222775, 0.04542759380593031, 0.045244474839673844, 0.04495012760576048, 0.04465559956382308, 0.044309487955214985, 0.04401746989266306, 0.0437835376290823, 0.043470723225501176, 0.04315470814142285, 0.04286084915671704, 0.04253302874511709, 0.042261825634008064, 0.04191854654821495, 0.04157390424621518, 0.04123905268078023, 0.04088763803813044, 0.04057546033545741, 0.04021229253572605, 0.03984753355715879, 0.0394604205850915, 0.03909309545380163, 0.03876957552502662, 0.03838725375552332, 0.03800303589329347, 0.037650661517174756, 0.0372572787443325, 0.036899202752599905, 0.03649922450511173, 0.03612592090762065, 0.035723349663707465, 0.0353220536369793, 0.034893508533369776, 0.034497187577629956, 0.034095657726058264, 0.033697601625074465, 0.033298476068317005, 0.03296682901706516, 0.0325578476546186, 0.03214459049401201, 0.03174398734446335, 0.03134649186803352, 0.031052583459404114, 0.03064898172801432, 0.03025462103424748, 0.029868979233919846, 0.029491682410872265, 0.029146580550346905, 0.028782323843061085, 0.028447461555762717, 0.028099189613507977, 0.027761243216452333, 0.027433552158842515, 0.027116152293796478, 0.02681720419435047, 0.026519845983152438, 0.026233862314145744, 0.025961550126155475, 0.025698995531507913, 0.025473076609862418, 0.025233013313190774, 0.02500778905914075, 0.024851950132887348, 0.024650635129340383, 0.024466390721930742, 0.024303550703377502, 0.02415990051961796, 0.02403770771400673, 0.023933036079529596, 0.02383661138154527, 0.02377448529498746, 0.023732902827650164, 0.023768707913441458, 0.023763028233614796, 0.0237930591261077, 0.023837707214368297, 0.023909167534383328, 0.02398165018011961, 0.02411102767987954, 0.02432107647664708, 0.024497230593772595, 0.02470430670929081, 0.024904457988286617, 0.02517915973741292, 0.025453614440387344, 0.02579263909838011, 0.02616141176409951, 0.02665733251467209, 0.02707649919640622, 0.027475631609973357, 0.02797871506403029, 0.02851715826765232, 0.02913390957079698, 0.029740107970405386, 0.030322151690471113, 0.031017090627381512, 0.03174943327399198, 0.03258444953690221, 0.033386522533815036, 0.03417034422804319, 0.03506866067819255, 0.036008315858819584, 0.03705452164639438, 0.038071602235539244, 0.03908422784504558, 0.04020373937323406, 0.04136879055666345, 0.04258422411247134, 0.043842301632377435, 0.045148544150298744, 0.046503666751326604, 0.04790836409952974, 0.049397439966978936, 0.050898977347280855, 0.0524459426111785, 0.05405575668876792, 0.05571928463935896, 0.057374730773100686, 0.059154875506257816, 0.06103273900471503, 0.06291107609653257, 0.064845367792251, 0.06682602241405586, 0.06887482161468421, 0.07097429882007597, 0.07313775753328254, 0.07535855076239042, 0.07763115858303697, 0.07996886430797799, 0.08233488272451753, 0.08479372293695503, 0.08731021775458438, 0.08989907729212164, 0.09253101777302204, 0.0952372560444125, 0.0979882911485913, 0.10080109065186361, 0.10367786684962252, 0.1066145396221666, 0.1096076332819055, 0.1126700956401374, 0.11579493118297018, 0.11895218685217741, 0.12220603721125364, 0.12552099000255273, 0.12889738562625389, 0.1323355139925005, 0.13579747346279283, 0.1393645723436907, 0.14302799463011862, 0.1467113201282517, 0.15045762798053802, 0.1542026604344031, 0.15808298051203662, 0.16207875684962533, 0.16607087384868022, 0.1701261316468688, 0.17422023015857085, 0.17840416741263385, 0.18267931802235335, 0.1869815708467625, 0.19134641736427496, 0.19571925023406617, 0.20021492083735448, 0.20476890806088502, 0.20938121625273745, 0.2140517845553983, 0.2187584080333973, 0.22354786741750887, 0.22839983955665477, 0.23330141460493284, 0.23825954371383284, 0.24322776978825156, 0.24830394405760417, 0.253447130926579, 0.2586273878360228, 0.26386118472931047, 0.26918431475593957, 0.27451953182537653, 0.2798147525020763, 0.28526981590403067, 0.29077232419986115, 0.29635031323961486, 0.30194384019479487, 0.3075517387647654, 0.31324599195596486, 0.3189855968151078, 0.32482032413544604, 0.3306429510049871, 0.3365323346234339, 0.34244474498178584, 0.3484028725413387, 0.3543091317429534, 0.3603672223964294, 0.3664439166943362, 0.3725772125642232, 0.3787452287334565, 0.3849896713967271, 0.3912203444179163, 0.39748245508239, 0.40378349105614997, 0.4101176247433519, 0.41641753196366216, 0.4228229863865472, 0.42925049835341395, 0.43570798366644914, 0.44218998291202816, 0.4486937285483972, 0.4552226520397967, 0.46179153965975134, 0.46836101507713745, 0.4749514299868337, 0.4815515323398282, 0.48818142226796374, 0.49480587346072075, 0.5014706279164881, 0.5081483212206752, 0.5148679656560428, 0.5215643765548756, 0.5282117442877985, 0.5349366636875401, 0.5416664319825817, 0.5484201239429224, 0.555153984495391, 0.5618544950815466, 0.5685971612635606, 0.5753378866803759, 0.5820354235057803, 0.5887739980845106, 0.5955129543178416, 0.6022342882703108, 0.6089464873655112, 0.6156463981338227, 0.6223370870144662, 0.6289948512327374, 0.635661099344842, 0.6422866768828845, 0.6489216139960552, 0.6555361721209437, 0.6621051585657721, 0.6686786352300872, 0.6752871178357972, 0.681801457891117, 0.6882917317029806, 0.694706060299571, 0.7011494870217866, 0.7075228432303601, 0.7139059799885112, 0.7202524899880289, 0.7266055122631468, 0.7328700338348718, 0.7390850846719863, 0.7452747178413879, 0.7514231274083355, 0.7575007440581456, 0.7635658616579575, 0.7696098636425958, 0.7755759977246297, 0.7814938425560868, 0.7872916144449059, 0.7931172156823082, 0.7989462759628927, 0.8046497944338888, 0.8102980026079345, 0.8158271386247113, 0.821368029577593, 0.8268114544129943, 0.8322290069646624, 0.8375793038003003, 0.8429298144994491, 0.8481345390731394, 0.8532311255286089, 0.8583077133185767, 0.863312963724184, 0.8682839031772612, 0.8731382880934297, 0.8778658776106972, 0.8825804769058408, 0.8872165624578937, 0.8918093167817654, 0.8962809234296619, 0.9006811557379462, 0.904991645504693, 0.9092206255602447, 0.9133688044016527, 0.9174306510840904, 0.9213290184595512, 0.9252291908762219, 0.9290374096118812, 0.9327551778300587, 0.9363776791390268, 0.9399187496415057, 0.9433521461413635, 0.9466914620849451, 0.9499901377790189, 0.953132146585233, 0.9561727982293041, 0.9591279796016002, 0.9619870687979728, 0.9646828152176977, 0.9673551448318777, 0.9699087495611076, 0.9723774573163938, 0.9747419301435265, 0.977038072088653, 0.9791887815229608, 0.9812304878693275, 0.9831754102730348, 0.9850158635626621, 0.9867854880578456, 0.9884112433928373, 0.9899109604959235, 0.9913309026011365, 0.9926443180427572, 0.9938467889719572, 0.9949464831203533, 0.9959182388507767, 0.9968044733106356, 0.9975812016467691, 0.9982824992537603, 0.9988357495509809, 0.9992391210280002, 0.9995819705299398, 0.9998142003661241, 0.9999961832654969, 1.0, 0.999905061829826, 0.9996939778699582, 0.9993760025689051, 0.9988946865006363, 0.9983693978097162, 0.9977094771348526, 0.9969665756305173, 0.9961126336291886, 0.995204494668815, 0.9941232449052994, 0.9928978233509703, 0.9916094925052653, 0.9902133508098334, 0.9887119704808166, 0.9871016591510688, 0.9854395860579286, 0.9836110785020622, 0.9816808459848768, 0.9796450674770355, 0.9775125506742922, 0.9752307063781938, 0.9729024304992849, 0.9704712443795165, 0.9679180147270645, 0.9652863789061563, 0.9625856718056893, 0.959748714208297, 0.9568146065742866, 0.9538323819123956, 0.9507004649898683, 0.9474426146753006, 0.9441319552753633, 0.9407287555622218, 0.9372239517600668, 0.9336398959234706, 0.9299517036507716, 0.9261904085890988, 0.9223405629234736, 0.9184516524955073, 0.9144225318896766, 0.9102974442523712, 0.9061072127058838, 0.901836217232568, 0.8974715709269582, 0.8930443600458724, 0.8885151136575907, 0.8839364446426067, 0.8792812667753385, 0.8745010043858741, 0.8697039891096391, 0.864856561838202, 0.8599094970206009, 0.8548932346100095, 0.8498315704263337, 0.8446792430370329, 0.8394660604260537, 0.8341892523953593, 0.8288527070420979, 0.8234579374916723, 0.8180064740652927, 0.8124898260506717, 0.8069309020632625, 0.8013194114167396, 0.7956831286965887, 0.7899682383185606, 0.7841571008097988, 0.7783579240572313, 0.7725128712849099, 0.7666961638424885, 0.7607560442922545, 0.7547317043933176, 0.7487269087325267, 0.7426860453410804, 0.7366370180951203, 0.7305261348546157, 0.7243398886972392, 0.7181780606889931, 0.7119876669856451, 0.7057948129010644, 0.6995502597553384, 0.693270409769779, 0.6869868976440994, 0.6806848614554826, 0.6744003038236965, 0.6680625151722465, 0.6616815869799907, 0.6553273927276111, 0.6489635417018623, 0.6426400905696031, 0.636256445585746, 0.6298533662989406, 0.6234707243614278, 0.6170886402821938, 0.6106927178781059, 0.6043187832879228, 0.5979615711726352, 0.5915972841252832, 0.5852419708896934, 0.5789093719129025, 0.5725755675471228, 0.566218350401519, 0.5599204229957127, 0.5536382765082793, 0.5473577601316802, 0.5411148997896102, 0.5349467472989138, 0.5287399761917997, 0.522560575673753, 0.5163657877791951, 0.5102509509272288, 0.5041793177698979, 0.49812279563532247, 0.49208770706031013, 0.48610126345122895, 0.4801507943706322, 0.47422590184967744, 0.46835381198579723, 0.46248973691095946, 0.45670362185300917, 0.4509590784055935, 0.4452960631576128, 0.4396352052231517, 0.43399517805801957, 0.4284370493510348, 0.4229288620814375, 0.4174500169721051, 0.41204890682289413, 0.40674898492047007, 0.4014493139962122, 0.39620832535342004, 0.3910069481568685, 0.38588886776808845, 0.380845380991775, 0.375847738602272, 0.37091365939919274, 0.365985878021387, 0.3611891312878408, 0.35649563931061956, 0.35182138709653743, 0.34721514230887063, 0.34263764277185593, 0.3381751282136705, 0.3338291295439175, 0.3294983152523273, 0.32524071860560655, 0.32100876073396534, 0.3169054869625217, 0.31288051667969546, 0.30892198844869234, 0.3050379044254064, 0.3011908899067054, 0.29746277191154097, 0.2937950551503542, 0.2902185455677156, 0.2867174625545938, 0.28330873803708234, 0.2799590027542292, 0.2767321161681667, 0.2735346544303661, 0.27041928531029524, 0.267357932729276, 0.2644103863265371, 0.26149725018698766, 0.25871694243747195, 0.25601505069984426, 0.2534061519447529, 0.25086080350824586, 0.2484521983923288, 0.24606098123934225, 0.2437537485484475, 0.24151405886737595, 0.2393756907121499, 0.23725503967523073, 0.23528847447188186, 0.2333997678734566, 0.23165139603806917, 0.22991117818527632, 0.22820862423879454, 0.2266371591702603, 0.22514405424423423, 0.22375927129708215, 0.2224185701197145, 0.22115128317850216, 0.2199696713353961, 0.21886605058647987, 0.2177997395329645, 0.2168555649411999, 0.21602160531045855, 0.21522074199155808, 0.2144953684263622, 0.21385684042487188, 0.21327883489302102, 0.21269255665818412, 0.21227218854785032, 0.2119195391447843, 0.21165849726818575, 0.21143754011811716, 0.21128879115913454, 0.21120305885537516, 0.21118438857013638, 0.21122999160092348, 0.21134331671954162, 0.21152514804525702, 0.21176607222657148, 0.21206992754227605, 0.21240964082733071, 0.21283970771680266, 0.21328808699032334, 0.213839317472937, 0.21444502748034694, 0.21515278619851413, 0.21585944323095593, 0.21662120713801317, 0.21743685309051378, 0.21830514216127309, 0.21920876154794652, 0.22018059855154073, 0.22119636901427822, 0.22226345261332156, 0.22337591648684962, 0.2245446294988067, 0.22574277497453657, 0.22699541636216553, 0.22827559478239007, 0.22959620220317395, 0.2309477520721484, 0.23234586985812336, 0.2337535153346507, 0.23522480910786622, 0.23672750791698516, 0.2382825211765309, 0.23984168694427044, 0.24141182271004274, 0.24302991928647494, 0.24467318096860133, 0.24634634809890849, 0.24803531491051656, 0.2497017236427715, 0.25143811773334335, 0.2531908880322694, 0.2549790819868685, 0.2567589343768283, 0.2586092813454164, 0.2604092763765993, 0.2622240670903352, 0.2639996683219038, 0.2658453341102863, 0.2676675296591336, 0.2695290557133551, 0.27139305321792906, 0.27332274764233877, 0.27518047529751977, 0.27696884399445154, 0.2788399017159964, 0.28070658469424775, 0.2825739361951897, 0.28442813211452656, 0.286259184368142, 0.28810011892673854, 0.28993079969482577, 0.2918284940216766, 0.2936256565487019, 0.2953696330986353, 0.2971526178955716, 0.29892072180433815, 0.3006626626886047, 0.3023985535980933, 0.30412333574862477, 0.30581880919199855, 0.30749335106391257, 0.3091056324599295, 0.3107398717547364, 0.3123414196033213, 0.31392227770444775, 0.31547449604082173, 0.31699125440784426, 0.31848454226604833, 0.3199825406502297, 0.32140761144222374, 0.322801678026669, 0.3241335163791233, 0.3254660808412564, 0.3267767623780381, 0.32803489871117836, 0.32925632839590757, 0.3304341378406242, 0.3315802618187297, 0.33274093025174023, 0.33380009706346975, 0.33482109476146354, 0.33575053987152026, 0.3366983118134867, 0.337627736534615, 0.3384827542159467, 0.33929367339367744, 0.3400296262643837, 0.3407539313285529, 0.34142226733557507, 0.3420513081811157, 0.3426311601302854, 0.3431855880442056, 0.3436630386896836, 0.34412179277789906, 0.34449730571271614, 0.34482471106066875, 0.34509529056735266, 0.3453254936812861, 0.34549923296928886, 0.34562886668028986, 0.3457068681426626, 0.3456987949040585, 0.3456769408501253, 0.3456468756810775, 0.34551047456557055, 0.34531236351374733, 0.34507357706691694, 0.3447819834620063, 0.34440733498298437, 0.3440135668621059, 0.34355094847822076, 0.34304957068449676, 0.34249302408715515, 0.34186958861398725, 0.3412051947310522, 0.34051200723894043, 0.33973493394229076, 0.3389052303092159, 0.33799496411214397, 0.33706409551558253, 0.3361438451049267, 0.3350980676163859, 0.3340031898010459, 0.33281498139221927, 0.33162735998073184, 0.33036807917431144, 0.3290802987707424, 0.32774075614599124, 0.3263802140394578, 0.32493527724660626, 0.3234120764292889, 0.3218750335983796, 0.3202889530843925, 0.3186424745326944, 0.31696189369041716, 0.31532398793315347, 0.31353743144150764, 0.31170982768739247, 0.30979303230894845, 0.30788962492411703, 0.30595688418648836, 0.30396559155910485, 0.3019330499102207, 0.2997795465926129, 0.2976764641537037, 0.295575666975102, 0.2933802955503868, 0.29114622780945004, 0.2888923879379371, 0.28658121576128986, 0.2842349442263916, 0.28185430040020404, 0.2794400359247234, 0.277002963574184, 0.2745225352331103, 0.27200742371034065, 0.2694669234013727, 0.26689707094657966, 0.26425454289060396, 0.2616341204458124, 0.25900653923477457, 0.2563260945949064, 0.2536201275162161, 0.2508475022583344, 0.24809889052244657, 0.24534352747229482, 0.2425443536947015, 0.23972405558334692, 0.23693797472832462, 0.2340719698452396, 0.23115712003338, 0.22826665806072333, 0.22536092769622745, 0.22242890002725385, 0.21949720680515508, 0.21658273608828843, 0.2136225695353788, 0.21065342348628943, 0.20760990028140971, 0.20463374904718035, 0.20168365159920443, 0.1986842041204346, 0.1956795254956215, 0.19271482950210428, 0.1896972377106205, 0.18666595885802476, 0.18365154575604373, 0.1806380867342775, 0.1776324571859442, 0.17462271767905949, 0.17153857485116333, 0.1685473610126496, 0.16555734259636296, 0.16259812197846174, 0.1596113605643748, 0.15664169715636878, 0.1536688661960581, 0.15070579161420136, 0.14777149008486337, 0.14482847611282879, 0.14184282668406373, 0.1389348378421133, 0.13603880465047488, 0.1332342472131644, 0.13035584527815647, 0.12748325525257947, 0.1246468046496622, 0.1218303544111321, 0.11902248180369296, 0.11624943546385377, 0.11347352390630197, 0.11074672252434825, 0.10804128224599342, 0.10537218109191152, 0.10271042763256978, 0.10007349999817308, 0.09746211423743498, 0.09487697109313474, 0.09234284676623288, 0.0898091829565949, 0.08728504655136295, 0.08481357141355257, 0.0823714683440726, 0.08001155256103509, 0.07762343140699444, 0.07529551349758885, 0.07297244921926577, 0.07068528365664134, 0.06838182149109615, 0.06617310878970505, 0.06402361384226608, 0.06187839231646847, 0.0597688390561727, 0.057723361195141376, 0.05568249871987979, 0.053746047011546984, 0.05177321160137246, 0.049842445301101004, 0.04791118576576122, 0.046068761424907685, 0.04427309887715978, 0.04250727579451218, 0.040780954170760816, 0.039154470792105274, 0.037499878290673756, 0.03588652300181149, 0.03431832699875925, 0.03279263187117343, 0.03126907166932041, 0.029832855646299845, 0.028486557909502788, 0.027123673159499644, 0.02580375765762093, 0.024550686747638294, 0.023313049497064343, 0.0221733834023018, 0.02101609783884004, 0.019905006417260562, 0.018833398949180374, 0.01781347786757604, 0.016935960258291343, 0.015991245000841404, 0.01509528997352139, 0.014204814432355477, 0.01340847814401249, 0.012745894547338068, 0.012024529104656529, 0.011350833837391777, 0.010755863155746991, 0.010170370569546146, 0.009627492937057851, 0.009134772605198927, 0.008686581299853207, 0.008352437820728151, 0.007982265583237337, 0.0076686067629913755, 0.007389026302156716, 0.007154428570529485, 0.006991981973998661, 0.006841088304849245, 0.006752312620390568, 0.006686347809584977, 0.00666377152091987, 0.006739946330625127, 0.00679458231563542, 0.006943664722210368, 0.007079407553454521, 0.007260217142856154, 0.007462762429997178, 0.007732893221291271, 0.008101727570815067, 0.00844476284727701, 0.00883021755942191, 0.00924701812020614, 0.00971558494681741, 0.010191099219693243, 0.01074120325066726, 0.01132731390139247, 0.011999335678573737, 0.012650273515746432, 0.013327174304474842, 0.014054996066645783, 0.014818892535917236, 0.015666587434753035, 0.016495195064161985, 0.017405453901835524, 0.018302672431456012, 0.01923837101080562, 0.020275784461450296, 0.021277391315733474, 0.022258104461888178, 0.02334472081484776, 0.02451305640503538, 0.025660111557868716, 0.026842363138775985, 0.028068997970395238, 0.0293179003799869, 0.030598233749553578, 0.03191355002958328, 0.03326082381221821, 0.0346715993541185, 0.03607704522832534, 0.037498602066621256, 0.03896971785092585, 0.04047076155390683, 0.04206351722644911, 0.04361523123141294, 0.04515495010955205, 0.046775736063287054, 0.04842459018404278, 0.05011322123549016, 0.05181570379289502, 0.05359216742841769, 0.05534405896338237, 0.05712564526543246, 0.05892821411927305, 0.06076822900831638, 0.06265170421762564, 0.06454405850393716, 0.06646389766879415, 0.06836055431001077, 0.07034032524686455, 0.0723695738809937, 0.07439286388419887, 0.0764411049707389, 0.07851010616832553, 0.08060824411682142, 0.08272861481231797, 0.08487538312533016, 0.08704607768304855, 0.08929683599458353, 0.09150805581181903, 0.09370599344119805, 0.09597551458420499, 0.09826868358937021, 0.1005894389430208, 0.10292917565611197, 0.10530061427476034, 0.10768659720790096, 0.1100965513033324, 0.11252834635486166, 0.11498614744869674, 0.11744340294172584, 0.119951286227916, 0.12248126663900867, 0.12501343220721323, 0.1275906237125403, 0.13021734604098786, 0.13283412455607027, 0.13547445935811242, 0.13816446112247496, 0.1408486513065629, 0.1434876521651814, 0.14623069909494468, 0.14899455189053953, 0.1518559453654337, 0.1546530618270902, 0.1574001940624882, 0.1602592821883704, 0.16313987534508356, 0.16609458987775053, 0.16901281366857912, 0.17198472716423657, 0.17495046366487996, 0.1779431854952141, 0.18090841131617336, 0.18396117726416572, 0.18702515657302357, 0.19012625901792118, 0.1932505192618848, 0.19635613899412074, 0.19953310214693246, 0.20273387244579338, 0.20595481055906575, 0.20919885920480447, 0.21247253857353537, 0.2157634915676835, 0.21909731577412625, 0.2224359106733033, 0.2258009350783541, 0.2291362982464921, 0.2325616486045103, 0.23605679877381802, 0.23952412282960936, 0.24301872646260209, 0.24654068721998693, 0.2500900808585502, 0.2536609589414243, 0.2572662015216337, 0.2608987583702093, 0.26456075650398925, 0.2682480393995427, 0.2719389961756094, 0.27568493846780107, 0.2794574572372716, 0.2832066326702432, 0.287039431126751, 0.2908806555891193, 0.2947650529758526, 0.2986741532800096, 0.30265270914769377, 0.30660731284907217, 0.3105866202481896, 0.31459919312975887, 0.3186402945042706, 0.32273404714072973, 0.3268292402128092, 0.33095436611604645, 0.3351092219562063, 0.3392936169654539, 0.34345316606941845, 0.34770296015522484, 0.3519586582452376, 0.35626322615169725, 0.3605931486443993, 0.3649567965092143, 0.36933737129004823, 0.373676331169814, 0.3781189233946382, 0.38258448944298473, 0.38713181973002925, 0.3916375807338589, 0.39616697866640765, 0.4007283708180026, 0.4053168082666955, 0.4099260810227065, 0.41456878716826034, 0.4192114767128397, 0.423909446520518, 0.4286316092932077, 0.4333819429257317, 0.43815182465742925, 0.44289769202513496, 0.44772179906048554, 0.45256693222358435, 0.4574452570667748, 0.4623312021622101, 0.4671827711542208, 0.4721193050171768, 0.4770740907052831, 0.48212157749381895, 0.4871038849019339, 0.4920586485238132, 0.49709189985193303, 0.5021435943852736, 0.5071833293181115, 0.5122747994814562, 0.5173539006144262, 0.5224802104001498, 0.5276202335049234, 0.5327979645430935, 0.5379619927097199, 0.5431084238678232, 0.5483050344308962, 0.5535132700605881, 0.5587247513933783, 0.563956138244941, 0.5691573053005683, 0.574413163542832, 0.5796757033694182, 0.5849326200411188, 0.5902091789035946, 0.5955509332168166, 0.6008294070491317, 0.6061153381789668, 0.6113293911849449, 0.6166370124129642, 0.621932518612031, 0.6272411001566807, 0.6325480067278655, 0.6378648001630609, 0.6431653032537974, 0.648477178245332, 0.653769745007818, 0.6590587781694021, 0.6643272180237877, 0.6696081933751662, 0.6748716288632945, 0.6801379341289608, 0.6853942697624021, 0.6906778611049569, 0.6959066414032075, 0.7010825695125632, 0.7062939678473884, 0.7114896650489307, 0.716672709232097, 0.7218335621985806, 0.7269337827168013, 0.7320619299321794, 0.7371670379473636, 0.7421981273130923, 0.7472610738977401, 0.7523518358777956, 0.757350335179876, 0.7622682022121139, 0.7672195251056475, 0.7721390100348327, 0.7770359203052051, 0.7818880679358442, 0.7866863433405583, 0.791472397030914, 0.7962214103996182, 0.8008862588195163, 0.8055641290178729, 0.8101913427294394, 0.8147842641915365, 0.8193326054017122, 0.8238476137128973, 0.828302806310684, 0.8327014584908207, 0.837063832295562, 0.841376938596471, 0.8456738376770702, 0.8498808524731601, 0.8540512609791769, 0.8581537462736305, 0.8622035062464795, 0.8661689076267289, 0.8701124943588315, 0.8739851466454563, 0.8778112843541741, 0.8815754651352805, 0.885310715294917, 0.8889433480831385, 0.8924403277186607, 0.8959539355095342, 0.8993973329043443, 0.9027577133174207, 0.9060598861811682, 0.9093168714023253, 0.9124681267403866, 0.9155460747606895, 0.9185114987328761, 0.9214444379460942, 0.9243509139445992, 0.9271191773562097, 0.9298101684718064, 0.9323684525645943, 0.9349080945480243, 0.9374059873826223, 0.9397717833768122, 0.9420546164449454, 0.9442192790956789, 0.9463372940111431, 0.9483431891392795, 0.9502874733301354, 0.9521409328877946, 0.9539552314999084, 0.9556188189298921, 0.9571486801361916, 0.9586377257659401, 0.9600327620369083, 0.9613673509043468, 0.9625683498126821, 0.9636815718044232, 0.964693370344892, 0.9656100688609416, 0.9664007464610914, 0.9671286761236977, 0.96780169567239, 0.9683254548107864, 0.9687517630331779, 0.9690898972553541, 0.9693178117786432, 0.9694668097825628, 0.9694935330928212, 0.9694211175665898, 0.9691805994359513, 0.9689164956726396, 0.9685696149986145, 0.9680930599243217, 0.9675130036226556, 0.9667891752865169, 0.9660068603637493, 0.9651385840593233, 0.9641419361589958, 0.9630409236078179, 0.9618215889445463, 0.9605139255468512, 0.9591235253092147, 0.9576036876998497, 0.9559807918343124, 0.9542047434940827, 0.9523823956612099, 0.9505288381266582, 0.9484867164478961, 0.946344453464864, 0.9440478179351836, 0.9417121131038245, 0.939303456993528, 0.9367584161428977, 0.9341132077371571, 0.9313902865526034, 0.9285431052446121, 0.9255480402997747, 0.9225121289394977, 0.9193763918535447, 0.916219958426667, 0.9128771771468551, 0.9094053478396453, 0.9058815404458451, 0.9022633400893804, 0.8984912130552097, 0.8946939658903645, 0.8908453214805697, 0.8868526651484846, 0.8827695090349191, 0.8786369161536517, 0.8743704506317902, 0.8699804261814412, 0.8655486387517337, 0.8610307372755582, 0.8564278518172329, 0.8517411374088221, 0.8469657512802004, 0.8421157052359451, 0.8371851066292536, 0.8321451443461785, 0.8270611741489166, 0.8219410836350877, 0.8166968248214468, 0.8113798436603998, 0.8060014220630097, 0.8005414966127616, 0.7949409822554394, 0.7893548335751368, 0.7836988972230307, 0.7780252974424687, 0.7722292103413874, 0.7663397386060802, 0.7604266301282491, 0.7544533732240842, 0.748431765933567, 0.7423422186184867, 0.7362103996599768, 0.7300123659142376, 0.7237640432282553, 0.717420852685206, 0.7110825995041515, 0.7046782519402892, 0.6982482631507001, 0.691773272324168, 0.6852855214721031, 0.678723066413602, 0.6721617200971134, 0.6655221586986722, 0.6588512819041678, 0.6520923609864833, 0.6453707314529502, 0.6386592714718756, 0.6318746809490162, 0.6250664969139416, 0.6181681726203467, 0.6113265851936015, 0.6045330312912885, 0.5976404120345032, 0.5907340834492545, 0.5837815675299101, 0.576857114892402, 0.5699200604846536, 0.5629766709853374, 0.556026554939831, 0.5490496135665652, 0.5420947749062638, 0.5351619695590937, 0.5282020877970782, 0.5212457014614402, 0.5142866367854448, 0.5073438199136974, 0.5004136131997063, 0.4934893797176479, 0.486577753280582, 0.4796625039564863, 0.4727838800380878, 0.46590225514812517, 0.4590622689428769, 0.452242100317147, 0.44545584710592845, 0.43867990019039166, 0.4319364870721754, 0.42521462237595964, 0.4185232224751033, 0.4118840824134577, 0.40525621192487044, 0.3986851078079731, 0.39212957963918965, 0.3856148683710072, 0.3790941294112693, 0.37267117230672264, 0.3663405750059036, 0.3599973755356554, 0.3537026465176339, 0.34739342188804184, 0.3412075963615782, 0.3350925765304745, 0.32900321700707136, 0.32299348088674795, 0.3170093829807902, 0.31108326259163754, 0.3051882451906745, 0.2993853197690919, 0.2936043175881248, 0.28792777491434085, 0.28231196679261833, 0.2767605480120851, 0.2712708176348464, 0.2658807720067791, 0.2605192450983242, 0.2552279384284175, 0.2499978205003219, 0.24485121818244593, 0.23974308891574211, 0.23474701695312614, 0.22982361765823697, 0.22501024022477029, 0.22023118565314734, 0.21548007434776997, 0.21086435382319652, 0.2063253704802346, 0.20183810236131813, 0.19745904674975504, 0.19316629921996764, 0.1889438535357543, 0.18480218481079486, 0.18076420544583158, 0.17678371361413328, 0.17287145267072632, 0.16906202178750346, 0.1653368365103209, 0.16169840349796344, 0.1581428993843783, 0.15463695614836664, 0.1512577444338162, 0.14796281396811106, 0.1448209519922212, 0.14168746372423538, 0.13856715683439044, 0.13562201149586028, 0.13276157324834773, 0.12998621483343023, 0.12729622902660792, 0.12469183340737915, 0.12217317473888907, 0.11974033298659163, 0.11740938567094235, 0.11514613809561473, 0.11297751394544554, 0.11088615526544839, 0.10888124140542868, 0.10698444012491111, 0.10514835164395873, 0.10335044265501409, 0.10169249954248864, 0.10011687121083597, 0.0986172429640047, 0.09720607360910007, 0.09586981654888918, 0.09462087464339321, 0.09345166699531383, 0.09232961026269769, 0.09132249088303601, 0.09045198121490654, 0.08958965054612932, 0.08880628150653533, 0.08811894523462047, 0.08748821575431016, 0.08689429398383841, 0.08642139000921245, 0.08602085920987317, 0.08566175162629068, 0.08540722735100979, 0.08523883182120436, 0.08511743943396598, 0.08506364859292585, 0.0850503879161932, 0.08513214414081174, 0.08529708458090379, 0.085501650294779, 0.08576865546208885, 0.08608491322584184, 0.08647486665787066, 0.08694917115397144, 0.08745120186312354, 0.0880106572596118, 0.08856389392378461, 0.08924183626903799, 0.09000961891152039, 0.09078093542198716, 0.09160227225474872, 0.0924521731077804, 0.09337193024293491, 0.09435445748095941, 0.09536006690452004, 0.09640882455932852, 0.09747114769820238, 0.09860531555832064, 0.09976655725278236, 0.1009749393039115, 0.1022172771202023, 0.10353647173818759, 0.10483730080352892, 0.10615459411455029, 0.10752077821615806, 0.10891515153963693, 0.11028997522230048, 0.11174186971960504, 0.11328693667344289, 0.11477029600181778, 0.11627617277697382, 0.11776054483600028, 0.11931123449870418, 0.12086053278095606, 0.12244116921545099, 0.12403271595425547, 0.12563385622383885, 0.12724324860609765, 0.12882740917779953, 0.13045326105013438, 0.13208142305187254, 0.1337348361105754, 0.13536108062899144, 0.1370195391254795, 0.1386404556572782, 0.1402603615698106, 0.14181932510322237, 0.14343946903027052, 0.14509446646132637, 0.14668925377868297, 0.14827488739787412, 0.14983375549028347, 0.15139848430305758, 0.1529305124775932, 0.15446691440036892, 0.155984985435838, 0.15750361872235397, 0.15897893505625849, 0.16040939131773624, 0.16184486009456264, 0.16325551868302765, 0.1646783930208508, 0.16603125271616445, 0.16735005670166794, 0.168650459902791, 0.16992158916651623, 0.17116619003936034, 0.17237448819716983, 0.173546013064885, 0.1746880990795289, 0.1757948304328042, 0.17686109172594963, 0.17789435113991567, 0.17886472992019428, 0.17982247848147845, 0.18073815605141078, 0.18166322751332645, 0.18248596926972158, 0.18326135985614167, 0.1840010693338829, 0.184696900281745, 0.1853639453147212, 0.18596713451052183, 0.18644027211901298, 0.18696170252442024, 0.18743082122831384, 0.1878575076892173, 0.18822022854139575, 0.18855473239169945, 0.18880947880872384, 0.1890126399200483, 0.1890954465538129, 0.18920255889715953, 0.18933310240954462, 0.1893164342575654, 0.18924759410129177, 0.18911393416122002, 0.1889405193069519, 0.1886543873922999, 0.18837898738231343, 0.18804515464914862, 0.18773337919833027, 0.18727306514983943, 0.18674727632788943, 0.186181114522737, 0.1855598948274102, 0.18486928852858664, 0.18413895530745034, 0.18330191404775978, 0.18246487747055506, 0.18156851360271936, 0.1806614595404525, 0.179641696118212, 0.1785726466364482, 0.1774415296728771, 0.1762555350392874, 0.17499263925197678, 0.1736999065715485, 0.17228913607580928, 0.17089303461047262, 0.16943839177764913, 0.16805660535204062, 0.1664710536660437, 0.164768621253597, 0.16309420213015072, 0.1613408329804825, 0.15956451105971678, 0.15773489617791908, 0.15588285713147168, 0.15394511060890814, 0.15188775286701878, 0.14986070764947923, 0.14778142382132933, 0.14565906951146898, 0.1434776666853223, 0.14130800290883613, 0.139022979070559, 0.13669477235434835, 0.13435797009949832, 0.13194050912376729, 0.12941103372644738, 0.12692355619771326, 0.1243930146390826, 0.12184656399571143, 0.11922975682717236, 0.11656245512429421, 0.11387110417680679, 0.11114231508348883, 0.10835698745370072, 0.10555879637968643, 0.10270893535912672, 0.09984272228575049, 0.09694232000754724, 0.09408930776103318, 0.09111417927426615, 0.08803885100554842, 0.0850218467401513, 0.08197596191144568, 0.07891855022454108, 0.07581673312866355, 0.07263454694673421, 0.06949263467679019, 0.06632563550021131, 0.06317125334796095, 0.05995416015212805, 0.05670650934832931, 0.053455046492772586, 0.05018665578958598, 0.04690456791437831, 0.0436057229617905, 0.04035994181543256, 0.037027517403347344, 0.033687956352541966, 0.030293699346693733, 0.026947884512680605, 0.023594270063100053, 0.020234027682908853, 0.016868324151029984, 0.013492298498448664, 0.010119914306299578, 0.006753230930694194, 0.0033763665792072234, 0.0