0.04061832533338744, 0.03998689047381667, 0.039430118388934406, 0.038909283315351186, 0.0384012335664371, 0.03793950868833927, 0.03750853728203543, 0.037084759189262746, 0.0366767102147573, 0.036223458198978466, 0.03584743028210882, 0.03549686435675608, 0.03513024254938003, 0.034769497474010834, 0.03444266563542353, 0.03408835406825356, 0.03371510024520122, 0.03337586955097842, 0.03304078515144806, 0.03263113576634909, 0.03231474027608952, 0.031998656190269176, 0.03168385062046914, 0.03137126100857041, 0.031053432672458785, 0.03074901545764999, 0.03043104551244911, 0.0301384873556348, 0.02985098115710552, 0.029598117426647128, 0.02931981114892131, 0.029030465789454587, 0.028773782012410078, 0.028526254064972004, 0.02825150364112211, 0.02802886460016855, 0.027769734214532108, 0.027571445558349176, 0.027381083284879162, 0.027209255971727273, 0.02703659538362765, 0.026896752402216284, 0.026744704471723606, 0.02660649776270617, 0.026443109370274047, 0.026338705087882518, 0.026251781825639166, 0.026172799644005186, 0.026107965077202505, 0.026019523475567328, 0.025989164180743343, 0.02600909737680367, 0.026001248830282375, 0.026009990189973686, 0.02597822519183472, 0.026028073917405074, 0.02608478056387276, 0.02616423754000666, 0.026258560221075224, 0.02638505916688625, 0.02650871168803547, 0.02662349792800567, 0.026785594387898404, 0.026964211337593497, 0.02718251650399602, 0.027392690813440406, 0.027580166666672467, 0.027834018139930514, 0.028104994441120686, 0.02842466390304778, 0.0287274687251085, 0.029012348297037308, 0.029360726399358515, 0.029727564717005033, 0.030151549943390425, 0.03055184724234733, 0.03097883452975015, 0.03142242523670932, 0.03188835671291854, 0.03237669353610678, 0.03288751935652827, 0.03336480205416398, 0.03392802344417377, 0.03451093484635866, 0.03513204834413116, 0.03575382245975302, 0.03636690412016948, 0.03703765888892446, 0.03772968508172145, 0.038506838421085134, 0.03923503027541226, 0.03995734403964506, 0.04074228187796539, 0.041551672568517904, 0.0423666567814931, 0.043228111998612824, 0.04412323106991876, 0.04503207973417764, 0.04596631448355593, 0.04697635448661693, 0.04795577918452029, 0.04895817031107872, 0.04999604643428382, 0.05106220582292752, 0.05209806971544661, 0.05322805001801096, 0.05442950973573245, 0.05560388103275304, 0.0568066827625327, 0.05799494196215746, 0.059260119181139645, 0.0605466323278927, 0.06186503179914432, 0.0632100211158267, 0.0646631700096345, 0.06605209852507986, 0.06741460714271943, 0.0688747355026919, 0.0703629240141353, 0.07188769392535621, 0.07343140914289199, 0.07505424104775814, 0.07664956185612341, 0.0782767203781672, 0.07986248000012626, 0.08156141845566833, 0.08327393764780555, 0.08502828394079356, 0.08680918514873276, 0.08867548978129168, 0.09050302761150897, 0.0923325648919545, 0.0942247621274387, 0.09614544747047199, 0.09808025797676638, 0.1000596213597054, 0.10210354857466032, 0.10413334439602778, 0.106192796853407, 0.10829591738583523, 0.11041192057637929, 0.11253356785909743, 0.11471124419974431, 0.11691631380368722, 0.11911037841706443, 0.12137451774344477, 0.12371827573707643, 0.12602492550931305, 0.12835948539122577, 0.13072032465484423, 0.13310956032216997, 0.1355408952270201, 0.1379809218246547, 0.14044761549027576, 0.142944054043101, 0.14546213235504815, 0.14800681192984927, 0.15057506802477766, 0.15316784277502304, 0.1557357011193575, 0.15838231273525236, 0.161054100146851, 0.16374085705035335, 0.1664481412162394, 0.16914831198527663, 0.17189957707973613, 0.1746763822154513, 0.17746344500868375, 0.18026914044523057, 0.1830849010331979, 0.18592825804460722, 0.1888009857260371, 0.19167743887829022, 0.19457145362827452, 0.1975244123290296, 0.20044698691713772, 0.20335112708198808, 0.20631474992230564, 0.20929328493847257, 0.2122922365609721, 0.21529842212268097, 0.21828735053376766, 0.22132448968509638, 0.2243725465637379, 0.2274514949578351, 0.23051779229345046, 0.23359504532601935, 0.23668265531659868, 0.23978001444774522, 0.2428697857774398, 0.24598690023893208, 0.2491611146925255, 0.2522852588513678, 0.25543603952185423, 0.2585744102179807, 0.2617206358974005, 0.2648330726944161, 0.26799707518404686, 0.27113261452717585, 0.27430512637977783, 0.277477283242122, 0.28069768629318637, 0.2838618027679701, 0.28702470777835865, 0.29019061056192075, 0.2933558347890793, 0.29646104235391535, 0.29962987288581383, 0.3028592096731697, 0.3060065180642008, 0.3091505270790345, 0.31224968329768094, 0.3153894146736818, 0.31848736191767124, 0.3216140848053179, 0.32472946410758874, 0.32783556399890856, 0.330926928946837, 0.3339880457770448, 0.3370565250846382, 0.3401106614378981, 0.34314765828171817, 0.34617214067007246, 0.34918795409666264, 0.3521793470756772, 0.35515424513762284, 0.358140674894558, 0.361077027059723, 0.3640036897735704, 0.366904505444143, 0.36978704494242004, 0.3726372253750804, 0.37548205992282613, 0.37825375407650785, 0.38106073607812474, 0.3838415020753402, 0.38665302588405354, 0.3893730042652788, 0.3920078804273796, 0.39468624154145304, 0.39733514736174813, 0.3999410646266272, 0.402531496279078, 0.4050928284835242, 0.4076195921440556, 0.4101141841658281, 0.4125809016739742, 0.41500907953222715, 0.41741817030345274, 0.41977711203121587, 0.4221022564304119, 0.4243678025846403, 0.4266263718234604, 0.4288714885587434, 0.4310518683643267, 0.43319525279373144, 0.43529376653241436, 0.43736195311971526, 0.4393703553365221, 0.44136154070197037, 0.4433109002295869, 0.4452335333477698, 0.4470959868189001, 0.4489197586538493, 0.45069665366554645, 0.4524303447504434, 0.45412861173902436, 0.4557731130830243, 0.4573660221014192, 0.4589219790052478, 0.4604319368701822, 0.4618774898270099, 0.4632962581804252, 0.46462121346829377, 0.46594856443804933, 0.4672243407777273, 0.4684593554597922, 0.4696307715546757, 0.47078233490614074, 0.47184787730939903, 0.4728639665007949, 0.47382421425949717, 0.4747409232583184, 0.4755457459962653, 0.4763678989337107, 0.47713505936458106, 0.4778880466597353, 0.47854067891967106, 0.4791566303694936, 0.4797026532822527, 0.4801968888530733, 0.48057570667854843, 0.4809734074741453, 0.48131247430967355, 0.48159824997729644, 0.48182813697292176, 0.48207042776438175, 0.4821805492734144, 0.4822427540531247, 0.48224902224651117, 0.4822032435107382, 0.4820334322415291, 0.48189169341870053, 0.48167514324095717, 0.48142227061145926, 0.48111225490296683, 0.4808017139322911, 0.48037172981992615, 0.47988073738204473, 0.47934644989421954, 0.4787589498713536, 0.47809561353145175, 0.4774047856371685, 0.4766788540537483, 0.47587750217996566, 0.47502364509034467, 0.4740613140042668, 0.4731100594507412, 0.472110873773599, 0.47104919843588194, 0.46993415151988127, 0.46877584350322404, 0.4675544942775104, 0.46625564960138566, 0.46493561540890727, 0.4635637534290821, 0.46215504266848395, 0.46067963170199333, 0.4591502975473269, 0.45757767460052723, 0.4559565916160852, 0.45434370275522684, 0.4526201653308594, 0.4507907793987366, 0.44898768424672, 0.4471375747058006, 0.4452925006031665, 0.44334394096772173, 0.4413616656695337, 0.4393281576376227, 0.43725361254821893, 0.4350977103144928, 0.4329471369071408, 0.430724397522314, 0.428493736762297, 0.4262205975051134, 0.42390119425392675, 0.4215466483371078, 0.4191677737132193, 0.4167325080727648, 0.4142601415285395, 0.41175623524399585, 0.40921141206791045, 0.406615381117019, 0.40400443926362045, 0.40135956027456615, 0.3987377645297049, 0.3960205640860798, 0.3932405720123129, 0.39047184767553883, 0.3876738917517514, 0.38483196148591525, 0.38197986345143026, 0.3791095896085338, 0.37620175234340647, 0.3732685713444305, 0.37030968853336377, 0.3673284826839288, 0.36431363443043957, 0.36128885510189646, 0.3582422892834113, 0.35518204673924736, 0.352093824085633, 0.3489846332643071, 0.3458604151116549, 0.34271920701084674, 0.3395093402812951, 0.3363434398350262, 0.3331697938762767, 0.3299693830185242, 0.32675474968721074, 0.3235652298713267, 0.32032063680917966, 0.3170576624448266, 0.31379733929468245, 0.3105290959500914, 0.30725852509805035, 0.3039762838223903, 0.3007007808021118, 0.2974073969219713, 0.2941110378766295, 0.2908076161942704, 0.2875079953358631, 0.2841439441790806, 0.28085083211434647, 0.27760832035533833, 0.2743034079852305, 0.2710008747850321, 0.2676465175510534, 0.26435789943826965, 0.2610779579022289, 0.25779263747070047, 0.2545115398995834, 0.25128465230242464, 0.24800882912353542, 0.2447405335489428, 0.24148536331846956, 0.23824103057241539, 0.23502005069934076, 0.23179761054423775, 0.22858603807381522, 0.2253909173073338, 0.2222099461297758, 0.21904129287017995, 0.21589060407807076, 0.21272935504747467, 0.209614018817813, 0.20651412546596565, 0.20341018477402556, 0.20034615684094537, 0.19734656415592164, 0.19431071782630271, 0.19129596596692652, 0.1882573524118881, 0.18529182171615766, 0.18234256505645674, 0.17941801481137265, 0.17651470471392688, 0.173664447085119, 0.17080192951625636, 0.16790603186647038, 0.1651015924963393, 0.16231979726175852, 0.15962122058044223, 0.15687967392136648, 0.15417964944089402, 0.15149341332811736, 0.14883671386248415, 0.14618339014781329, 0.1435894478920653, 0.14099291117719556, 0.13846018368601196, 0.13595490000236954, 0.13346928914305714, 0.1310216708341819, 0.1286002677496696, 0.12621068290979934, 0.12385056814335965, 0.12154784487986746, 0.11924450944263454, 0.11692683562738433, 0.11469398003605465, 0.11249096214341345, 0.11032183251033204, 0.1081793843745797, 0.10609090814012853, 0.10400843513622568, 0.10195904502783647, 0.09997023245327749, 0.09798359824483543, 0.09600057557276541, 0.09408696460527875, 0.09220582856308925, 0.09039423918033646, 0.08857349441488842, 0.08672647513569544, 0.08498239641643547, 0.08326893876874751, 0.08164245225962599, 0.07998374187559709, 0.07833901042732705, 0.07675106553199487, 0.07519554837014056, 0.0736579567759227, 0.07216858886559435, 0.07070911602160623, 0.06928199874688941, 0.06788572246268988, 0.06652375559998554, 0.0651883425208376, 0.06393014158759124, 0.06264989976970661, 0.06140247801933009, 0.0601239666335952, 0.0589483897205891, 0.05786841874978141, 0.0567392761916097, 0.05564140831679061, 0.05452042587270551, 0.05349000110785297, 0.052552875253476454, 0.051566698627175125, 0.050610402722751614, 0.049667732625765876, 0.048771013910134185, 0.04789645245516789, 0.047053705448772014, 0.04623663248432334, 0.04542926327193848, 0.04466417141228927, 0.04392374930240398, 0.0432051407218415, 0.04250942498995665, 0.04183266074881613, 0.041182094829031825, 0.04058893473614264, 0.039976621682165106, 0.0393871424804317, 0.03884369741754009, 0.03829482947095486, 0.037793223197206086, 0.037284727913338034, 0.036798225235346635, 0.03633396542536678, 0.03588852152882265, 0.035462469519550094, 0.035055008946168885, 0.03466538120454974, 0.03431316861547843, 0.033954508877946474, 0.033591255794265314, 0.033268327802228846, 0.0329595501422484, 0.032654827355400505, 0.03237394879684164, 0.03215884358620721, 0.0318947966497227, 0.03164493325085059, 0.031437053137065005, 0.03120939274713933, 0.031034497491008322, 0.030827606706269346, 0.030634443900483796, 0.030446702426557476, 0.03027857347400293, 0.030139729921932756, 0.02998870870248305, 0.029847340544237225, 0.02979119699689943, 0.029656942796008213, 0.029507959147855343, 0.029398825002673986, 0.029297300713907622, 0.02928375778163921, 0.02918473229602245, 0.029076457418471768, 0.028998277981673006, 0.028926442202997726, 0.028920982754778703, 0.02885158956345226, 0.028830194837659324, 0.02876932812231668, 0.028716014295134876, 0.02868695996997331, 0.028643004277070963, 0.028621115305599926, 0.028584770528887204, 0.028552896437397585, 0.028571198934457323, 0.02853987160081786, 0.028540808265312405, 0.028514655167645724, 0.02849308275230879, 0.02851936076997112, 0.028498730928793004, 0.028524577764810478, 0.028507087475610062, 0.028494904344581348, 0.028457168420594217, 0.028456520881888436, 0.028554872721277, 0.02854361797260583, 0.02853829580156344, 0.028487752459772572, 0.028497821411250963, 0.028604040163884504, 0.028603077261674582, 0.02860782803282447, 0.028594795504396923, 0.028611574145489625, 0.028641549146659374, 0.028661633542967135, 0.028684389954484964, 0.028753845784267106, 0.02877594561269028, 0.028807703041507166, 0.028838642242523565, 0.028874192067742794, 0.02896434171311767, 0.029002334668257593, 0.02907255388136656, 0.02912131152110187, 0.02917802088416264, 0.029220833391640815, 0.02929522440323149, 0.02944251568017898, 0.02952061081230927, 0.029546681035006926, 0.029652487787205622, 0.029764400256103076, 0.02992224409403082, 0.030042652180150342, 0.03022525035899027, 0.030358466526027104, 0.030504677038640172, 0.03067449386734056, 0.030845022939082374, 0.031046943195893288, 0.031242206689651608, 0.03145212898960569, 0.031645718096088474, 0.031889150236757306, 0.03215906204632481, 0.03242805479939282, 0.03271223137350344, 0.03299535813305766, 0.033313512906547625, 0.03365941984170018, 0.03400839839279684, 0.03437529608243702, 0.03479777151516739, 0.035197746892458394, 0.03560772932444037, 0.036053498408704594, 0.03652136210827859, 0.037033389538403245, 0.03754446504865333, 0.03808182794131454, 0.03864340955655641, 0.03923113358903347, 0.03985389807195146, 0.040494496337136004, 0.04114191749572653, 0.04184243483810599, 0.04257121637089099, 0.0433278586727349, 0.04411569508738324, 0.04490186179199552, 0.045755735525360906, 0.046639986981585085, 0.047572398594049006, 0.04851844233939166, 0.049498886709596165, 0.05051456326839664, 0.051566293055470815, 0.05261786274935353, 0.05374880292799848, 0.05492089895686971, 0.05612507169830651, 0.057368004026455637, 0.058681701239777874, 0.06000105083446079, 0.06132544322370562, 0.06273675661036353, 0.0641904084255148, 0.0656729900178352, 0.06721586450520382, 0.0687945768793652, 0.07042784257731544, 0.072106669651705, 0.07386064401468675, 0.07562969074158506, 0.07741987826679338, 0.07929272547199895, 0.08121489571287821, 0.08320031005782318, 0.08522177982182802, 0.08724658774991195, 0.08937943741647811, 0.09156298290172628, 0.0938304098253668, 0.09611402174560973, 0.09847426579703812, 0.10086592976170107, 0.10331491983430433, 0.10582869539608486, 0.10839231639411155, 0.11096081289638196, 0.11364871386495849, 0.11639271340907509, 0.11920783012900384, 0.1220642232123615, 0.12493523769368538, 0.12791526727418023, 0.13095245190054622, 0.1340761803415585, 0.1372261546399595, 0.1404070014286651, 0.143682508686738, 0.14701763499622694, 0.1503794190245589, 0.15383939442182293, 0.15739063168701187, 0.16096514857218813, 0.1646015873648956, 0.16829176273771146, 0.172053590565599, 0.17582234831357027, 0.17971499722395973, 0.18366666449759797, 0.18767068291077443, 0.19174269740544786, 0.19587575020626008, 0.200067602779278, 0.2043198887039214, 0.2086172193353233, 0.21299268053104614, 0.21743150214478232, 0.22192613932323302, 0.22648083352813259, 0.23114685189575684, 0.2358148436249409, 0.2405322052531602, 0.24532621406483157, 0.2501806806562359, 0.2550245951766345, 0.26000724141468046, 0.26507338464848246, 0.2701620567927055, 0.2753070541911791, 0.28054738096105025, 0.2857987758708054, 0.2910440540229425, 0.2964169682541924, 0.30184181593514897, 0.30730750946540986, 0.312836502013663, 0.31841800630104916, 0.3240465078573506, 0.32972433231609316, 0.3354174605346847, 0.3411963718362347, 0.3470710006618641, 0.3529342220579483, 0.3588448192372721, 0.36474564827512435, 0.370755046994487, 0.3768282841809816, 0.3829164991304361, 0.38904584784399715, 0.3952010706699122, 0.40141167707527553, 0.4076406064458619, 0.41392757126199775, 0.42024900484196887, 0.42661718604933935, 0.43300326025434505, 0.4394265674886671, 0.44587581946717564, 0.4523555022493121, 0.4587843623616399, 0.46533129885727553, 0.47195295167567297, 0.47853691429956674, 0.48514456864493893, 0.49171850476475737, 0.49837677881813425, 0.5050982512493314, 0.511782962131674, 0.5184849998702946, 0.5251539552973192, 0.5318924925218816, 0.5386639158920898, 0.5454188670864487, 0.5521830116228622, 0.5589179147995094, 0.5657008650759494, 0.5724519746154473, 0.5792436969058122, 0.5860338166797263, 0.5928559370716066, 0.599635292234854, 0.6063949297084221, 0.6131688687842304, 0.6199357746842198, 0.6266631449206256, 0.6334155242502003, 0.6401068990022581, 0.646837557448161, 0.6535496503185106, 0.6603066505530489, 0.6669703036168084, 0.6735452171903331, 0.6801794455911154, 0.6867878730662179, 0.6933895843008037, 0.6999401181298747, 0.7064561662803215, 0.7129488644546458, 0.7194095625742722, 0.7258331159447852, 0.7322255582809891, 0.7385189425036516, 0.7448437390251764, 0.751124896413101, 0.757406676939867, 0.76359137955427, 0.769670506823428, 0.775771905721302, 0.7818218677706507, 0.7878299540264223, 0.793772061542188, 0.7996070549571161, 0.8054452538879312, 0.8112147025955926, 0.8169321288688198, 0.8225865276488422, 0.8282150068682793, 0.8337351277032878, 0.8391717567019704, 0.8445639591037963, 0.8498875706607398, 0.8551256581114913, 0.8603098194886113, 0.8654119097168466, 0.8704484045770876, 0.8754081010203634, 0.8802527155209805, 0.8850597041425153, 0.8897481705356116, 0.8943933134870353, 0.8989517322604855, 0.9034584833680375, 0.9078365428653266, 0.912151283139331, 0.9163506954567029, 0.9204618130275797, 0.9244784576434278, 0.92840941947847, 0.9321724709147365, 0.9359263472537556, 0.9395808350999588, 0.9431687759593843, 0.9466184153349088, 0.9499459271003221, 0.9531985871325235, 0.9563485938831963, 0.9594393673367246, 0.9623761638760391, 0.9651674678287936, 0.9679035774460928, 0.9705325685387138, 0.9730155386979992, 0.975433079080398, 0.97779545853243, 0.9799829633513709, 0.9820616022437381, 0.9839767900782519, 0.9858420162107572, 0.9876013334537812, 0.9892366891499487, 0.9907576850641995, 0.9921806849730941, 0.9934697847546617, 0.9946026184102698, 0.995667616321561, 0.9966149212499278, 0.9974779200910426, 0.9981854412190764, 0.9987781621583306, 0.9992532137744635, 0.999611718515574, 0.9998784976611811, 1.0, 0.9999722671158169, 0.9998660725055561, 0.9996415991001858, 0.9993216007774974, 0.9988579136009564, 0.998276296984389, 0.9975792571055898, 0.996765401642741, 0.9957906220316745, 0.9947490167054797, 0.9936171709205989, 0.9923347136092104, 0.9909361241395319, 0.9894552010609607, 0.9878212278709212, 0.9860061047625759, 0.9841547909647387, 0.9821870495598457, 0.9801682554403157, 0.9779621430896469, 0.9756148029532824, 0.9731926255748506, 0.9706593183829223, 0.9680335409417943, 0.9652779748954774, 0.9624026710107069, 0.9594337224592667, 0.9563577518221117, 0.9531493738683302, 0.9498653852809592, 0.9464792546269003, 0.9429845647116729, 0.939386760756916, 0.9356798645026598, 0.9318803154461284, 0.9279856333441378, 0.9239869500581511, 0.9198912157591338, 0.9157606154554869, 0.9114669187849159, 0.9070297231762815, 0.902564155368381, 0.8980075818003381, 0.8933494894594328, 0.8886167220316346, 0.8838539480398108, 0.8789408418503397, 0.8739467816268899, 0.8688155712934883, 0.8636703125293957, 0.8584743294047397, 0.8531659077874221, 0.8477821306096816, 0.8423137810276089, 0.8367852778772101, 0.8312058037134082, 0.8255338879902007, 0.8197952598170609, 0.8139484940192943, 0.8080866240338576, 0.8022177706938173, 0.7962220444818948, 0.7901692391327395, 0.78403938439999, 0.777879769291722, 0.7716904765336773, 0.7654225445415737, 0.7591060678570858, 0.7526806111391396, 0.7462799438922072, 0.7398562505636095, 0.7333610086321912, 0.726824702171521, 0.7202278474054091, 0.713618168569428, 0.7070009138327628, 0.7003173078066547, 0.6936033995890964, 0.6868300366333991, 0.6800651587786685, 0.673262017319257, 0.6664481809786769, 0.6596116726681646, 0.6527487397919055, 0.6458742661179484, 0.6390502269744339, 0.6321365758429139, 0.6252145481939273, 0.6182164493768701, 0.6112911960967047, 0.604401518471268, 0.5974582278417478, 0.5905143667453612, 0.5835705539570701, 0.5766311491306642, 0.5697180630296677, 0.5627874201426462, 0.5558664824000288, 0.5489079483735345, 0.542017629795229, 0.5351476814839287, 0.5282824335503095, 0.5214338412217252, 0.5146301441312652, 0.507817407130329, 0.5009915893113659, 0.4942330947353437, 0.4874998156185002, 0.4808164162297809, 0.47413657503322476, 0.4674293043006186, 0.4608232617507936, 0.4542494906174268, 0.44772445014668205, 0.4412197170323015, 0.43475780553274573, 0.42833289903113403, 0.4219509899797385, 0.4155850962340428, 0.40929781218853, 0.40306878895205245, 0.3968744282154051, 0.390730587895384, 0.3846448176367064, 0.3786059521722409, 0.3725974624138955, 0.3666740819054299, 0.360807517597547, 0.3549897497595715, 0.3492425729094152, 0.34354775025630374, 0.33792450652570755, 0.3323643429470521, 0.32687821291754054, 0.3214471361477907, 0.31610518813680194, 0.31080780151164183, 0.3055815024253763, 0.3004391235598596, 0.2953561390810331, 0.290353495652714, 0.28541923006910863, 0.2805145511699663, 0.2757391723412443, 0.2710386704640096, 0.26639973723612365, 0.26185381375585526, 0.25738844368102826, 0.25299697840313795, 0.24868455930197367, 0.2444926062797457, 0.240335527359591, 0.2362142726489706, 0.23223075357554895, 0.22832879114974522, 0.22450787911818326, 0.22077118407950486, 0.21711547356470037, 0.21354634920223667, 0.21006145383818753, 0.20669108004105352, 0.2033721178795824, 0.2001473736440458, 0.197001652114079, 0.19394345337246935, 0.19089509608598734, 0.18802159599464896, 0.18523943285373878, 0.18253135994725855, 0.1799076996563316, 0.17743441985972785, 0.17497204414076023, 0.1725733066001807, 0.1702910811431645, 0.168095252258056, 0.16597959427174547, 0.16395652402004385, 0.16202583668946363, 0.16017200584862665, 0.1584031838261603, 0.15667476811473574, 0.15508028866683843, 0.15355627585033244, 0.15212545284446344, 0.15077490457924808, 0.1494829498993527, 0.14829504680738825, 0.14723322192338956, 0.1461956738765232, 0.14523860149212192, 0.1443170596989206, 0.1435242388781306, 0.14284171786901534, 0.1421953806733014, 0.14162565471420838, 0.14108389642179836, 0.14067079970249352, 0.1403349271557429, 0.1400630286162553, 0.13986154555408276, 0.13970944257845444, 0.13964910933750296, 0.13970108645472218, 0.13976815074475368, 0.1399031937422175, 0.14010859801206899, 0.14037553667673028, 0.14068433904436123, 0.14108200656199302, 0.14154044770315685, 0.14208963596502192, 0.1426624332501617, 0.14323829481126824, 0.14393517822468124, 0.1446853038986611, 0.1454614558632202, 0.14631851514298322, 0.1472960313014021, 0.1482407550243109, 0.1492364938266984, 0.15027451256461422, 0.15136849815925912, 0.15247500033438005, 0.15366366680724147, 0.15489349414311832, 0.15617643644830334, 0.1574833449156063, 0.15877954923312337, 0.16016780729370933, 0.1615888352595822, 0.16308344370520972, 0.16456169799217213, 0.1660647687431606, 0.16760641727964382, 0.16917669472515168, 0.1707801580264747, 0.17240268984118987, 0.17404634676674136, 0.17571727538378937, 0.17740977094372415, 0.17912598269137656, 0.18085685980055163, 0.18256221423168234, 0.18433201891399728, 0.18611398097538082, 0.18790222835787704, 0.1897057897894089, 0.19154174175962674, 0.1933581422393772, 0.1951820623895702, 0.19700255612475012, 0.19883855349888543, 0.20064990403756447, 0.20249372106515484, 0.20433621889679368, 0.20620020310487802, 0.208033773303293, 0.20987957421404863, 0.21170325166304696, 0.21352183766082686, 0.21526820138091468, 0.21708060870129084, 0.21895523312532916, 0.2207312406450926, 0.22249673527462438, 0.22417376637760503, 0.22592340532248223, 0.22768011295716162, 0.22938724993135737, 0.23107508540786564, 0.2327592955625688, 0.23440328176025238, 0.23602458284643546, 0.23762456969984977, 0.23920068531843566, 0.24071598904179195, 0.24224558310871194, 0.24379499974386146, 0.24525936003173693, 0.2466958064798814, 0.24810317306845925, 0.24948033799246322, 0.25077008847032506, 0.252090750219221, 0.25337494289981927, 0.2546818729361415, 0.255884028086454, 0.25704790001600253, 0.258180073724897, 0.25927533092232335, 0.2603088829900266, 0.26133066568482455, 0.26233789223593856, 0.2632741085762863, 0.26416982133427325, 0.2649729147807985, 0.2657918788523595, 0.26658083467843924, 0.2673065464413475, 0.2679871425515082, 0.26865211566107694, 0.26923761904138077, 0.26976428678748443, 0.27026202531207183, 0.27071336124064965, 0.27106537703282385, 0.27142947756657526, 0.2717647029281354, 0.27202547416213824, 0.2722373227801622, 0.27236911129354, 0.27248679086140715, 0.27256431573362705, 0.2725790140456744, 0.27254376173337763, 0.2724753418202538, 0.2723382605271303, 0.2721236904405579, 0.2718925168074289, 0.27161079938581706, 0.27126799966251175, 0.27088718033665715, 0.2705143563609134, 0.27002537598701826, 0.26948973006345345, 0.2689251447488547, 0.26829339431267735, 0.26760483955137726, 0.26688217000319936, 0.266112574425291, 0.2652554952421117, 0.26439737905953326, 0.2634581022593716, 0.2625067488193307, 0.2615056980528193, 0.26046289009317575, 0.2593638323655553, 0.2582248862541773, 0.25703145738225697, 0.2557926544575928, 0.2544994934083023, 0.2531728653255393, 0.25182354774584087, 0.2504064881801682, 0.24894776849579345, 0.24747892765109036, 0.24593444394663716, 0.2443002148973526, 0.2426857506374376, 0.24103425932355674, 0.23933894018397806, 0.2376048425500592, 0.23589365658419642, 0.23407664010845908, 0.23216569607187898, 0.23029064425176976, 0.22837981574593375, 0.22642337232683482, 0.22444507555833698, 0.22244625160223475, 0.2203999468574873, 0.21832266692164295, 0.21626184360474512, 0.214119286997478, 0.21190675051480812, 0.20971869331900078, 0.20750340065053252, 0.20525465110633723, 0.20298862571473553, 0.20069182058707108, 0.1983779328309653, 0.19604089179817005, 0.19369247894571262, 0.19131085800227846, 0.18897543868575462, 0.18654745439669773, 0.1841055029838185, 0.18164878278676316, 0.1791802943187534, 0.17668003838633417, 0.17418923709570658, 0.17168592865968427, 0.16917691778661845, 0.16665035886342155, 0.1641094062158107, 0.16156505507561378, 0.15901251107386366, 0.1564741815601136, 0.15390527083372343, 0.15130346287341834, 0.1487304675226274, 0.14615317117720408, 0.1435702204119999, 0.14098771967384066, 0.13845043794950546, 0.1358603521321064, 0.13327355550448408, 0.13062617830249085, 0.12805602005037775, 0.12554482767226172, 0.12297192756952674, 0.12040630063077006, 0.1178139978322041, 0.11526937547254873, 0.11278116482694409, 0.11024625384270825, 0.10772353992057108, 0.10518373886481351, 0.10269094299721555, 0.10023315881390159, 0.09776301498782441, 0.09530821454520791, 0.09284912516750272, 0.09042960033948225, 0.08803228619293561, 0.08564533555174444, 0.0832766423948304, 0.08096877360398613, 0.07863359369602073, 0.07632605254857704, 0.07403638204227558, 0.07177065022310675, 0.06957703421184064, 0.0673543760546447, 0.06517753452743869, 0.06300849693055696, 0.060868592189856935, 0.05875190154210207, 0.056671240297148845, 0.05462688540360185, 0.05260386788111862, 0.05061096622682631, 0.04868309228573373, 0.04674690365959944, 0.04490699247772685, 0.043028833780009546, 0.04118741179452201, 0.03939552863007231, 0.037625013207989055, 0.03593783414768336, 0.03423477018859612, 0.03257080958788957, 0.03094913684915904, 0.029361841146010214, 0.027823710069719627, 0.026311740645485842, 0.024838571957167762, 0.023441133090947187, 0.02204066420077843, 0.02070366596224331, 0.019381659111265742, 0.01810132886418051, 0.016929290972368855, 0.015723136148161055, 0.014526006566660936, 0.013413492040602744, 0.012342737003806777, 0.011397248839616753, 0.010399207657649037, 0.009443896463849811, 0.008538299079308805, 0.007677656028010156, 0.00686993256149454, 0.006097038000993353, 0.005402057775914741, 0.004713632249257273, 0.004071118188028139, 0.0035039661227378653, 0.002948352463173567, 0.0024942587006426854, 0.0020244093726781544, 0.001603399429710257, 0.0012280913557354057, 0.0009029273352924843, 0.000641263871116723, 0.0004071106327492281, 0.00021987702317129054, 0.00013764841116832222, 3.5613566769636566e-05, 7.751017974760478e-06, 0.0, 4.139366756141397e-05, 0.00013716420873350542, 0.00027397598013427727, 0.0005323913203741297, 0.0007544332150493031, 0.0010272241139504229, 0.00134620550340507, 0.0017181494735446533, 0.002163166344601794, 0.002627318102376764, 0.003139742913919082, 0.0036914300244833102, 0.00429959434982202, 0.004932365014427931, 0.005635102800919597, 0.006382080415372136, 0.007235312078122306, 0.008062657494191255, 0.008914798999536315, 0.009839428776438003, 0.010809215586734009, 0.01187525836830121, 0.012928120964026336, 0.014028326545697573, 0.015175271932181345, 0.016368419674989254, 0.017641925555500645, 0.01892171003589372, 0.020220876790669737, 0.021597212423020304, 0.02301767412998508, 0.024485566423305988, 0.02599301632770394, 0.02757149717287447, 0.029162351844886622, 0.030797837787164918, 0.03250618616385961, 0.034226052147817196, 0.03596589360375005, 0.03777848556754753, 0.03963366549656337, 0.041541929746946975, 0.043480186747343524, 0.045419126918794066, 0.04744734552668845, 0.049515138114825434, 0.05167036054235015, 0.053811483241468255, 0.05596159271194493, 0.05819142655505241, 0.060461092667318306, 0.0628123395582572, 0.06515621414033551, 0.06749310582173522, 0.0699267187126027, 0.07239875584429858, 0.07496418875190994, 0.07750620248332481, 0.08006945115798732, 0.08269663775980883, 0.08536331868492739, 0.0880620919930215, 0.09080797038832782, 0.09353613046381479, 0.0963657866885423, 0.09923040847208159, 0.10216612758567224, 0.10509700025544273, 0.10806678763725178, 0.11107281277687417, 0.11408409896181392, 0.11716906111897152, 0.12028940701529636, 0.12345837317334056, 0.12664808864703903, 0.12984426655723136, 0.13311030141442604, 0.13641077618344188, 0.13972909285411042, 0.143100891323193, 0.14656138833810053, 0.14999391440857243, 0.15346355015246302, 0.15693648616175332, 0.16048348536557572, 0.16403003733537097, 0.16764974992270376, 0.1713016049110911, 0.1749905830689734, 0.17870668117321215, 0.18244252343045841, 0.18622608155143036, 0.19004182522516397, 0.19388745063793783, 0.19776808537459256, 0.20168211465238944, 0.20562700456689942, 0.20960414504830813, 0.21357764909325438, 0.21762362832800836, 0.22171872400652187, 0.2258224758072739, 0.22995760551400354, 0.23410970638586226, 0.2383091581871058, 0.24250665038297559, 0.24677073680286668, 0.25106323703812394, 0.2553891146005625, 0.2597383412312609, 0.26411067495033935, 0.26851881078525797, 0.2729556478921654, 0.2774319122126267, 0.28192468918406843, 0.28644779588731695, 0.29099849005015505, 0.2955779673770938, 0.300184794792219, 0.304821263280203, 0.3094307636995017, 0.3141298643495704, 0.3188533314493192, 0.3235965561285062, 0.3283698031838631, 0.333168667134104, 0.33799064516562555, 0.342837135356745, 0.3477367314721322, 0.3526283708581071, 0.3574956409889684, 0.36244479657232687, 0.36741610538338654, 0.3724238878923823, 0.37743760489363903, 0.3824430419540469, 0.3875059621392192, 0.39258935115402516, 0.3976991149090429, 0.402822437809731, 0.4079614402627114, 0.41312602627283734, 0.4183102589954551, 0.423538940580592, 0.42875842749183923, 0.43397654189091706, 0.4392384301185275, 0.4445181027942158, 0.44982233225008356, 0.4551354654116815, 0.4604153796830263, 0.465768229855504, 0.4711341752998403, 0.47653936330365726, 0.48192773390392674, 0.48728234432977846, 0.4927042786621119, 0.4981365205489065, 0.5036004121473233, 0.509050019380892, 0.51449734842887, 0.5199698306031636, 0.5254513976193544, 0.5309523467219756, 0.5364493331331852, 0.5419772396591838, 0.5474871755266872, 0.5530053217958737, 0.5584460292957428, 0.5639887703319872, 0.5695790086489972, 0.575117547177081, 0.5806592378779394, 0.5861580186979056, 0.5917096993165291, 0.5972491447553934, 0.6027988432576463, 0.6083456533943298, 0.61391186776136, 0.6194487715566426, 0.6249349094491068, 0.6304711176803509, 0.6360001277569828, 0.6415131678776056, 0.64702753687073, 0.6525602779888182, 0.6580524513277443, 0.6635359556324696, 0.6689848512398006, 0.6744515925380049, 0.6798447126473366, 0.6852930233555616, 0.6907237432830176, 0.6961652392804011, 0.701556169443927, 0.7069347341889615, 0.7122899956047773, 0.7176267849823513, 0.7228904662312113, 0.72819440674001, 0.733492024309607, 0.7387446947290514, 0.7439730026758355, 0.7491367264034179, 0.7543188264326108, 0.759511224190733, 0.764629513300688, 0.7697196380219589, 0.7747017329310342, 0.7797423626942828, 0.7847424693422034, 0.7897117709158756, 0.7946440909080128, 0.7995352804553476, 0.8043923191293306, 0.8091983217561951, 0.8139779510859669, 0.818716294945478, 0.8234090297665833, 0.8280629800289181, 0.832671872516469, 0.8372373926879405, 0.8417572347295028, 0.8462460072454578, 0.8506697468722093, 0.85503270354199, 0.8593616942816703, 0.8636400617460317, 0.867801101832196, 0.8719834682284439, 0.876158605771751, 0.8802193330746686, 0.884224384313952, 0.8881082161722104, 0.8920069172976499, 0.8958300275498705, 0.8996049469904948, 0.9033155410186957, 0.9070221730015902, 0.910594712502056, 0.9140615344769704, 0.917512872440715, 0.9208967090907837, 0.9242062684484854, 0.9274534239399926, 0.9305932481924133, 0.933703664683825, 0.9367400686766155, 0.9397461149147309, 0.9426272554229903, 0.9453849671974276, 0.9481249100707568, 0.9507867760284773, 0.9534201595706385, 0.9559177965462015, 0.9582786661344547, 0.9606287042202647, 0.9628962792897366, 0.9651262758962433, 0.9672216601533837, 0.9691686712931649, 0.9711086006099833, 0.9729614583099839, 0.9747388598589033, 0.9764150456660902, 0.9780037473727973, 0.9795044534902849, 0.9809166460341028, 0.9822816056131944, 0.983509923468377, 0.9846421549347747, 0.9856952306660164, 0.9866059167501796, 0.9874852768304611, 0.9882705232066831, 0.9890152165105277, 0.9896048717617735, 0.990077752884811, 0.9904865418354867, 0.9908009777467932, 0.9910123485826352, 0.9911381014020042, 0.9912134256066552, 0.9911415955208142, 0.9909760779320127, 0.990670937304188, 0.9903221931059468, 0.9898626100401623, 0.9893201182364827, 0.988679184347343, 0.9879423159718336, 0.9871045520269771, 0.9861736149708443, 0.9851394521673855, 0.98400782870405, 0.9827812220713599, 0.98145465995958, 0.9800466198093953, 0.9785242137761421, 0.9769059543512952, 0.9751763668479443, 0.9733685591625181, 0.9714678854809087, 0.9694670222903907, 0.9673705245810885, 0.9651703442554369, 0.9628845984542737, 0.9605216825678714, 0.9580439635705781, 0.9554731084552724, 0.9527963376638738, 0.9500419847626613, 0.9471746455618847, 0.944238072505013, 0.9412088566651274, 0.9381558629000207, 0.9349351224290053, 0.9316279385407502, 0.9282345712366888, 0.9247553589987425, 0.9211584670051092, 0.9175129472445555, 0.913788377670704, 0.9099703861703576, 0.9060683379387284, 0.9020950346502099, 0.898025970005681, 0.8938941040566754, 0.8896621976827237, 0.8853523337278044, 0.8809736655641204, 0.8765092644249056, 0.8718898980130342, 0.8672866067921121, 0.8626056995113798, 0.8578691106881939, 0.8530352645283353, 0.8481130214299571, 0.8431393209415111, 0.8380957750265642, 0.833006597888223, 0.8278250452387262, 0.8225567594392101, 0.81725130442695, 0.8118831736314366, 0.8064909200595856, 0.8009973384122693, 0.7954334019723619, 0.7898308106053802, 0.7841738779565111, 0.7784699889015329, 0.7727078781026967, 0.7668841163175234, 0.7610255231130996, 0.7551194218579975, 0.7492032084308178, 0.7432022690051263, 0.7371545892210448, 0.7310741760898044, 0.7249553224978457, 0.7187517003626293, 0.712566374275472, 0.7063981028662072, 0.700134521675127, 0.6938410857860614, 0.6875144654136381, 0.6811663034101438, 0.6747375287532457, 0.6683465521843787, 0.6619300136445959, 0.6554971496453598, 0.6490347561522891, 0.6425509194359477, 0.6360526318192685, 0.6295389613212157, 0.6230118014336099, 0.6164730264065549, 0.609919715564708, 0.6033638680316871, 0.5968016599023871, 0.5902612165957946, 0.5836884981736921, 0.577090117872122, 0.5705235384297748, 0.5639592899123903, 0.5573597828404382, 0.5508106316199649, 0.5442658223258696, 0.5377299834934223, 0.5312037366229937, 0.5247404307548486, 0.5182328055433907, 0.5117231903626507, 0.5052562074472849, 0.49880930812947, 0.49237218506655794, 0.4859718595896114, 0.4796137362843586, 0.4732614179137485, 0.466937763979568, 0.4606227837550325, 0.4543636940684481, 0.44810910010198957, 0.44191907743237463, 0.4357627755684041, 0.4296647130252539, 0.42357840755683335, 0.41754196866356325, 0.41153656828783874, 0.40557497172680423, 0.3996573516690718, 0.39378760196237295, 0.38791907187883024, 0.3821521437429367, 0.37643305402113136, 0.3707491463037866, 0.3651325073959298, 0.359570127508719, 0.354058534981202, 0.34860209361309114, 0.3432631698040113, 0.3379136384533711, 0.3325862662199577, 0.3273682037932513, 0.3222122446347134, 0.3171052051830032, 0.31207867411540885, 0.30710961491156064, 0.3022144243835314, 0.29738573929068374, 0.29267484410884825, 0.2879761444358433, 0.2832962373692501, 0.2787499802764271, 0.2742743940323425, 0.26988601568636317, 0.26555278532950694, 0.26126171987159186, 0.2570821179502638, 0.2529765402600428, 0.248917243636209, 0.244966035744843, 0.24114953035040118, 0.23734171016624986, 0.23361407511628146, 0.22996217077141012, 0.22639646423666646, 0.22286143680813783, 0.21946406806002636, 0.21614532899350214, 0.2128999173180894, 0.20974112588853594, 0.20666838848456515, 0.20366951206844733, 0.20075199470834784, 0.197893467189695, 0.19514245038248218, 0.19249143272982117, 0.18990012539712015, 0.18739140093607462, 0.1849927832752524, 0.18264587074832, 0.18039267101797415, 0.17821257430161924, 0.1761165755619953, 0.1740493419909003, 0.1721272996491968, 0.17027910257508375, 0.1685174759978258, 0.16683531927722636, 0.16525168881740981, 0.16372583257354587, 0.16226464384490924, 0.16090074899025397, 0.15961536274847202, 0.15841292850543856, 0.15728290498664468, 0.15622931844202323, 0.15525419723890269, 0.15439499345657687, 0.15356732381450894, 0.15281718668746117, 0.15207673925439966, 0.15148724875980454, 0.15096389519292713, 0.1505164256346098, 0.1501387112709473, 0.14989713037195526, 0.14964889397126988, 0.14947246756681073, 0.14936663166236716, 0.14933018218764468, 0.14935715016295237, 0.14945651222404097, 0.1495545614733344, 0.14979238701500255, 0.15008976188602047, 0.15049146970318852, 0.15090033060070837, 0.15138121884028113, 0.1519075729759011, 0.1524923406499936, 0.15311990665338585, 0.1538194642878907, 0.15450948239122117, 0.1553233931186042, 0.15618515389148488, 0.15709884683651007, 0.15805353889369753, 0.15910300022622734, 0.1601421534439981, 0.16122789904667031, 0.16236356407176164, 0.16353754277189456, 0.16470268399819454, 0.1659667125362657, 0.1672674223194061, 0.16864555886055532, 0.17001113176146226, 0.17137182271774137, 0.1728124627846767, 0.17428352178365858, 0.17577904615580833, 0.17730798452697344, 0.17890883175587802, 0.1804838521025816, 0.18208545863958178, 0.18363795642882352, 0.18529718130101422, 0.18702770973392663, 0.18871427056732132, 0.19041937926827002, 0.19215704073644047, 0.19389272878176053, 0.19559791988695824, 0.19736750749339757, 0.19914623415319158, 0.20096156570609192, 0.20275133045667995, 0.20453743803574037, 0.20634126152589297, 0.20814862178954047, 0.2099450155993305, 0.21175701864326849, 0.2135916268478228, 0.2153968048226437, 0.2171995525275726, 0.21895304299155602, 0.22075236350662036, 0.22255200087414898, 0.22433062608833082, 0.2260985022829344, 0.22783777626396817, 0.22958286401267466, 0.23133912422350428, 0.23304967357231693, 0.2347445573283358, 0.23640580462840521, 0.2380677377824996, 0.23970578556259303, 0.24132650461277141, 0.24292459774987574, 0.24453845099434585, 0.24608323155929437, 0.24760333450950617, 0.24909997140774504, 0.2505704502785438, 0.25200160419871204, 0.25341764940865535, 0.2547543558388284, 0.2561148465694552, 0.25744023787539194, 0.25873594437270714, 0.259988687955188, 0.261258677469608, 0.26243096871523736, 0.26356845529864026, 0.2646246575608281, 0.265695043519523, 0.26675362129383434, 0.26773886870249164, 0.26868411574713474, 0.26954915826485004, 0.2704170503415158, 0.2712703229961334, 0.2720451171724507, 0.2727763695566752, 0.27347540931215764, 0.27411625670675077, 0.27463604597376384, 0.2751966976177956, 0.2757072441973717, 0.2761701530314545, 0.27658038636328885, 0.2769825812160096, 0.27728781597061064, 0.27754547279013037, 0.2777408205624535, 0.2779039693571705, 0.2780176379204335, 0.278081641330535, 0.2780958128845145, 0.2780397015873296, 0.2779563545645492, 0.27783479316238463, 0.27764716004846357, 0.2774090725118137, 0.2771121507888671, 0.27677417330275544, 0.2763733319843186, 0.2759351340892711, 0.27544558045867473, 0.27491087838842165, 0.27431856964086065, 0.2736771570736085, 0.27298430832304, 0.2722416593562014, 0.2714900487234012, 0.27064337873040817, 0.2697236656133165, 0.2687867473946382, 0.2678015790469506, 0.2667768170140772, 0.2656950082027118, 0.2645401162640597, 0.26336832606762894, 0.26214891263982026, 0.2609242691315898, 0.259606104897105, 0.258190712711735, 0.2567926545636462, 0.2553487019601045, 0.25391460154709045, 0.2523743274743175, 0.25077811463146954, 0.2491593254072017, 0.24749999847721454, 0.2457660715299688, 0.24403179817374185, 0.24231298518209698, 0.2404912057172587, 0.23863376954725116, 0.23668859690757965, 0.23476795461806507, 0.23283295946935498, 0.2308363921836605, 0.22880610972428653, 0.22672860948149662, 0.2246352108372583, 0.22250385062904207, 0.22034821205001673, 0.2181622160865158, 0.2159839165508338, 0.2137356071341664, 0.2114382027418306, 0.2091432132215316, 0.20682314161622875, 0.2044777668762826, 0.20211060647577955, 0.19974989420874067, 0.1973356743718418, 0.19490284301646837, 0.19239723284874471, 0.18993647149034168, 0.18745761573867778, 0.18495942406048144, 0.18244457489490934, 0.17993937651481914, 0.1773916981218639, 0.17484073895592506, 0.17226967831731557, 0.16968936585116987, 0.1671198121475631, 0.16452129697797935, 0.16192689879534194, 0.1593170828703725, 0.15670395858271374, 0.15408470133440003, 0.15146771979018858, 0.14881376418341727, 0.1461998944201395, 0.1436025416473513, 0.14098480056246132, 0.13836902268127774, 0.13579084327531277, 0.1331776085365222, 0.13055216023763158, 0.12795584238937618, 0.1253667956662173, 0.1227942975723414, 0.12022149001857266, 0.11766873455960218, 0.11511656643710778, 0.11257714349518774, 0.11003094854603157, 0.10752195410333835, 0.105071147505239, 0.10258553845416475, 0.10011834597866971, 0.09763313635176708, 0.09520925756392809, 0.09280595680159176, 0.09041911343931355, 0.08805248951857955, 0.0856938442463666, 0.08337199193073713, 0.08110689119585894, 0.07882583753063091, 0.07657070320704269, 0.07441136395703023, 0.07220112909702507, 0.0699855043748099, 0.06784327627152449, 0.06573078628751672, 0.06370942704257047, 0.06165017238782383, 0.05962556106210545, 0.057635619885115945, 0.055680441675611814, 0.053747038984002085, 0.051863547683688616, 0.05007200134063117, 0.048250879170735526, 0.046468374454179874, 0.04477579497523643, 0.04306395291392186, 0.04136021360627337, 0.03973539862678675, 0.03814976524517704, 0.03661302098199619, 0.03510503789264582, 0.033686301698423717, 0.03225285277087291, 0.03086279294519897, 0.02958282863323669, 0.02827062908698832, 0.027008817311753804, 0.025789233038413198, 0.024615679686604792, 0.023540339425016443, 0.022451184263072913, 0.02140059489845804, 0.02040832115009611, 0.01946260303482085, 0.01861092219941217, 0.01775147142473315, 0.016969249127976312, 0.01620281065143846, 0.01548565054309264, 0.01488768002676811, 0.014258600773027468, 0.013651509217238258, 0.013129027429936858, 0.012655108112136444, 0.012332080495776086