0.016565576105189043, 0.016262003773205566, 0.016002082407053118, 0.015771958753018102, 0.015582392848602404, 0.015429793761437176, 0.015288510680384164, 0.015167089958565994, 0.015057406886517256, 0.014967691424878993, 0.014854206852668578, 0.014790848004972733, 0.014734134107689588, 0.014721334949061075, 0.014670788576909592, 0.014606809620740064, 0.014572053736208993, 0.014542102057003826, 0.014527058711405244, 0.014505372247322233, 0.014400295202086619, 0.014401086355335156, 0.014402829847560023, 0.014467530039524315, 0.014466515145488967, 0.014389009225822544, 0.014413734336247883, 0.014441994882246352, 0.014540996413788, 0.014571342327076645, 0.014548638704690595, 0.014608363095729618, 0.014675814488502775, 0.014746836288038226, 0.014833093977725881, 0.014967488919948873, 0.015069763997629868, 0.015185714115788363, 0.015282676409392626, 0.015431242019245207, 0.015534259191653741, 0.01571659017275839, 0.015909686017890206, 0.016147562882600767, 0.016360877768619365, 0.016599660636007006, 0.016842766199363486, 0.017102642786950964, 0.017308466342088904, 0.017611811962415846, 0.017959323713300827, 0.018287010820575707, 0.01854022132866098, 0.01891389463710367, 0.01930027217384066, 0.019738575738056315, 0.020148757437350926, 0.020614885086514944, 0.021056406325614008, 0.02151883380416751, 0.022012429736927568, 0.02251568753411923, 0.02303057315172904, 0.02357873375975049, 0.024148205644327323, 0.024665461465127395, 0.025287341586422794, 0.025911637707796215, 0.026571535036861868, 0.027249709474089667, 0.02801806955999212, 0.028726040274377373, 0.02938979202964786, 0.030155216610865763, 0.03094123334176104, 0.03176116345949953, 0.032588564390612786, 0.033474559358222175, 0.0343439018677801, 0.035239028498900336, 0.036147305666116174, 0.0370958383943677, 0.038046848322835884, 0.039049191584549815, 0.040076062786466825, 0.041122804025785505, 0.04220062527210753, 0.04329374175278575, 0.04442417703239819, 0.04558030632561895, 0.0467727504343721, 0.04798033037081576, 0.0491976875724618, 0.05046294621422907, 0.05175536977485842, 0.05308555074354105, 0.05443228162416865, 0.055769848985329114, 0.057179569207502064, 0.05861663870948574, 0.06008161890226126, 0.06157502362311546, 0.06308461942261405, 0.0646378502164886, 0.06622008672235521, 0.06787498361307671, 0.06951111314243133, 0.07115960599562159, 0.07286367920149953, 0.0745993010078859, 0.07637172928075317, 0.07817032144719563, 0.07999361443623584, 0.08185791322859132, 0.08375429405389664, 0.08568544190908052, 0.08764608361714848, 0.08963933917167467, 0.09166528993505468, 0.09372400659535744, 0.09584603823829896, 0.09796660202022914, 0.10008876280531342, 0.10228254025878485, 0.10450867918185656, 0.10675964414589467, 0.10905171141916371, 0.11140640624510614, 0.11375898990437218, 0.11614558693527467, 0.11855075433453954, 0.12100671827283192, 0.12348256379676427, 0.12600524782380404, 0.12855967843144991, 0.13113317255688905, 0.13375273929518292, 0.13643381617468658, 0.13911162132216898, 0.14182222609973263, 0.14453488077143745, 0.14731415729942207, 0.15011357596129263, 0.15295472866770213, 0.15582554452495156, 0.15874126556513798, 0.16166943332144895, 0.16458988502045938, 0.16758342534758053, 0.17060473235726414, 0.1736436795746072, 0.17672186040559482, 0.1798525967305069, 0.18298182996406867, 0.18613952223487623, 0.18934058217224525, 0.19255223894139514, 0.19575403682505207, 0.199026505486388, 0.20232406447876966, 0.2056973219541602, 0.20903797704518834, 0.21237026799947087, 0.21576910793338377, 0.21919172725967737, 0.2226885382191097, 0.2261510630628823, 0.2295703506466097, 0.2330914051028755, 0.2366322666549106, 0.24019776112659358, 0.2437767845037857, 0.2473724669938174, 0.25098979563685203, 0.25462532135957877, 0.2583344897379947, 0.26199796293326627, 0.26561527929280343, 0.2693259338930614, 0.273050865805705, 0.2768252643450026, 0.2805730708283339, 0.28433843324347235, 0.28811517276381554, 0.2919055226078186, 0.2956426353242221, 0.2994661986043426, 0.30335066971981556, 0.3071823459580276, 0.3110240140848907, 0.3148621739439801, 0.31872304275277163, 0.3225526895916584, 0.3264314594787887, 0.33031357371967945, 0.3341833707390262, 0.3380727991106333, 0.3420293767579426, 0.3459121996055379, 0.349798900287663, 0.35363251701995385, 0.3575308664413465, 0.3614496911314209, 0.36533981028816714, 0.36922766911918387, 0.373109911135503, 0.3769911135589353, 0.38085219300792755, 0.3847247438622419, 0.3885899068859059, 0.39241139353462884, 0.39626410047872357, 0.4000899566041694, 0.40392088248298397, 0.4077383022388276, 0.41159255749555457, 0.41537506300876315, 0.419107216886041, 0.4228690231622857, 0.4266143858773842, 0.4304061118752454, 0.43410839252089806, 0.4377777912489293, 0.4414508287417852, 0.4451052187307296, 0.4487525943200585, 0.4523648910473735, 0.45592306981479014, 0.4594962488866167, 0.46304428045155693, 0.4665282570868692, 0.47002841484532354, 0.4734988730099771, 0.4769391197930466, 0.4803486005315468, 0.4837419669575026, 0.48708617642601704, 0.4903782746859516, 0.4936606795002659, 0.4969085431463746, 0.5001466199921003, 0.503320205844496, 0.5064408639246373, 0.5095454945131932, 0.512612157803978, 0.515601989032617, 0.5185952689923522, 0.5215436236121749, 0.5244519943652636, 0.5273168761432424, 0.5301834881774893, 0.5329540356794323, 0.5356566209621083, 0.538344308418244, 0.5409657903394944, 0.5435635826717725, 0.5461129427433824, 0.5486133293763142, 0.5510641842278952, 0.5534623944778325, 0.5558127801839116, 0.5581117464049209, 0.5603866663626523, 0.5625775301386129, 0.5647472946222503, 0.5668303201298878, 0.5688618846367698, 0.5707800175332517, 0.5727134500923028, 0.5745917339980121, 0.5764091288593952, 0.578168289087214, 0.5798967828328392, 0.5815347961038033, 0.5830997491269473, 0.5846234484509082, 0.5860872871374767, 0.5874781339160404, 0.5888225881701334, 0.5900798193186743, 0.5913035709533578, 0.5924635160350781, 0.593518929680723, 0.5945561626778642, 0.5955981739489872, 0.5964938932881153, 0.5973276058472311, 0.5981166400938752, 0.5988227557601608, 0.5994107018804725, 0.5999988422307702, 0.6005206301690983, 0.6009303831590314, 0.6013253903015029, 0.6016795498200822, 0.6019338271034405, 0.6021216203166984, 0.6022887454640609, 0.6023380299515897, 0.6023236296101834, 0.6022452502021517, 0.6021026455763048, 0.6018625858760001, 0.6015951501853357, 0.601263705370884, 0.6008630399867214, 0.6003963554975369, 0.5998841616213407, 0.5992834317687533, 0.5985879214016646, 0.5978625210882066, 0.5970712683779287, 0.5961789637310961, 0.5952616178313122, 0.5943258168288318, 0.5932695763809784, 0.5921506224564727, 0.5909056639154242, 0.5896700250817504, 0.5883688757756917, 0.5870030380786032, 0.5855732974064946, 0.5840880302873762, 0.5825317568236443, 0.5808913309203096, 0.5792160054172937, 0.5774793615501815, 0.5756872838332646, 0.5738297463238876, 0.5719414667966631, 0.5699637199554979, 0.5679302546448746, 0.5658390006485181, 0.5636958582558667, 0.561493265534877, 0.5592425985345668, 0.5569384416815065, 0.5545433408735864, 0.5521390110812623, 0.5497293490278162, 0.5472127178421379, 0.5446471987481503, 0.5420308403144288, 0.539369669041303, 0.5366410108994462, 0.5338887955860879, 0.531089721225467, 0.5282269262421422, 0.5253391572834477, 0.5224240998117481, 0.5194450154377012, 0.5164240051764137, 0.5133645263189619, 0.5102621029294042, 0.5071537063632897, 0.5039700283506325, 0.5007510685273012, 0.4974416178272147, 0.49416126844804187, 0.4908523154740305, 0.48749981140814147, 0.4841140096310564, 0.48066049953145445, 0.47721607014355943, 0.473770289541388, 0.4702597476906514, 0.4667218812715028, 0.4631145977581826, 0.4595308411464575, 0.455940955382463, 0.45230316028576617, 0.448642890099948, 0.4449689618738048, 0.4412663472175278, 0.4375858783182461, 0.43384220540023855, 0.4300844930824565, 0.4262982596521177, 0.42251672317060657, 0.41870236721982884, 0.4148994048655693, 0.41108480406925907, 0.40725720377590546, 0.4034231763982157, 0.3995935813528911, 0.39574257684265407, 0.39188634660239985, 0.388025939003861, 0.38416240521206674, 0.3802840946379289, 0.3764190751473377, 0.37255337841801434, 0.36865004946771757, 0.3647912712665772, 0.36096359259463945, 0.3571036024930562, 0.35324872692080184, 0.3494406971327591, 0.3455941364931966, 0.3416870323248511, 0.337871377098165, 0.33406378751097704, 0.33027576797249236, 0.3264869993705038, 0.32268533830456547, 0.31892593319546453, 0.31517982966415603, 0.31151181387007965, 0.3077880337193329, 0.30411017952327074, 0.300424838120527, 0.29676269212773054, 0.29307083807728734, 0.2894632269299621, 0.2858468035772123, 0.2822873905331576, 0.2787498958963556, 0.27524820554554075, 0.2717564325697608, 0.268308460047435, 0.26486739353952615, 0.2614551572552521, 0.2580445213648572, 0.2546956223705405, 0.251424378344732, 0.24812904393945145, 0.24486757181348429, 0.24164294206371623, 0.23845020323731544, 0.23531314631344594, 0.23218899623341313, 0.22910224323844022, 0.22602015234705822, 0.22301327594680198, 0.220058134135411, 0.21712292559043184, 0.21422627081686996, 0.21130509971574155, 0.20849492179886064, 0.20577949253515992, 0.20303548276226324, 0.20033285693033603, 0.19764652785948764, 0.19503083662642132, 0.19242555449042592, 0.18989601498234132, 0.18740662812005, 0.18493012112134577, 0.18252653549415182, 0.18017861712549327, 0.1778546701264244, 0.17557336211848984, 0.17331989191128608, 0.1711270653582538, 0.16900768321132598, 0.1668973277342712, 0.16483240977432406, 0.16288666706783567, 0.16090345667396178, 0.1589343575674597, 0.15705441342351067, 0.1551854502614259, 0.15340290068879608, 0.15166450142068305, 0.15001861732004382, 0.1483626540349547, 0.14670036854917418, 0.14514482519735955, 0.14363255384039755, 0.14217886908525124, 0.14075138371555707, 0.13935033035248942, 0.13801335917065652, 0.13671924961051077, 0.13548318124412265, 0.13427263615206908, 0.13307247588515916, 0.13195264417914, 0.13087377383282287, 0.12989424385455386, 0.1288896850678524, 0.1279646217049726, 0.12704275291159686, 0.12616549971366395, 0.12527605348952886, 0.1244924111147714, 0.1237120815520659, 0.12301036970322367, 0.12234485485515412, 0.12178404378827355, 0.12118191269882089, 0.12054824141333992, 0.12003350296131857, 0.11955278893637185, 0.11914656245955027, 0.11872813709084548, 0.11830972294383245, 0.1179662926599425, 0.11765511470984406, 0.11741137540020348, 0.11715901410239273, 0.11690914813425098, 0.11672583383180818, 0.11657224532245321, 0.11650629821442608, 0.11640318167432932, 0.11632888761359798, 0.11628775409587094, 0.11627574968339943, 0.1162791981005071, 0.1163241681359943, 0.11645823541802391, 0.11654553613196325, 0.116660396220408, 0.11669227089724035, 0.116872252703084, 0.11715890742555016, 0.11736290943143551, 0.11758912906059867, 0.11778569265765056, 0.11805963516757066, 0.1183016064859238, 0.11861371354378893, 0.1189383016508985, 0.11931074047556949, 0.11965512394051082, 0.11996237253531421, 0.12033987114868128, 0.12072684457294552, 0.12116111628856877, 0.12156129638329415, 0.12194156060651766, 0.1223659822764842, 0.12279774146579062, 0.12322615094005568, 0.12367226385052278, 0.12421240089576827, 0.12465693630086552, 0.12511046830648284, 0.12549292994954697, 0.1259705668466582, 0.1264515989592154, 0.12693013293757682, 0.12740865513544955, 0.12794249943906258, 0.12841222581073572, 0.12882490307188363, 0.12930373772367434, 0.12977861435524024, 0.13024395382867052, 0.13071004555754406, 0.1311805119486793, 0.13163323896271906, 0.13207972670213303, 0.13253460755700178, 0.13296485375599504, 0.13342599463770116, 0.13383626118732175, 0.13424001405425126, 0.13460068831799113, 0.13499298495438572, 0.13534600779512157, 0.1357186381798387, 0.13607728758480228, 0.13647500884885197, 0.13679802538891878, 0.13709131520596562, 0.13739192484424462, 0.1376780947032077, 0.137989934231618, 0.13824047939639494, 0.13850271186499244, 0.13872179967373652, 0.13892704494612082, 0.1390387933856288, 0.13922371575918746, 0.13939809069779843, 0.13954026334829012, 0.13966218972289238, 0.13975100660138826, 0.1398335652842973, 0.13986419021954002, 0.13990765224028565, 0.13992782287402025, 0.13999854592526828, 0.1399632674824599, 0.1398152057504224, 0.13975373452953818, 0.13966720727619614, 0.13959151925126195, 0.13945130701648956, 0.13932697679111425, 0.13913739513358855, 0.13892754136424104, 0.1386614541697071, 0.13841442474372462, 0.13812375750658346, 0.13783269353289856, 0.13751721674607145, 0.13721308415396688, 0.13684482806971432, 0.13644450709482098, 0.13603359365380896, 0.13559995896926538, 0.1350877047634225, 0.1346157045309472, 0.1342118941408479, 0.13367686688695757, 0.1331222463586738, 0.13250704491501256, 0.13191743449597074, 0.13132799634063086, 0.13069027561086677, 0.13003149384364465, 0.12934149553379162, 0.1286419329128033, 0.1278725866043827, 0.12713629268317278, 0.12637616602802837, 0.12563346515677495, 0.12482232121094533, 0.12401930256275658, 0.12316517556433879, 0.12229320695144219, 0.12139832625004801, 0.12049139621989952, 0.11946487796940425, 0.11853506032857353, 0.11758197080295416, 0.11664223550091432, 0.11564119684204374, 0.11467010636844031, 0.1136268799636828, 0.1125691545909175, 0.11145896607835498, 0.11037753759573038, 0.1093257489284738, 0.10820690289719403, 0.10707562404902923, 0.10588126399362202, 0.1047320824208019, 0.10354282100262263, 0.10236818835220701, 0.10117879887035339, 0.10003393519364222, 0.09881013836778768, 0.09755187255909013, 0.09631342826968986, 0.09506505149579632, 0.09382250882440961, 0.09255390470707218, 0.09125746052473185, 0.08997679474390186, 0.08868828217810881, 0.08740013331078879, 0.0860967202148462, 0.08478000744184921, 0.08346670844590236, 0.08214831647555144, 0.08081015677533775, 0.07948520896466402, 0.07815346213865246, 0.07682099325566945, 0.07549561449917473, 0.07415637052773107, 0.07281591562267475, 0.07148494916277079, 0.07014239045515756, 0.06884397488373493, 0.0674982936179379, 0.06615686714403801, 0.06480709172553992, 0.06347612770218815, 0.06211865175715496, 0.060799824247343336, 0.059483938029362395, 0.05822241824098906, 0.05690780540280305, 0.05559314929707112, 0.054294816247379245, 0.05300398797745233, 0.05172349480586025, 0.05044824474791284, 0.04912313407822395, 0.04787274884013252, 0.046628321984465135, 0.04540845874497472, 0.044176111551685694, 0.04292000916108085, 0.04171092835118096, 0.04051032949531234, 0.03935454780274552, 0.03816865745922311, 0.037043660636788156, 0.03587723922732603, 0.03472680839061009, 0.03359738411265719, 0.0324781376152837, 0.03135222522500417, 0.030268277006490398, 0.02919929063471085, 0.02816330288709172, 0.027122748403950573, 0.02612178031846608, 0.025111885011656447, 0.024120230557170462, 0.0231442324644527, 0.022189283061151387, 0.021270181344509705, 0.02034917165569589, 0.01944736770566518, 0.018562182485453802, 0.01769900221432959, 0.016870075611926393, 0.016043036942567195, 0.015235979437659987, 0.014466643639262795, 0.013697190372493142, 0.01294611139348535, 0.012218683866363014, 0.011511808999687432, 0.010866091558284056, 0.010195060822211771, 0.009567105285133335, 0.008938679022170784, 0.008333545425462321, 0.0077945049214624895, 0.007229377799568593, 0.006671174704362212, 0.006157130243580694, 0.0056657094606858876, 0.005186461141773723, 0.004740752968238113, 0.0044306955943394025, 0.00401307698999734, 0.0036230318907979103, 0.003307858954955162, 0.0029640565884948267, 0.002614943935988186, 0.002329729080872419, 0.002068460429613947, 0.0017848978143662556, 0.0015758562098239675, 0.0014427786783953558, 0.0012668566202677313, 0.001114243392666256, 0.0010226523821660833, 0.0009106974489612118, 0.0008155249597170185, 0.0007527753511043912, 0.000712937856763196, 0.0007337495768521593, 0.0007338417159868883, 0.0007783205381894292, 0.0008234033852250406, 0.0008926325321725128, 0.0010235195823553298, 0.0011344950962369833, 0.0012422131572532378, 0.0014053851673726634, 0.0015903271228487374, 0.001814489919451272, 0.0020397578752189326, 0.0023707431459013316, 0.0026287760109917073, 0.0029126686740257716, 0.003226525340627182, 0.003558677326502166, 0.0039092904912673586, 0.004288457571475096, 0.004689541278113662, 0.005109488207172712, 0.005553248982979929, 0.006025042091443873, 0.0065083267042205396, 0.0070118213009968825, 0.007659698076779582, 0.00818693500779208, 0.008702387675830108, 0.009285865459641388, 0.009891215172207594, 0.010533034527877773, 0.011178339867921648, 0.011837039429061762, 0.012524783915476971, 0.013232071922383824, 0.014024598044229312, 0.014761573679312495, 0.015561493189708522, 0.016337141739260486, 0.017135918824661717, 0.01796199248419663, 0.01880376184078128, 0.019628434853274687, 0.02051641527763131, 0.021422085720526916, 0.02239609707221214, 0.02333026252761587, 0.02434300580875566, 0.02530957473774784, 0.026298656253520833, 0.02730434420900734, 0.028336733878120007, 0.02935871936861908, 0.030434657633278694, 0.031528094141949785, 0.03262877888789697, 0.03375826506967245, 0.034955316896938496, 0.03611195119892883, 0.03728833963975194, 0.03850956851639075, 0.039721345920439556, 0.041019562731232646, 0.04226337490620244, 0.04353059395202365, 0.04473151421221933, 0.04605456948652705, 0.047414369878379214, 0.04876794754086749, 0.05013958922152028, 0.05151667366875155, 0.05292631255672974, 0.05440695012250502, 0.05584535453891928, 0.057304844866730126, 0.05878521267503374, 0.06028630015508242, 0.06179783199654421, 0.06334134753454516, 0.06490479344137269, 0.06646792313048783, 0.06807405679644107, 0.069694191617859, 0.07133942663946068, 0.0730040392918931, 0.07469597270497481, 0.07639932854132238, 0.07819964270952066, 0.07993506342847435, 0.08169595798117842, 0.08340064014521562, 0.08522169078156584, 0.08708305186572503, 0.08894197973538591, 0.090822964182512, 0.09278979105700616, 0.09470765966764039, 0.09664687068584699, 0.09861798723359318, 0.10061482173142654, 0.10261442771756714, 0.10466539701878141, 0.106783890842011, 0.10887829476721529, 0.11099993020898935, 0.11310805209345434, 0.11528906288680192, 0.11751268013509884, 0.1197414589098176, 0.12199680222778136, 0.1242814755561473, 0.12659031519889152, 0.1289316587300505, 0.1312949426218419, 0.13368642979458423, 0.13610888412869995, 0.13855713982556558, 0.14102682807557537, 0.14353439565338671, 0.14607870079827895, 0.14864385581286826, 0.15123919524084065, 0.1538548153146595, 0.15651259273343, 0.15916266906502527, 0.16188644173224134, 0.16463919116099576, 0.1674520541177863, 0.17026080026577878, 0.1730868006135659, 0.1759627485264535, 0.17887088855160324, 0.18182685453902162, 0.18479859910456553, 0.18776130691534992, 0.1908070335343649, 0.19388490854526688, 0.19703359526413858, 0.20017255918457463, 0.2033600370177606, 0.20656913464684523, 0.209814997079494, 0.21307732013638297, 0.21639936088846445, 0.21976729242199505, 0.22315972349432525, 0.22658887958371646, 0.22997357011969827, 0.23348679327654134, 0.23711127355005204, 0.24068028422003618, 0.24428763956625518, 0.24788248595622067, 0.25157284595048174, 0.25535703840315427, 0.25911118625007895, 0.2629047322396027, 0.2667197144979273, 0.2705937924557826, 0.27448292204655617, 0.2784357370852237, 0.2824251972440261, 0.2864463967593119, 0.2905102845911616, 0.294638912858168, 0.29877297683174076, 0.30294561984644297, 0.30711856867530185, 0.3113727010499429, 0.3156399161276295, 0.31996897558410853, 0.3243329325796711, 0.32875743254493084, 0.333188625815299, 0.3375880796538551, 0.3421015327796928, 0.34664770351231167, 0.35123966640508164, 0.355850688683128, 0.36053156191956154, 0.3652066685009243, 0.36991803631294384, 0.3746500465665374, 0.37943472850634186, 0.38428668471530475, 0.3891353904591893, 0.39401958867865877, 0.3988217973761832, 0.40378994216619646, 0.40886398185892586, 0.4138767819789569, 0.41892172052585847, 0.42395002232572215, 0.4290638212569943, 0.43418517013007035, 0.43935712837254987, 0.44455543311322293, 0.4497799625406616, 0.45503052021430135, 0.46037544135920566, 0.4656685250771177, 0.4709905103971273, 0.47631754230584655, 0.4816972772470459, 0.4870229603235055, 0.4924613236470186, 0.49791846218446195, 0.5034069386341432, 0.508899508875753, 0.5143676907136273, 0.5199028407589942, 0.5254533353115802, 0.531016383246973, 0.5365970463815193, 0.5421664892662562, 0.547778260854918, 0.5534017659806101, 0.5590772466701469, 0.5647177654803782, 0.5703886109309896, 0.5760509985455515, 0.5817249733529081, 0.5873560302172973, 0.5930564766372719, 0.5987646071804551, 0.6044742973793175, 0.6101877761815159, 0.6158737096937766, 0.6215960436920904, 0.6273101760259756, 0.6330316003489102, 0.6387505266740127, 0.6444611026939826, 0.6501733050139541, 0.6558268876383652, 0.6615344199990346, 0.6672318704123076, 0.6729390150998272, 0.6786119908285819, 0.6842461620982863, 0.6898999974335371, 0.6955394388736996, 0.7011357141341228, 0.70674736462695, 0.7123886680867785, 0.7179562003707364, 0.7235062031236099, 0.7290450004280523, 0.7345550766686526, 0.7400263456835099, 0.7454952451264464, 0.7509393652991839, 0.7563676389443486, 0.7617572123578402, 0.7670985247926886, 0.7724334549532956, 0.7777366268135826, 0.7830195724326329, 0.7882540913328921, 0.7933701622815532, 0.7985447627607292, 0.803677433214386, 0.8087446767826403, 0.813794409166583, 0.8188089733278717, 0.8237661013310602, 0.8286770769923981, 0.8335689638722777, 0.8383813974394156, 0.8431032574857844, 0.8478251503356994, 0.8524947540878942, 0.8571721479136413, 0.8617267253350582, 0.8661915077347399, 0.8706460379055646, 0.8750437843807994, 0.8794268173727623, 0.8837021632567094, 0.8878689554365085, 0.8920337717499681, 0.8961350892475196, 0.9001388982275325, 0.9041144441758735, 0.9080267522384193, 0.9118642814497289, 0.9156322709201699, 0.9193273400469435, 0.9229540328843923, 0.9264779826162839, 0.9299631581175155, 0.9333726306738496, 0.9366956020288326, 0.9399530139920679, 0.9431677216672616, 0.9462634492198052, 0.9492815955343883, 0.9521881579069779, 0.9550524171802451, 0.9578851938127924, 0.960577784783505, 0.9631896221155662, 0.9656459493957678, 0.968102417972037, 0.9705090241957393, 0.9727843815526892, 0.9749731824928803, 0.9770594754034598, 0.9790749882052614, 0.9810315139387249, 0.9828636952782878, 0.9846070696640842, 0.9862176914869537, 0.9877866960979538, 0.9892572542223057, 0.9906398884922718, 0.9919283030056651, 0.993134955033018, 0.9942325820529213, 0.9952588256730964, 0.9961647154037006, 0.9969286919033279, 0.9976529174630092, 0.998279860294337, 0.9988704849162996, 0.9992951071493938, 0.9996207348601656, 0.9998576646375279, 0.9999994441059362, 1.0, 0.9999562958447884, 0.9997911491340865, 0.9995533684235731, 0.9992160988891073, 0.9987644711686008, 0.9982312612090992, 0.9976140345379195, 0.9968808388966398, 0.9960501474111548, 0.9951527586520508, 0.9941241558851681, 0.9929626077690443, 0.9917492461851771, 0.9904391371566005, 0.9890276827585479, 0.9875261755392658, 0.9859926183571053, 0.9842924864263193, 0.9825014438376167, 0.980586508989196, 0.978618039784265, 0.9765444657431576, 0.9743933250193141, 0.9721501490331967, 0.9698232460462101, 0.9673971107264018, 0.9648941812358409, 0.9622881222568176, 0.9595946622644218, 0.9567737800755091, 0.9539125896499225, 0.9509916745780178, 0.9479526773186053, 0.9448297159705172, 0.9415906020915846, 0.9383064406782387, 0.9349644771354085, 0.9315118746619694, 0.9279798636091133, 0.9243770434957813, 0.9206882082034433, 0.9169056128463658, 0.9130680660309233, 0.9091555567456133, 0.9051667386248357, 0.9011082203958491, 0.896975675082744, 0.8927757571194874, 0.8885067245607434, 0.8841470053306222, 0.879746528060052, 0.8753303807570836, 0.8707920180485715, 0.8661930293620071, 0.8614430287709742, 0.8567376392270386, 0.8520282990556164, 0.8471926853129269, 0.842301787902425, 0.8373950844558327, 0.8323929164892855, 0.8272604468731463, 0.8221716695228136, 0.8170315972752022, 0.811831928273469, 0.8065960978973991, 0.8013646948620945, 0.7960315102581919, 0.7906584464064109, 0.7852113046553119, 0.77976711859974, 0.7743081084360302, 0.7687873738041309, 0.7632336638530492, 0.7576815183243593, 0.7520622225474483, 0.746413826142699, 0.7407430067519906, 0.7350480765383958, 0.7292872179335999, 0.7235536838915332, 0.7177393944068348, 0.7119704191728996, 0.7061794389211062, 0.7004042601888586, 0.6945714046126985, 0.6886996191427727, 0.6828446721665605, 0.6769782369230068, 0.6710971347021027, 0.6652140294488058, 0.6593221892598062, 0.6534288385927807, 0.6475327554993822, 0.6416865220891907, 0.6357838158923134, 0.6298661022149791, 0.6239778643860183, 0.6180963504830556, 0.6121925398292724, 0.606332730375305, 0.6005128177047604, 0.594669671481977, 0.5888410136428517, 0.5829494699482394, 0.5771639125850336, 0.57147388886803, 0.5657085268025158, 0.5599659051966588, 0.5542523082129014, 0.5485581439503435, 0.5428703175720975, 0.5372332379963225, 0.5316240645658757, 0.5260390813355654, 0.5204904427777749, 0.5149582274277252, 0.509476207327121, 0.5040276879456829, 0.498664916984119, 0.4932812352207027, 0.48786187108899853, 0.4825698221286689, 0.4773158836103737, 0.472109235770582, 0.46693516163036425, 0.4617685328865106, 0.4566862955066102, 0.45164764484013487, 0.44668456901694786, 0.441733655172094, 0.43685263003133074, 0.4319993036373786, 0.4271987103865249, 0.4224541925284446, 0.4177611372114808, 0.4130191555588398, 0.4084505015445162, 0.40393271677683174, 0.3994953015827953, 0.3950802587902131, 0.39076007239440136, 0.38645469752895967, 0.38221013248359526, 0.37801677550842644, 0.37389677845056074, 0.3698361027248256, 0.36584073247680937, 0.3619082134343243, 0.3579831895026238, 0.35418502827113435, 0.3504963789499976, 0.34681548373768145, 0.34320023740802125, 0.33958746097561954, 0.3361125352731492, 0.33274128385670726, 0.32938803342755113, 0.32610153810037595, 0.3228795282356277, 0.31972764094704065, 0.31663036696936203, 0.31361490519266616, 0.3106663823706021, 0.30775706762976834, 0.30494656213399784, 0.3022680022113384, 0.29958122742381943, 0.29696459969354283, 0.29436695310767813, 0.2918959978280096, 0.2894836796978735, 0.2871462762621408, 0.28487479148661143, 0.28270228512524465, 0.2805584980725885, 0.27850782298232907, 0.2764958452758696, 0.27455221143724867, 0.27260008290570953, 0.27080093671648126, 0.2690665799220877, 0.2673916313855601, 0.26577904394432883, 0.2641905658802627, 0.2627070360506223, 0.2613009114990344, 0.25993436617164095, 0.25862833675792357, 0.25741807391284144, 0.2562275624900004, 0.2551416291702176, 0.2540676627080267, 0.2530229363442816, 0.2520765531891806, 0.2511883540291822, 0.2503295846118782, 0.2495588599336545, 0.2488982016702975, 0.24822814059233994, 0.24761413037358476, 0.2470550394986238, 0.24654975922700606, 0.24601335566139163, 0.24562304535314924, 0.24527861701215634, 0.24501780593943467, 0.244759120169187, 0.24453694515091853, 0.24437200175507484, 0.2442513613988527, 0.24417163565436484, 0.244137351433851, 0.2441750912154861, 0.2442191168492365, 0.24430455311522928, 0.24438192794591915, 0.2445527044567278, 0.24472304455913318, 0.24496780026983045, 0.2452440787625044, 0.24557162425501766, 0.24590656246812498, 0.24626967278801495, 0.24666542032724398, 0.24708983117185201, 0.24756225401060075, 0.24803846211432642, 0.24858973684240382, 0.24911221237531234, 0.24966176337772766, 0.25015802879323634, 0.2507669456972293, 0.25139387112086803, 0.25203797935697425, 0.252698404920564, 0.25343014335524394, 0.2541134028909177, 0.2548133252513961, 0.25552847867146955, 0.2562574668755121, 0.25694811177245014, 0.25770713529440037, 0.25850363088816364, 0.25927189720256005, 0.2600470950811979, 0.26078233001721035, 0.26157370134912644, 0.2623913958117693, 0.2631806268822627, 0.26397064699140854, 0.26481886623937545, 0.26559999528409556, 0.2663414626199242, 0.2671282203296419, 0.2679107661993441, 0.26862199655393815, 0.2694013508348782, 0.27016461013917964, 0.2709221054572294, 0.2716673004440461, 0.27243523302044936, 0.2731496875674798, 0.2739156305199086, 0.27459705885305036, 0.27526816009366023, 0.2758207949611135, 0.27648052337077345, 0.27712494843368446, 0.2777428998472069, 0.2783399748225365, 0.27896141333302427, 0.2795094434789538, 0.28004522261831116, 0.28055160802399537, 0.2810367090042363, 0.28143607081059324, 0.2818838617340637, 0.28231934700510974, 0.28270978982166656, 0.28307286660622033, 0.28342332285868954, 0.28372823788362245, 0.283959398878932, 0.2842134254132706, 0.2844356231003783, 0.28464609160519916, 0.2848013560912852, 0.28493280064019744, 0.2850237618633283, 0.285082805675371, 0.28516024720120275, 0.2851475510489151, 0.2850560733976314, 0.28498761660256233, 0.2848843157522017, 0.2847992035619802, 0.284618514963261, 0.2843593208085081, 0.28411816608049856, 0.2838403348582599, 0.28350530113089817, 0.28315610261470997, 0.2827634535982163, 0.28233817217412954, 0.2818742588432101, 0.2814225783567781, 0.280875122762895, 0.28023613289738564, 0.2796241071141459, 0.2789726369313856, 0.2783479738470577, 0.2776098315316649, 0.27685937540211264, 0.27604762764267654, 0.27520134230503907, 0.2742565916899469, 0.27334811516402824, 0.27238021792297307, 0.27139644649737177, 0.2703730891741365, 0.2693030135718342, 0.26820290030806476, 0.2671429569861595, 0.26595620776951623, 0.26473628744169064, 0.2634093617906322, 0.26213202584763723, 0.26089080811947696, 0.259529660719263, 0.25813632908902656, 0.25663459621696016, 0.25518661000583204, 0.2537734964747998, 0.25224476684124264, 0.250685309358932, 0.2490266887061626, 0.24741499380803997, 0.24576936325325946, 0.24409065383574075, 0.24237969398527742, 0.24064490967745986, 0.23887087519278724, 0.23707499074873314, 0.2352417358129111, 0.23338080657094595, 0.23151314658637626, 0.22959615720636747, 0.22765196353266035, 0.22568644070465754, 0.22369708375448144, 0.22165903077038948, 0.21962687578934162, 0.21759910801192814, 0.2155171073484975, 0.21341472646185533, 0.21127475166111495, 0.20913559638665732, 0.20697176268318737, 0.20479483413564922, 0.20259958014056975, 0.20039444307762522, 0.19816403092012555, 0.19591562952017205, 0.19365539053980166, 0.1913810638039191, 0.18909851079880452, 0.1867977084314514, 0.18449307273986917, 0.18216914159141012, 0.1798356819308236, 0.17744765880388663, 0.17510303292258086, 0.17278147506437633, 0.17041385147259655, 0.16804028709037896, 0.16568695643178605, 0.1633006024585021, 0.1608866363546996, 0.15849965608242858, 0.15611021347104073, 0.15375470466378535, 0.15135831322367801, 0.14896138010590804, 0.14656983559121123, 0.1441812338178342, 0.1417733147536407, 0.1393953311179129, 0.13701072556231572, 0.13464195546373126, 0.13227783955630773, 0.12991674627467747, 0.12756496772373246, 0.1252762661971615, 0.12293265484832468, 0.12060108789913765, 0.11822605461937777, 0.11592683826721768, 0.11359968318852842, 0.11132656398603116, 0.10906077343082543, 0.10680889278011986, 0.10456902955817558, 0.1024057736042597, 0.10018506920593657, 0.09798552973991735, 0.09580215026405604, 0.09363835043196567, 0.09143102089779906, 0.08931565340040987, 0.0872912505105053, 0.08520208881741657, 0.08313620084955295, 0.08105064992085162, 0.07903756375026605, 0.07706903434473093, 0.07509710580077522, 0.07314946005481439, 0.07119349777739309, 0.06929988192173961, 0.06747316918343564, 0.06562219734011379, 0.06379868947462623, 0.06198004049928228, 0.060215145095484535, 0.05845691251011733, 0.0567490287181417, 0.055067900494791086, 0.053381084491090004, 0.05175936196103176, 0.05024548489258443, 0.04866730355000392, 0.04712163527359672, 0.04553729513641911, 0.04406553921283104, 0.04265018748899208, 0.04123239856118401, 0.039845754128731856, 0.03849050775973197, 0.03716689144886912, 0.035872575574308514, 0.03461315374077622, 0.033385792592330266, 0.032157634941545665, 0.03099906733424059, 0.029866079185802315, 0.02876985164961905, 0.027704698718848876, 0.026653150310580187, 0.025653290026762445, 0.02468176262722315, 0.02374428763817424, 0.022838118916917716, 0.021953318494723713, 0.021111670009310232, 0.02031144265814208, 0.019531187301813063, 0.018783032844814987, 0.018079664898985506, 0.017394018678594025, 0.01680455399328335, 0.016175991005184926, 0.015583219293524683, 0.014989920673207379, 0.014471036898232119, 0.013986393944805189, 0.013530264738018069, 0.01310532966102207, 0.012718865504837263, 0.012354319486948937, 0.01201781974729091, 0.011714361677826843, 0.011440538849974551, 0.011213758984150324, 0.010995825600373628, 0.01072862926451909, 0.010579130808613628, 0.0104536792262686, 0.010367654823695274, 0.01028870823998653, 0.01031617452701311, 0.010276990106698042, 0.010267087507486441, 0.010277942633678164, 0.010324911158444723, 0.01031940775594143, 0.010428208328882738, 0.010557488941378585, 0.010735171810518503, 0.010901742509072835, 0.011138387470596535, 0.01134204340295156, 0.01156936901029333, 0.011809369562158696, 0.012082857917227609, 0.012346558845661222, 0.012664645300969666, 0.013000415973260402, 0.01331791060469243, 0.013692356800144868, 0.014088882931530586, 0.014491119084504997, 0.014907865260343978, 0.015392154866083875, 0.015830173464803577, 0.016223650433179495, 0.016701404660605945, 0.01719050702134953, 0.017683030711554668, 0.018194840767523472, 0.018729249267463853, 0.01925889472660185, 0.019798416621707435, 0.020352379155712693, 0.0209094439843796, 0.0214547477661577, 0.02203091300187612, 0.022613298596463934, 0.02318367406226306, 0.023779389645187707, 0.024394168255819432, 0.024995228977161582, 0.025600201416196663, 0.026211076641958046, 0.02682189182950889, 0.027445245901318048, 0.028058932155747472, 0.028674370478029083, 0.029290879363758543, 0.029907787150530895, 0.03050918756328288, 0.031126844930513854, 0.03174208954330843, 0.0323849003764922, 0.0329899294734556, 0.03365114985837614, 0.034243532724108385, 0.03483544686668834, 0.035400306632519474, 0.03599104551873258, 0.03657406051184008, 0.03715401263083648, 0.037727194746224366, 0.03822436059589567, 0.03879076780821498, 0.03943617150126388, 0.03996606286735093, 0.040488551690385184, 0.04094945290598524, 0.04146145050389511, 0.04196580810776028, 0.04245147449663214, 0.04292420304881319, 0.04338622947280604, 0.043831844153334715, 0.04430693651344561, 0.04471933216443138, 0.04511978441086641, 0.04545681083797287, 0.04583784589266493, 0.04618697724117222, 0.0465364934948789, 0.046868225813546306, 0.04723295867813689, 0.04752258261694763, 0.047774246247261516, 0.04803607121983947, 0.04828054872501998, 0.04856078351484886, 0.04876307577622866, 0.04898585810121503, 0.04915283874187756, 0.0493054908890667, 0.04935661025859954, 0.04948915885977276, 0.049668931244396364, 0.049750172145233744, 0.049814104850494624, 0.049931402603712455, 0.04995037668234715, 0.049952252856176375, 0.04994154723866952, 0.04991448269738006, 0.049811973702284476, 0.049757725966821396, 0.04972535291761248, 0.049623079360272174, 0.049502064329367094, 0.049339184559436915, 0.049182859675253585, 0.04909227586195112, 0.04888380938688861, 0.04865970120534965, 0.048404113113262405, 0.04814896789594406, 0.04793427248045175, 0.04763556651361504, 0.04732181712575213, 0.047000092698482585, 0.04665373835137911, 0.04629141792972361, 0.0459128076697119, 0.045550699869560354, 0.04513469967598468, 0.04470377730406133, 0.04428050778247921, 0.043816064592488206, 0.043408508460790876, 0.0429063308255258, 0.042393515794379916, 0.04188467133688131, 0.04134688679139851, 0.040734304523572316, 0.040181618078580825, 0.03961345607692901, 0.03915213304565876, 0.03853870819394883, 0.03786954426811302, 0.03724675354432744, 0.036612851461327346, 0.03597557782542623, 0.03531890771536569, 0.03464955553034586, 0.03397315550148758, 0.0332869873779856, 0.032693032310514215, 0.0319755716493589, 0.03125267233348115, 0.030529374971806078, 0.0298024405302656, 0.029137828782397623, 0.028395069469215946, 0.027642208666837222, 0.026900496120822487, 0.02615768910696186, 0.025413767161454385, 0.024668808764537913, 0.02399920269691047, 0.02324311199437373, 0.022490988073497944, 0.02171210469011074, 0.02097118688977803, 0.020204239430474048, 0.01947104769476475, 0.018738977100456293, 0.018044291122925903, 0.017312062702289317, 0.016648600203141264, 0.015919287155844918, 0.015199734338641128, 0.014428988675648747, 0.013736837143133958, 0.01313014049444728, 0.012442188255112762, 0.011766902958462673, 0.01109935525694373, 0.010450583893149273, 0.009799640386307039, 0.009179350377861576, 0.008572146246923918, 0.007988817393815994, 0.0074084023852004095, 0.006894403160082652, 0.006339368425744525, 0.005804016228314082, 0.005352103024525152, 0.004848866022575839, 0.004273236315775045, 0.003830423980080072, 0.0034062704808651883, 0.0030499380187774014, 0.002659652452387359, 0.0022857450303537313, 0.0019448908042343977, 0.0016285789803853917, 0.001395841971422486, 0.0011230316517292142, 0.0008468540936370987, 0.0006377183642264619, 0.00045680700121924713, 0.00036566567540815116, 0.0002352170619576892, 8.227944994874568e-05, 2.584087567056505e-05, 0.0, 7.152751603499468e-05, 0.00010066344798122198, 0.00019926528882526181, 0.00029727223360547406, 0.000433979790621769, 0.0005484345126834753, 0.0007704058657287376, 0.0010889360964501903, 0.0013750858320774942, 0.0017016839465854533, 0.0020537066629607694, 0.002463842383208607, 0.002904217163789157, 0.0033969189966064003, 0.003930423781534087, 0.004573920909408134, 0.005182126326038821, 0.005717336281534428, 0.006433510949635553, 0.007189529795843493, 0.008085590462484065, 0.008912023497668784, 0.009731080896394446, 0.010661733469311985, 0.011638031758918617, 0.012698722029419083, 0.013763372320297434, 0.014847145734097797, 0.01601512704219823, 0.017231526999555224, 0.018524815004905736, 0.019836059679613077, 0.021173380294094376, 0.022591033903383947, 0.024059210843461944, 0.025603762820723398, 0.027171083455915516, 0.02875350535135422, 0.030432240652053563, 0.03216239524423447, 0.03398256237765286, 0.03581214483481469, 0.03768137407492917, 0.039622732880876414, 0.04161826544144493, 0.04363005785064161, 0.04573933401130046, 0.0479647124002499, 0.050171585223327604, 0.052435474545008645, 0.05472573943629032, 0.057107077917064035, 0.05957888494223521, 0.062065658206598436, 0.06460957589171598, 0.06717487455437782, 0.06983701383305577, 0.07253343661280937, 0.07530749197324735, 0.07813524097224164, 0.08106773101243583, 0.08399709257044176, 0.08695815011376754, 0.09000462088771383, 0.09310616030897237, 0.09625760079898665, 0.09946964243832972, 0.10281491478254509, 0.1061258314491778, 0.1094954092550376, 0.11286188985220968, 0.1163542147107789, 0.11987927356765823, 0.1234801466631912, 0.12713263182817136, 0.13081891806142365, 0.13457675510009062, 0.13839516336606186, 0.14225252544105824, 0.14616079848898533, 0.15014519616747435, 0.15415146011094946, 0.15818650307847637, 0.16229844577576652, 0.16645973703666422, 0.17062939176440117, 0.17489348963660317, 0.17922643099616095, 0.18357949720622602, 0.18797956842146057, 0.1924440233141512, 0.1969346022215833, 0.20143629428982057, 0.20602409221710044, 0.21065527598486752, 0.21536757615064428, 0.2200795253418067, 0.22480015281629326, 0.22960428197535535, 0.23444903539857112, 0.2393415081761029, 0.2442649288820095, 0.24922517369140434, 0.25422695603445417, 0.2592665605714633, 0.26436868419105647, 0.2694785676085234, 0.27457468947006347, 0.27976412860054056, 0.28498582493943664, 0.2902341424916346, 0.2955192857236937, 0.30084476466635246, 0.3061883260807904, 0.31156130460201004, 0.31697560064788605, 0.32240337263869573, 0.32783084452095257, 0.3333164722110097, 0.3387906538686993, 0.3443282641662214, 0.3498864407806748, 0.3554722616324861, 0.36106890946257314, 0.36671267822686043, 0.3723433554019267, 0.37799316806418715, 0.383610216548737, 0.3893014648401598, 0.3950108071091833, 0.40072674567754163, 0.4064545423217356, 0.41222638866079403, 0.4179711714643741, 0.4236863847407364, 0.42945726075210106, 0.43523451889547865, 0.4409613858712184, 0.44675580742830884, 0.45257360182925854, 0.45836561599839654, 0.46415827993909653, 0.46994564289341434, 0.47573759717699826, 0.4815144777059279, 0.48730235199168265, 0.49308521523228915, 0.49879101506272466, 0.5045700753207596, 0.5103982569908879, 0.5161454459502912, 0.521883204552944, 0.5275875402903215, 0.5333059339890381, 0.5390254302395234, 0.5447126254888041, 0.5503845272777652, 0.5559586609569692, 0.5616067332867128, 0.5672364913128333, 0.5728365893429193, 0.5784124111822714, 0.5840114891386176, 0.5895303679124069, 0.5950252767283112, 0.6004949225260419, 0.6059380192994682, 0.6113253409001947, 0.6167150481257306, 0.622022016041803, 0.6273532738958965, 0.6326476873336941, 0.637950340904523, 0.6431632746758148, 0.6483169389782422, 0.6534587778044573, 0.6585605737575617, 0.6635527399233526, 0.6685801467067877, 0.6736114691438554, 0.6785381778393497, 0.6834198137704243, 0.688194373562302, 0.6929904892982924, 0.6977070644641572, 0.7024029777024751, 0.7070445657335197, 0.7116161420153249, 0.716149606312775, 0.7206670013035157, 0.7250813676638109, 0.7294401990563667, 0.733709504310327, 0.737958550420774, 0.7421625502183973, 0.7462883799301445, 0.750353328527676, 0.7543615910005159, 0.7583014702042508, 0.7621577555579696, 0.7659727348706663, 0.7697214457429702, 0.773400594958889, 0.7770148240026419, 0.7805552801543933, 0.7840320202311791, 0.7874382842585896, 0.7907911480149226, 0.7940520810263505, 0.7972185379828142, 0.8003382929330937, 0.8033834772642701, 0.8063407669036115, 0.8092365557379666, 0.8121060190325178, 0.8148405930326947, 0.8174998547165286, 0.8200879603649318, 0.8225932305306151, 0.8250386343694953, 0.8273855333660644, 0.8296541896908642, 0.8318056264701811, 0.833920081232573, 0.835893303289125, 0.8378491712198244, 0.83971820879522, 0.8415538840864712, 0.8432428085969277, 0.8448049170309986, 0.8463316262270054, 0.8477714554545602, 0.8491396195967046, 0.8504036555876089, 0.8515866124347419, 0.8526774926184163, 0.8536821221157236, 0.8546358577927332, 0.8554628650588197, 0.8561288070956677, 0.8567953194501325, 0.8573718729042336, 0.8579349618396844, 0.8583227495638727, 0.8586001889587394, 0.8588209001347012, 0.8589544928083631, 0.8589348262753138, 0.8589023199825038, 0.858778832782418, 0.8585649020131214, 0.8582610270814831, 0.8578956235191134, 0.8574097021471494, 0.8568748437146111, 0.8562101851619772, 0.8554609882298599, 0.8545966671600873, 0.8536820130600352, 0.8526809817856434, 0.8515938788392756, 0.8504210265075179, 0.8491526015176942, 0.8478105724046505, 0.8463705931753087, 0.8448601539169451, 0.8432647171579072, 0.8415747176434885, 0.8398123626289441, 0.8380119644765093, 0.8360769562742719, 0.8340620974937892, 0.8319041766815988, 0.8297386144821469, 0.8275008550401584, 0.8251702344738479, 0.822759693673654, 0.8203310313109728, 0.8177553970612902, 0.8150853867920306, 0.8123645434266693, 0.8095692136557656, 0.8066212391756715, 0.8036887429252599, 0.800768179701891, 0.7976717888520574, 0.7945060164851776, 0.7912358210227957, 0.7879374214522414, 0.7845770054377846, 0.7811393257700224, 0.7776343643478038, 0.7740884434992427, 0.7704484672226968, 0.7667251027821991, 0.7629623311652319, 0.7591369160009728, 0.7552295332575544, 0.7512844220657278, 0.7472176002230516, 0.7431599429733721, 0.7390405437658797, 0.7348941205937456, 0.7306520619934892, 0.7263143423064408, 0.7219686555938467, 0.7175681671594936, 0.713150002983623, 0.7086400324163857, 0.7040538365418463, 0.6994519874809925, 0.6948025800882246, 0.6901222325456223, 0.6853798790268194, 0.6805643886851601, 0.675741785259876, 0.6708772056460894, 0.6660152810249815, 0.6610655758131252, 0.6561262878198763, 0.65110118683343, 0.6460453995001522, 0.6408986485185855, 0.6357913675117435, 0.6307005507242112, 0.6255249227772046, 0.6203000707260442, 0.6150755893560643, 0.6098254483007242, 0.6045280121505017, 0.5992331468826256, 0.5939201432500127, 0.5885796379434702, 0.5832190662958892