0.06068566143119034, 0.059642144682548005, 0.058553215321952685, 0.05759317125028239, 0.056657078366029914, 0.05571175000919271, 0.054817059314134206, 0.05397764088620061, 0.05310153170919111, 0.05223706002295826, 0.051390942323126354, 0.05054374600228429, 0.04972544822722062, 0.048890068200374545, 0.04806182642156894, 0.047278024007330076, 0.04645713136316423, 0.04557607743539665, 0.04477820362823971, 0.043983068072329594, 0.043309386948047326, 0.04250564762574107, 0.04166576351110108, 0.04088814460972328, 0.04011738491882494, 0.039421283158668274, 0.038656112261506045, 0.037817550244013176, 0.03708523373146287, 0.03635897030622911, 0.035660530208188476, 0.03494555551215059, 0.034303111827784886, 0.03359870601720685, 0.03290780419941039, 0.03209074930003542, 0.031444357695260085, 0.030740161643916467, 0.030114299887757132, 0.02949286184525173, 0.02894929540833474, 0.028332084531204074, 0.027710603184136838, 0.027121387221304815, 0.026544946112582322, 0.025888839716235075, 0.02535151685167741, 0.024946120410508307, 0.024413036214315145, 0.023898425610991487, 0.023330378723049165, 0.022861820299000232, 0.022496576104372414, 0.0220463876502908, 0.02161687173219466, 0.02118668836539557, 0.020800665282862063, 0.020370240010446766, 0.020030436705394863, 0.019706343413667258, 0.01951281098567385, 0.019207579229517345, 0.01877820886174449, 0.018539104581514004, 0.018314865627629875, 0.018191025215924597, 0.017988545261052785, 0.017723651209617143, 0.017576271531527247, 0.017446426785387017, 0.0174575512312865, 0.017349507524654854, 0.01712842193687749, 0.01709073394932808, 0.017071070699444472, 0.01704071326991317, 0.017063440418816248, 0.01726995382674492, 0.017310393414002187, 0.017380689042961167, 0.017454910343092003, 0.017586573366991216, 0.01768185585863523, 0.0178756016867557, 0.0180927529315242, 0.018346526978147648, 0.01861044418560803, 0.018811165616292258, 0.019137938646624116, 0.01948607390719933, 0.01988201381722015, 0.020272759693171206, 0.020655368541851307, 0.021102399318315083, 0.0215743923496631, 0.022160963957675733, 0.02267394553171092, 0.023109058387658504, 0.02370004513517589, 0.024316770181941054, 0.025031977453731334, 0.025693514112525222, 0.02649707636237235, 0.027208844538162094, 0.027958926596903435, 0.02873804418255033, 0.029563488520891797, 0.03034006805936136, 0.031247250901540423, 0.032184649575581245, 0.033224576917962934, 0.034214507150752596, 0.03526521699165831, 0.036322502498602346, 0.0374161926194873, 0.03843173869389918, 0.039611719115723996, 0.04083777817958529, 0.042074687058662526, 0.04334313347286502, 0.04455899738741033, 0.0459026047120339, 0.04739697274935987, 0.048782291442519936, 0.05020453471412689, 0.051621220438524754, 0.053122133133096966, 0.05463172920243755, 0.05620418843417354, 0.05780968080903586, 0.05963045087982639, 0.06128003865402976, 0.06278768021975992, 0.0645478938976034, 0.06633948350269148, 0.06818411662109286, 0.07003726511879318, 0.07186509819280255, 0.07379368498046734, 0.07575310382278198, 0.07790041035006955, 0.07990326278671844, 0.08178214863409436, 0.08388689925491248, 0.08602156059771046, 0.08815282415108855, 0.0903530811223292, 0.09270532806129926, 0.09494925952236909, 0.09723036787530623, 0.0994422540261507, 0.10180916528042201, 0.10437888713791409, 0.10678292993836194, 0.1092265877440535, 0.11159016330368055, 0.11412435071450615, 0.11668803050129668, 0.119281178214707, 0.12190372632684922, 0.12458517659194118, 0.12726242211165065, 0.1299533788399415, 0.13269357587769137, 0.13546255499254123, 0.13819655238040313, 0.14103015239672295, 0.14385413084385973, 0.14674058291226208, 0.1496495493035314, 0.15258128543194519, 0.1555359450948973, 0.15869124548469185, 0.16166939114048873, 0.16468037292059148, 0.1675280216499553, 0.17062460988156553, 0.17372174471917937, 0.17685568382966024, 0.1800065861181197, 0.1832254116584501, 0.18640431682028383, 0.18964984787915865, 0.19286255828334334, 0.1960969343812748, 0.19925051969798668, 0.20253826635538136, 0.20585614316415288, 0.20916810328114852, 0.21249399947415287, 0.21587998986575693, 0.21922670828451638, 0.22264369158437594, 0.22601311643128189, 0.22939912299924248, 0.23275385898599174, 0.23617500147563386, 0.23952594940753905, 0.24297681233779825, 0.24643175862533262, 0.250110593568677, 0.2535453649329231, 0.25700433396880473, 0.2604673679267936, 0.26394248566451856, 0.26726704036978854, 0.27078105288442955, 0.27435201010874966, 0.27785373736753693, 0.28134326196630227, 0.28484672195547445, 0.28834827146735315, 0.29187678695239455, 0.2953685641585315, 0.298862096643804, 0.30234739186776205, 0.30582847480566944, 0.30923667399344784, 0.3127149296582199, 0.31631760853693003, 0.31975648596443645, 0.32319117780467005, 0.326425519833153, 0.3298717642743639, 0.33331108428309697, 0.3367167114705621, 0.3401037372883906, 0.34361584331574613, 0.3469469840643618, 0.35010618119299713, 0.3534336833546984, 0.35673793837616763, 0.36012035074386917, 0.3633648379004282, 0.3664811719253459, 0.36970201549980025, 0.3728961462368599, 0.376092916854698, 0.37922902425049854, 0.3823306071684152, 0.38541493358840057, 0.388471248114049, 0.39147346227688257, 0.39447480402327945, 0.39744026477570626, 0.4003782545890032, 0.403283142627814, 0.4062600433695802, 0.40908342187045965, 0.4118776296176975, 0.4146410893097818, 0.41737230731985026, 0.4200106488788196, 0.42268069382640006, 0.4253788127064944, 0.4279603509223412, 0.430504599328979, 0.4329806616505477, 0.4354502818121263, 0.4376996341983387, 0.44010563283594173, 0.44245735340125913, 0.44487384709932787, 0.44710372324190156, 0.4493169690278676, 0.4514498653029158, 0.4535366778909909, 0.45561449838024903, 0.45760143801599834, 0.4593681907823739, 0.4612823664234581, 0.46313778161316127, 0.46509130620106304, 0.4668103929247545, 0.46844643579498224, 0.47007020292058777, 0.4716405691059223, 0.47313562329668973, 0.47459961291155395, 0.4759772269950923, 0.47733093965232004, 0.4786252586764555, 0.4799657037155641, 0.4811271651562026, 0.48214984023646706, 0.48321250410763045, 0.484214096478706, 0.48498094417634097, 0.4858815778430263, 0.4868164112964078, 0.48756172844017887, 0.48824356226666005, 0.48892111167160535, 0.4894684048085455, 0.4900822985842452, 0.49049239254491, 0.4908482344342675, 0.4910933456323239, 0.49134333621532295, 0.4915235554642109, 0.4916514143445199, 0.4917164071419444, 0.4915235959189939, 0.4914864266720395, 0.49136185949790356, 0.4911782371238387, 0.49092176321094055, 0.4906147660808049, 0.4902133203741691, 0.48994217334528134, 0.4893792380603474, 0.48876020488012917, 0.4878640540272022, 0.4871575874457187, 0.4864518222222313, 0.485594961166363, 0.4846730471461925, 0.48364411859755574, 0.4825984500776542, 0.4814778835657125, 0.48030106828912283, 0.4790586177975373, 0.4778230904955178, 0.4764421903631012, 0.47492962561773244, 0.47343828137802535, 0.4718831495081702, 0.47040870078397856, 0.46870974807547117, 0.4669104438724769, 0.4651091677252844, 0.463250467737154, 0.4614782279207207, 0.459486765947101, 0.4574209709794908, 0.45533391069928797, 0.45319487113830537, 0.45096969688379185, 0.44873016822876005, 0.44641506952770194, 0.4440697121954912, 0.44166949556478824, 0.43930812245996986, 0.43678839522140783, 0.4343352867634738, 0.43170594744165236, 0.42903556243062685, 0.4262430864289861, 0.42349895522080944, 0.4207205515104743, 0.41788144604031185, 0.41499727776095807, 0.4119925089476995, 0.4090297177127866, 0.40607036686077475, 0.40300793440365473, 0.39990383586469336, 0.3967928712656736, 0.393604075238651, 0.3904250122195365, 0.3871575125733772, 0.3838574257717109, 0.3806310013868752, 0.3772539676402496, 0.37385628262172965, 0.370428851390262, 0.36697674752363924, 0.3635170827207297, 0.36001421379586285, 0.3565562912112638, 0.3529998440843855, 0.34942546865987334, 0.34590096903295176, 0.3422827202925844, 0.33867234036485644, 0.3350248774733344, 0.3313655470171845, 0.32771146755198655, 0.324027026911738, 0.3202439206986845, 0.3165515464550506, 0.3128455039770416, 0.30924993587306676, 0.3055054894176337, 0.301733348333028, 0.2979880041200695, 0.2942400947755354, 0.29059633456543754, 0.2868328990369487, 0.28309709544723827, 0.279344262023004, 0.2755998742259769, 0.27185167373008906, 0.26812721742405743, 0.2642683805717859, 0.2605818894966278, 0.2568986654449831, 0.25344088380908414, 0.24974296493215775, 0.24589365638817695, 0.24226196177767523, 0.23864317165979243, 0.2351956978793805, 0.2315885924339208, 0.2280891034380116, 0.2245268305094534, 0.22099742228374863, 0.2173444338998048, 0.2139008938090193, 0.2106174570768234, 0.20720806178467213, 0.2036906841106148, 0.20037173890453783, 0.19708184946012539, 0.1940090666610702, 0.19075949405315454, 0.18743235835554783, 0.18428874717004176, 0.1811839711861453, 0.17814065036017773, 0.17511525926814842, 0.17220614118977734, 0.16926161919107174, 0.1663679583266395, 0.16361463385646904, 0.16081347263143514, 0.15791378365329464, 0.155248473704752, 0.15263270161879008, 0.15016113470935688, 0.14763744642569612, 0.14516049590266572, 0.14275797172316643, 0.14041561745303144, 0.13812163338115654, 0.1359039123692216, 0.133828739803213, 0.13172625445607497, 0.12969252698517508, 0.1276094971450558, 0.1257294607943949, 0.12401438383922855, 0.12224990663549513, 0.12055751635365451, 0.1188531657399189, 0.11731733244754403, 0.11591403694708725, 0.11450967706833237, 0.11318053473744939, 0.11190190794304472, 0.11072844509158625, 0.10960120520116604, 0.10858403258100494, 0.10764276374267984, 0.10684613558085397, 0.10605123301396698, 0.10529673248772076, 0.10467292379853353, 0.10413014557672899, 0.10379600631672385, 0.10340134570033896, 0.10292344577555243, 0.1027306773831498, 0.1026176401754875, 0.10256857614358657, 0.10262052318783739, 0.10295324255316786, 0.10314500005645597, 0.10343180809967176, 0.10380443115446818, 0.10428019609839861, 0.10469625995912889, 0.10537602131973574, 0.1061390644209459, 0.10704131930406105, 0.10796669446557619, 0.10908247716723803, 0.11017300788455507, 0.11135851959180566, 0.11263835053282474, 0.11401191197969952, 0.11547867850730083, 0.11703817905899899, 0.11868998875014193, 0.12025606534716142, 0.12211382671889551, 0.12406977280592008, 0.1260890400318686, 0.12819258748380719, 0.13044875657932778, 0.1327141736177627, 0.13501007967894493, 0.1374621755575397, 0.1400001774827456, 0.14257774798238354, 0.14529393021505463, 0.1480852609429792, 0.15097004589183677, 0.15393847908043232, 0.15707531590777937, 0.16020071337799277, 0.1635415604803371, 0.16682719854614944, 0.17020687177504834, 0.17353069512747035, 0.17711176627979575, 0.18082416822158912, 0.18455965225590878, 0.1883778699887499, 0.19224837411554585, 0.19623328646894636, 0.20030520758403614, 0.2044455360005945, 0.20866362706204505, 0.2128741307980635, 0.21725616182333496, 0.22170887544484225, 0.22623212425107578, 0.23082565220678955, 0.2355229425542469, 0.24025159070274263, 0.24500455243979552, 0.24987988659456203, 0.25482165042478483, 0.2598546423805417, 0.26492423454225505, 0.2700639364689404, 0.27526375007304077, 0.2805276383587112, 0.2859094840699455, 0.2912912254174702, 0.2965886871444226, 0.302115059379729, 0.30769368053766527, 0.31337494034946645, 0.319050412342195, 0.3248894969968303, 0.33065722410410103, 0.3364824977078368, 0.3423463272712794, 0.34828269692530883, 0.35422737397457016, 0.3602685770196233, 0.36635459600961373, 0.3723741384443055, 0.37855973632364015, 0.38470385651962996, 0.39096793307686845, 0.3972613372730773, 0.40364319775704766, 0.40998732350335476, 0.4163337083354512, 0.42274426783411684, 0.4291828694681243, 0.43564433964604166, 0.44213664258665486, 0.44867481764291256, 0.45521274843434434, 0.4617742362207977, 0.46840860209624235, 0.47500644264972125, 0.48163474855168203, 0.48827360587434404, 0.49493112577482096, 0.5015588481046585, 0.5082538185940839, 0.5149929921840901, 0.5217029564473958, 0.5284222556977658, 0.5350856824909704, 0.5418264183059965, 0.5486650018350657, 0.555393368979607, 0.5621253351422202, 0.5686981095602867, 0.5754514942308573, 0.5822484611975934, 0.588971487372934, 0.5956848939837606, 0.6023874317463386, 0.6090778157469061, 0.6157631898121213, 0.622424221930525, 0.6290695505627502, 0.6357104123063573, 0.6423183626406251, 0.6488900221635985, 0.6554597977481342, 0.662006120456636, 0.6685021977877944, 0.6750005791489373, 0.681440221202828, 0.6878828672611228, 0.6942922585055125, 0.7007223563917642, 0.7070551570533417, 0.7131853772677288, 0.7194712093399894, 0.7257110016563374, 0.7319257198644494, 0.7380700616608916, 0.744227797501436, 0.7502722598060928, 0.7562726551671345, 0.7621937762168313, 0.7681062107140562, 0.7739770345367502, 0.7797871679995868, 0.7855454981402211, 0.791132381204209, 0.7967984511174101, 0.8025589354099312, 0.8080807646386006, 0.8134978728072048, 0.8189164505011616, 0.8242747950823375, 0.8295040226339874, 0.834746851302213, 0.8400447310207856, 0.8451361929071368, 0.8501656212243709, 0.854928274654148, 0.8598542735672777, 0.8647781144352616, 0.8695380605217805, 0.874224183984571, 0.8788611702710163, 0.8833943317246256, 0.8878275611393955, 0.8922138664207042, 0.8965222898514962, 0.9007944057550942, 0.9049395362768237, 0.9089900478545293, 0.9129808442485083, 0.9168908880267826, 0.920732020266786, 0.9244764349219164, 0.9280410551664425, 0.9316318863314401, 0.9351330490620409, 0.9386122112810342, 0.9419253896470158, 0.9451398078972362, 0.9482817429614049, 0.951335513562835, 0.9543428776688646, 0.9572133675857045, 0.9598738360714661, 0.9625843065783807, 0.9651989618667126, 0.9676927125193231, 0.9701197508551441, 0.9724967614864647, 0.9747251280608896, 0.9768601323057514, 0.9789692810126155, 0.9809084878974947, 0.9826222595362146, 0.9843977139667516, 0.9860741493915001, 0.9877366878459934, 0.989205893301288, 0.9906879532147019, 0.9919576714360218, 0.993139813140828, 0.9940852371798329, 0.9951078068013901, 0.9960781646913772, 0.9968978724870535, 0.9976224234606081, 0.9982688067871079, 0.9988011385400659, 0.9991295691550458, 0.9994879663848171, 0.9997463248037526, 0.9999436861650471, 1.0, 0.9999357443487079, 0.9998053652741786, 0.9995793201184825, 0.9994359337074553, 0.9989980751654841, 0.9982987984989196, 0.9977150539837937, 0.9970360946165989, 0.9962332312618655, 0.995370307645901, 0.9945189052436378, 0.9934552185071021, 0.9923053080637846, 0.9909423908071423, 0.9896364862618843, 0.9882589253054763, 0.9867660584466208, 0.9851841487041719, 0.9835015267581224, 0.9817461638526422, 0.9798617144709049, 0.977939163535709, 0.9759294976688232, 0.9740159243886146, 0.971812934959738, 0.9695664347297003, 0.9672131595813832, 0.9647879652966954, 0.962184839119021, 0.9596285313165557, 0.9568798046537206, 0.9541825113475211, 0.9514026012781458, 0.9485927667842251, 0.945646901545536, 0.9426690655017944, 0.9395705576167033, 0.9364026213907881, 0.9332422588652223, 0.9299284582232676, 0.9265394850690258, 0.9231026541501435, 0.9196033904898366, 0.9159281120517133, 0.9123203695629086, 0.9087643049092893, 0.9050098084222593, 0.9011986193611147, 0.8971664474562696, 0.8932648288448289, 0.8894390791045542, 0.8853945720354035, 0.8812984622309739, 0.8770585557385682, 0.8728736473667094, 0.8686304197276494, 0.8643396154179182, 0.8599979251361767, 0.8556577849826641, 0.851212888636638, 0.8466571686815011, 0.8421356778788065, 0.8375695377212361, 0.8330027613030709, 0.8283470633039717, 0.8237006067423912, 0.8189656817563781, 0.8141985468952935, 0.8093577693660499, 0.8045342125043908, 0.7996026807502421, 0.7947264224578601, 0.7898167407348252, 0.7849348029613594, 0.7799565538960491, 0.7751187867000645, 0.7700719695097777, 0.7650124440007302, 0.7599147667646109, 0.7548330082009258, 0.7495555233166848, 0.7444696725063233, 0.7393610534045418, 0.7341896022027902, 0.7290473943724779, 0.7238779815525663, 0.7187016365738809, 0.7135105153655328, 0.7083490326405502, 0.703129247501451, 0.6978438671157188, 0.6926202894044216, 0.6873899176143953, 0.6822772904655499, 0.6770233436934877, 0.6717029258277837, 0.6664695794689629, 0.6612389570440014, 0.656101201193711, 0.6508687122204023, 0.6456181867569822, 0.6404131117043778, 0.6352190642470413, 0.6299904055589094, 0.624826990352854, 0.6195943620592996, 0.6144647440592386, 0.6093443901185921, 0.6044170954185913, 0.5992978934229514, 0.5940724506806876, 0.589019750869634, 0.5839849784691171, 0.5789568354735362, 0.5739636449198244, 0.5689155526138691, 0.5639758078897407, 0.5590556636802132, 0.5541950400938624, 0.5493147127661586, 0.5443809463166169, 0.5395658422688755, 0.534775507632022, 0.5300878209218242, 0.5253424911247032, 0.5207875576270273, 0.5160909978509574, 0.5114386478494282, 0.5068469096182622, 0.5022794266105727, 0.4976248274796335, 0.4931616678547847, 0.48873472161263914, 0.48442112321406766, 0.48005992690285326, 0.47574209044220855, 0.47146788625305824, 0.46723762864589985, 0.4629078510324317, 0.45878474958893756, 0.45484670323193804, 0.4507804805877757, 0.44655534220978854, 0.4426121674510882, 0.43870603492108995, 0.4348599734702888, 0.4310307091139822, 0.42731246466550504, 0.4235625393699292, 0.4198620628491232, 0.41618187063793327, 0.41258533896277627, 0.40918588450921317, 0.4056692919218904, 0.4022111757000076, 0.39864163996980667, 0.39531986897506716, 0.39206641676641546, 0.3888372372614545, 0.38565816819328247, 0.3826228327399109, 0.37953385170003945, 0.37634520842660835, 0.3733893436988087, 0.3704808613333193, 0.36762496627532243, 0.3648135132373377, 0.3622129747154325, 0.35948215099491604, 0.3568116257594121, 0.35401864137526945, 0.35148917686563386, 0.349066644943913, 0.34662593270440495, 0.344237757200234, 0.34199104462996605, 0.33969696226182194, 0.3374605672267404, 0.33528112051554265, 0.33315793632835905, 0.3311030655993101, 0.3290889271108734, 0.32710035655045544, 0.3251996839612515, 0.3233513016702175, 0.32153373904493165, 0.3197916472916942, 0.31801086370370135, 0.3163801163594262, 0.314794175501383, 0.31327892266071994, 0.3117807783910221, 0.31030042962224746, 0.308900822211985, 0.30754686229654044, 0.30619212187340356, 0.3049355593689939, 0.30389551933518344, 0.3027034698321214, 0.3015646350219324, 0.3002873145413126, 0.2992749933565008, 0.29846211483217716, 0.2975072824129544, 0.2966008445839612, 0.29553439489565153, 0.2947475801422888, 0.29399848488398816, 0.2932787793331855, 0.29259396018745565, 0.29196971297052654, 0.29135224049960134, 0.2908858105791015, 0.2903273025746484, 0.2898114332810305, 0.2892607405407554, 0.2888358578438237, 0.2884920565841285, 0.28812983386205454, 0.28780361609578586, 0.28763506901535946, 0.2873623671933044, 0.28693503238063617, 0.2867648827089113, 0.2866200244231902, 0.28655533648327086, 0.28645369668145604, 0.2864137044571337, 0.2863626264427531, 0.2863396969620261, 0.28617889003686864, 0.2862299637787086, 0.2863898879441479, 0.2864611242310849, 0.28655391841463257, 0.28670989160779614, 0.2868383962252547, 0.286861833862899, 0.2870489615047082, 0.28724866039971925, 0.2875328265966841, 0.28774843492167734, 0.2880437589475317, 0.2882830072899692, 0.2885403364024534, 0.2886493935706395, 0.2889596440859984, 0.2892282095473438, 0.289554140758388, 0.2898824074298154, 0.29040361666377673, 0.2907131329216701, 0.29096413928255654, 0.2913078993814114, 0.29165782341749724, 0.2921103065754593, 0.29245758609926426, 0.29263194439779955, 0.2930184940954882, 0.2934005935279505, 0.29383746714284903, 0.2942031021440516, 0.2945631257840514, 0.29492580979666544, 0.295285422204747, 0.2956877912064786, 0.2960332685163401, 0.2962957967935263, 0.29664518417660707, 0.2969853463743419, 0.2972609382854024, 0.29758849229026785, 0.29810981298548606, 0.29838414342854924, 0.2986564853560438, 0.2989123115561092, 0.29917691341616254, 0.2993491270890507, 0.2996075085284615, 0.2998507777786838, 0.2999219602784291, 0.30015338521332835, 0.30046524905583943, 0.30063347062883916, 0.3007837308234957, 0.30102141623082873, 0.301121282270499, 0.30108109006295386, 0.3011694211934527, 0.30123505194748634, 0.30138790735937276, 0.3013940304970089, 0.30137911017019847, 0.3013510878134062, 0.30130398954125825, 0.301245412677685, 0.3011565710404416, 0.30093675508366324, 0.3008190759994156, 0.3006727905090552, 0.3004769996559271, 0.3002768682212143, 0.30002637586092706, 0.2997707593189934, 0.2994852104779751, 0.29916158791935005, 0.29881813086808207, 0.2984407951089699, 0.298038780576642, 0.29760723646111986, 0.2972901179860792, 0.2967817034733106, 0.296256352279514, 0.2957039410215509, 0.295128461098986, 0.29461780492054146, 0.2939822557389126, 0.2930850206277299, 0.29243743426727903, 0.2917531890160849, 0.2910754886887501, 0.2903151925217216, 0.2895907164006398, 0.28875844431715697, 0.28789868008576497, 0.28701112664753414, 0.2860955350069616, 0.28498673488187504, 0.2840353530210355, 0.2830461828620875, 0.2821515884220619, 0.28107384344068376, 0.27989709471234847, 0.2787740825206859, 0.2776196414734342, 0.2766499813554741, 0.2754068260095953, 0.27397227481162023, 0.27271376443884277, 0.2714250594351557, 0.2700558213668216, 0.26871439271340647, 0.26728192584347915, 0.2658851401996663, 0.26459433010947564, 0.2631138358341661, 0.2616097855247923, 0.26009471375272525, 0.258541539307269, 0.2568383277426291, 0.25525482091354784, 0.2536409177672266, 0.25218799966013333, 0.25049226906268457, 0.2486274363846706, 0.24691660953660416, 0.24517915137968055, 0.2433270206593552, 0.24154985154434583, 0.23994634784562408, 0.23808616528954793, 0.2362106872063937, 0.2344125198978706, 0.23249344249293288, 0.23043636718824193, 0.22851024043354265, 0.2265642851305248, 0.2244678410977154, 0.2225002262065777, 0.22053225605230073, 0.21851153279274407, 0.21646952096063884, 0.21450887957763698, 0.21241480907851934, 0.21026606866709263, 0.20815273942284862, 0.20602498571700537, 0.20401450593240214, 0.2018430391508932, 0.19953932623642615, 0.1973727248881835, 0.19519282312104932, 0.1929961809465955, 0.19079256359682165, 0.1887046190606151, 0.18646328070388105, 0.18421936499696936, 0.18186684146951104, 0.1796304035734369, 0.17740184685927723, 0.17514606145515393, 0.17288389969035384, 0.17071333440053255, 0.168428170852118, 0.166127215086651, 0.16384633687777306, 0.1615655121020868, 0.1590565295807385, 0.15680535803734744, 0.15458449268724708, 0.15230617678292707, 0.1500224310904934, 0.14792508867516974, 0.14561076638889295, 0.1432635313124327, 0.14097297816323626, 0.13868884037150178, 0.13640707796157542, 0.13413691926657562, 0.13170020894215842, 0.129466066398227, 0.12722977135146474, 0.12508616336349263, 0.12283898910482445, 0.12051095521098217, 0.11829156164515717, 0.11607635490199823, 0.11401889531892458, 0.11179655403422695, 0.10964970578454382, 0.10745219584321018, 0.10527389719541257, 0.10300849675303943, 0.10088041312777221, 0.09890384122153269, 0.09678256664082671, 0.09468224803531594, 0.09243736930712443, 0.09039829226449819, 0.08837807607641864, 0.08635983611683744, 0.08435460313509383, 0.0822575160538752, 0.0802942679003546, 0.07837441879728921, 0.07642758490421898, 0.0744952038506989, 0.07263327467327986, 0.07072578584571815, 0.06889781809304639, 0.06702376408569326, 0.06517395667344263, 0.06322554344909154, 0.06143922942999932, 0.05973753514977893, 0.05797747313102515, 0.05623991388682924, 0.05459274745241952, 0.05289226554796398, 0.051172172303062875, 0.04953105776102793, 0.04791360959122584, 0.046341116901761806, 0.04476874871026107, 0.043196279521679, 0.041677650613684246, 0.04018284333813792, 0.038644394513087446, 0.03720642199490032, 0.035937131723230535, 0.03452243889769407, 0.033138065595375826, 0.031842617846599454, 0.03050964141628477, 0.029119882144478994, 0.027861360796527696, 0.026628284439373345, 0.025534930173984612, 0.024338518355310368, 0.02298383786304227, 0.02187480610601071, 0.02078560102106418, 0.020000528329680488, 0.018917751590518905, 0.017648937055239147, 0.016669145837322704, 0.01571181741633814, 0.014904384280794354, 0.01397748391325328, 0.013233875951557634, 0.012349103791601514, 0.0115026717060271, 0.010549038197135492, 0.009792508556282062, 0.009044771465829347, 0.008341811463433118, 0.007663634459127111, 0.007090763930270269, 0.006452443420254895, 0.0060511042717516774, 0.005445476680372156, 0.004880195245303592, 0.004234746236966423, 0.0037591588935754513, 0.0034175321721346056, 0.002984569088899223, 0.0025849559615941336, 0.0021160156419529723, 0.001792612768678823, 0.0016545633111656245, 0.001360139119327836, 0.001099492199022367, 0.0007783469570684003, 0.0005935260672119432, 0.0005228935907655008, 0.00037751809537742967, 0.0002624163922769515, 0.0002572283628307349, 0.0001904263685450001, 0.0, 1.7634357254979598e-05, 5.728110131287032e-05, 0.00031816109701941476, 0.0003779011933260036, 0.0003577257046596671, 0.0004991847318319872, 0.0006660778541917947, 0.0008794718142396146, 0.001094323958160757, 0.001437102593408873, 0.0016917146396721546, 0.001978014004605389, 0.0023753782857853646, 0.002712039368161157, 0.003116112845346009, 0.0035143278064427106, 0.0039455519701105755, 0.004433891209373683, 0.004924269856427785, 0.0053103833201720504, 0.005879025535842581, 0.006469237047986994, 0.007102488409735141, 0.007734103606027162, 0.008622010988627122, 0.00927158813845883, 0.00995803117115224, 0.010527272576131765, 0.011301555715195564, 0.012239034309668235, 0.013042937150858285, 0.013878397407752707, 0.014812045558251143, 0.015699067135197652, 0.016559507915258856, 0.0175180962312288, 0.01839803038082989, 0.019423779270668327, 0.02046997066614343, 0.021587960653137082, 0.022670364429124092, 0.02375656400966549, 0.024891589088380732, 0.026050497297064983, 0.02716162741919699, 0.02837812031834448, 0.02983511348149877, 0.03106567083733379, 0.03233060138216516, 0.033484944197538155, 0.0348335214014094, 0.036306919639060804, 0.037689686625957584, 0.03910225731934987, 0.040429961905010144, 0.04191526456543766, 0.04351584102168446, 0.04503446095811647, 0.04658176017747717, 0.04803908710817924, 0.04965811789633549, 0.051438244847951384, 0.05308349627570614, 0.05475970442863483, 0.056369143514563035, 0.05811831894864, 0.05990033270074725, 0.0616977231633658, 0.06352097488570962, 0.06538737710015191, 0.06726129099404823, 0.06927724509665847, 0.0711925384085091, 0.0731423773285719, 0.07496525438420171, 0.07700230439172, 0.07909249694824089, 0.0811736926399005, 0.0832816505889853, 0.08537027728253202, 0.08753891392191956, 0.08973290639836493, 0.09195296926758763, 0.09419974510217415, 0.0965034209551103, 0.09880155418209073, 0.10111693728408556, 0.1034767369423012, 0.10586611760595005, 0.10843338828278141, 0.11086397949372326, 0.11317668216907377, 0.11570331426475709, 0.11825794882776287, 0.12096801240234702, 0.12356414997709832, 0.12622647547039442, 0.12889141101513488, 0.13159344887583618, 0.13416694667884185, 0.13696212261623109, 0.13990185463828664, 0.14273522721166904, 0.14560314413492068, 0.14849695797471812, 0.15143451494306492, 0.15425343098105976, 0.15727751083645877, 0.16032669921518253, 0.16341071843673263, 0.16651270528907716, 0.16975364311355082, 0.1729004932488506, 0.1760840377373835, 0.17912214916474725, 0.18240138562660088, 0.18577415324105598, 0.1890978432716619, 0.19245363493112239, 0.19584621523940443, 0.19926698336230778, 0.20281856558702607, 0.2062943369900669, 0.2098095548103634, 0.21333822862558988, 0.21693377774442582, 0.2206756753253693, 0.2243298254229547, 0.2280260675862527, 0.23158143562166691, 0.235381742344309, 0.23918144486405327, 0.24304422398772213, 0.24693569093170376, 0.25083547489580943, 0.25478921964632945, 0.25893745288785563, 0.26293003756840183, 0.26696260573704794, 0.2709962192718297, 0.2751110403115789, 0.2791005956399736, 0.2833063310556722, 0.28753783494276663, 0.29177916227414574, 0.29606711729529117, 0.30046274986105154, 0.3047958652489095, 0.3091620771279605, 0.3134892876704794, 0.3179301890300186, 0.3224714130412409, 0.3269603661291545, 0.33148230630790587, 0.3361256219608549, 0.34070098283228867, 0.34528337646303725, 0.34993460007581734, 0.3546185587091426, 0.3593556356825183, 0.3641001303575263, 0.36881714098396995, 0.37363175785974395, 0.3784731638534748, 0.3832734094467091, 0.38817611317965384, 0.39306708368623255, 0.3980184804148445, 0.4029903994138556, 0.40797045321604153, 0.4129858180467172, 0.41798774026132807, 0.423048278457788, 0.4281274206249164, 0.4331915157915052, 0.43831259433513725, 0.44353097677583414, 0.4486759123314654, 0.45384246830853614, 0.45900453867297913, 0.4642153467844313, 0.4694187402934601, 0.47466811574996365, 0.47993285061524515, 0.48530556154678267, 0.4905878691385063, 0.4958681206573951, 0.5011899452092909, 0.5065270391207184, 0.5118317960378943, 0.5172020989704149, 0.5226199537125753, 0.528003758039145, 0.5333978471818338, 0.538733522748772, 0.5441536882244309, 0.5495603882851409, 0.5549891497911155, 0.5604194504472383, 0.5658212459897215, 0.5712569945058329, 0.5768053214278396, 0.582222986280733, 0.5876445786253267, 0.5928698344610266, 0.5983200881480202, 0.6037208011625316, 0.609153189023441, 0.6145723312221184, 0.620084229585187, 0.6254640999532524, 0.6309045980545321, 0.6362607446920631, 0.6416114875503345, 0.646870581092212, 0.6522163220249997, 0.6574963617437266, 0.6628178110865073, 0.6681197755443261, 0.6734863517175642, 0.6787370600153981, 0.6838824499678704, 0.6891099944701155, 0.694313257975785, 0.6995719522072713, 0.7047144547580847, 0.7097292720771338, 0.7148397827033259, 0.719919478988801, 0.724870497260635, 0.7298990587758957, 0.7349951375892951, 0.7399338629786696, 0.7448401296893934, 0.7496704946823022, 0.7545137436234833, 0.7593186818289549, 0.7640844651597098, 0.7688101994037753, 0.773604924229823, 0.7782338049540596, 0.7826820729336572, 0.7872536268149883, 0.7917173450894858, 0.7961985562604353, 0.8006265647126349, 0.805221073240492, 0.809513997901262, 0.8135830983515406, 0.8178128224622999, 0.8219859010957213, 0.8261821153548011, 0.8302299187921139, 0.8343293960318705, 0.8382542869373104, 0.8421282898365984, 0.8458688715206579, 0.849644907021276, 0.8533002459690939, 0.8569596864544322, 0.8605521018273589, 0.8641065078437626, 0.8675593161608899, 0.870966036979145, 0.8742807817077592, 0.8775276552474325, 0.880549086268824, 0.8836768419332941, 0.8869913253104539, 0.8899261613626158, 0.8927966410225296, 0.8955160706734007, 0.8982624132033737, 0.9008830910038554, 0.9034850820851601, 0.9060074473937982, 0.9084539518733342, 0.9108151239882919, 0.9129305135379693, 0.9151503827163244, 0.9172791212641699, 0.9194655743964144, 0.9213955685134502, 0.9231135446023756, 0.924897512492146, 0.9265916191959773, 0.9282342344710031, 0.929744610924251, 0.9312059563997951, 0.9325370605163483, 0.9337826589114671, 0.9350182821350796, 0.9360814448696307, 0.9369558815089256, 0.9378653164811249, 0.9386836603721386, 0.9394615822975599, 0.9400910431339562, 0.9405262071428018, 0.9409914122413309, 0.9413611270983863, 0.9416738389204028, 0.941848954578885, 0.9418937314029657, 0.9418890796487375, 0.9417899418873653, 0.9416092811330143, 0.9413203576729522, 0.9409764681606142, 0.940496763439485, 0.9399263657331501, 0.9391973984645144, 0.938453622542474, 0.9377079538890843, 0.9367629909092344, 0.9357292354433897, 0.9345894572153122, 0.9333794036637681, 0.9321592790046523, 0.9307582380859916, 0.9292714246288161, 0.9275883686139207, 0.9259425647495382, 0.9242713897482473, 0.9224316762653745, 0.9205041960685667, 0.9183453216054048, 0.916261123265752, 0.9141918214549046, 0.9119050841768989, 0.9095324045873672, 0.9070827187412512, 0.9045385551008648, 0.9017328194849056, 0.8990438123823059, 0.8962620168936903, 0.8934190836853565, 0.8904539548278967, 0.8875599341579634, 0.8844056593589659, 0.8811775823884014, 0.8777996264937618, 0.8744338653079798, 0.8710243724622961, 0.8675001698241056, 0.8639022648905106, 0.8601087223161158, 0.856381164791103, 0.8526937925402545, 0.8487966094609426, 0.8448314459268192, 0.8408836482454376, 0.8367741288753279, 0.8324515111050261, 0.828239827979267, 0.8239593618435729, 0.8197091021924184, 0.8152838331112265, 0.8108129165059272, 0.8062701794043826, 0.8016715095028036, 0.796806256205688, 0.7921250660824956, 0.7874295747454714, 0.7826145888845513, 0.7777427198503205, 0.7728879141445943, 0.7678992271264725, 0.7629228108471627, 0.7578340026190608, 0.7527041145770709, 0.7473732374672349, 0.7421840712871808, 0.7370997890156421, 0.7317989191568112, 0.7264637720103887, 0.7209641420592321, 0.7155798550325019, 0.7101230646888887, 0.7046678991329323, 0.6991764357786507, 0.6936594312846859, 0.688101097241798, 0.6826531391592714, 0.6770207048707617, 0.6713707735959937, 0.6656110220699406, 0.6599401575995553, 0.6544013196069406, 0.6486724356968824, 0.6429352915367061, 0.6370507654779158, 0.6313162770542281, 0.6254786457843757, 0.619728703912172, 0.6139633090936433, 0.608333083177372, 0.6025256648121826, 0.5966296354995619, 0.5908349239891356, 0.5850375812786791, 0.579357901147896, 0.5735458452462185, 0.5675275158194271, 0.5617624143528317, 0.5559962911473653, 0.5503375570915179, 0.5445638594121137, 0.538811085310004, 0.5330626452780588, 0.5273299347106168, 0.5215719692271232, 0.5158800090995128, 0.510383002043084, 0.504704825929472, 0.4990571759651744, 0.49323715466490126, 0.48767677879806587, 0.4821828750024338, 0.4766586424703618, 0.47116113844892504, 0.4656073273184324, 0.46017861924434095, 0.4549033451071611, 0.44951378291279503, 0.44416198988474803, 0.4388826674373631, 0.43360474469217564, 0.4283945236804138, 0.4231986868421135, 0.4180479434315581, 0.41286668787807923, 0.40781741465099897, 0.4028699468535038, 0.3978996577740425, 0.39297783535136843, 0.3879444875565224, 0.38314217458301814, 0.3785634834188847, 0.3738237311368326, 0.3691399411529226, 0.3644405360574223, 0.35987880683831713, 0.35521363800329947, 0.3507788705865273, 0.3463988847771243, 0.3420579058099406, 0.33776795543800026, 0.33372537790655055, 0.32951803341478825, 0.32520406098811516, 0.3211520111991452, 0.31715664153447226, 0.31340959808944596, 0.3095073066380411, 0.3055490396017324, 0.30180407994340175, 0.29812190657653365, 0.2945539259326914, 0.29099279915098697, 0.28740604137807196, 0.28399162700617997, 0.28063960873285787, 0.2773466063354615, 0.27412237123571354, 0.2709287324605656, 0.26783827046023756, 0.2648115124272403, 0.26192956829673764, 0.2590221797328719, 0.2561426321104711, 0.2533806823110204, 0.2506861191540059, 0.2480083308124343, 0.24545535261712695, 0.24306450272639785, 0.24062932711930116, 0.2382652059697293, 0.2359758359043283, 0.2337517092489223, 0.23166078016862873, 0.22956761263880932, 0.22754673596452196, 0.22556754009014823, 0.22369205807327786, 0.22182518990632627, 0.22009228533729794, 0.21842275692551832, 0.21682076508541975, 0.21527719546348764, 0.21382226190203693, 0.21240174947733456, 0.2110453842035954, 0.20972725830590014, 0.20850079991781098, 0.20734390446933615, 0.20623822176566386, 0.2051933556661829, 0.20408613295331332, 0.20317686287397868, 0.20232838220552984, 0.2015230984552425, 0.2007712636862406, 0.20013637000685122, 0.19948342595735225, 0.19883229596827046, 0.1982991244984607, 0.1978180733679438, 0.19756640583558363, 0.1971658796108047, 0.19666107863139662, 0.19640076270491227, 0.19618793899325376, 0.19601789949718307, 0.19589909194891314, 0.19581744460137201, 0.19579031319183177, 0.1958070031508822, 0.19587530002306086, 0.1959764846696011, 0.19606902193725206, 0.19625995240571395, 0.19648832267456023, 0.19691008864318296, 0.19719182219419984, 0.1974756049866958, 0.1978493656506907, 0.19826116588165532, 0.198624921187976, 0.19911907699024875, 0.19977753740900836, 0.20031177746905807, 0.20088111269838357, 0.20133560809705833, 0.20198827694791208, 0.20283152571322635, 0.20350511876658917, 0.20420860892101794, 0.20485543497592207, 0.20562362951945198, 0.20639869508259034, 0.20720661448144273, 0.20803137259949886, 0.20892704429517203, 0.20977576712691398, 0.21048511273774043, 0.21138647468072674, 0.21229340912435465, 0.21329044303024017, 0.2141974912238641, 0.2150339248060875, 0.21596955973724172, 0.2169082704273116, 0.21781577519481227, 0.21876350663696595, 0.21977429945446314, 0.2207128453842305, 0.22165369667699514, 0.22269307224520093, 0.22362302109469115, 0.22456174303315934, 0.22549838227794458, 0.22643617831134485, 0.22740303508048032, 0.22833437383055027, 0.229145237679934, 0.23008577876738442, 0.23101434062646778, 0.2319472882449835, 0.2328480541446277, 0.23373179803538882, 0.23460673432977536, 0.2354670762283571, 0.2363712892927048, 0.237192691640508, 0.2379159552006282, 0.23871973632820867, 0.23950281776572113, 0.2403155196222904, 0.24104943667918113, 0.24180216706906735, 0.24249183364369004, 0.2431625629901812, 0.24375397047841355, 0.24439088362079583, 0.24504876934105568, 0.24562819073504094, 0.24618367217368803, 0.2466593518912113, 0.2471713345956235, 0.2477088017232057, 0.24815452842309882, 0.24857323309146376, 0.24901914301110276, 0.2493746145362451, 0.24957710936951702, 0.24989539752242543, 0.2501784427167853, 0.2503502409492374, 0.25057278321375176, 0.250756079630797, 0.250900755567485, 0.25100733109670464, 0.2511608312759717, 0.2511817095906503, 0.251089914538399, 0.25105587644602034, 0.25098411934975173, 0.251035620431257, 0.2508687769111026, 0.2506822798270445, 0.25045696562203934, 0.25020179705692763, 0.2497550514126267, 0.24945765880699947, 0.24926683314393286, 0.24886840643358815, 0.2484380314709193, 0.24797081203559473, 0.24747517604613944, 0.2467891404684574, 0.2462451496624907, 0.2456578434793957, 0.24507479445817326, 0.24439801263183367, 0.2436622399077013, 0.24291287080247692, 0.24212529869772462, 0.24129585356602282, 0.240434058047427, 0.23953964116250778, 0.23860412131350955, 0.23763299136052096, 0.23657170125140745, 0.23553760920240008, 0.2344999480730324, 0.23338761941642294, 0.23224144153449838, 0.23107881416969314, 0.22986423034925024, 0.22868161280258137, 0.2273963695589976, 0.22608387592730586, 0.22474398291044456, 0.22337662235621744, 0.22204947954188334, 0.22061871744725692, 0.21916451118086, 0.21748348290067582, 0.21600715312768756, 0.21450800103825965, 0.2129606658888729, 0.21156355200514232, 0.20993120277175648, 0.20827994440458678, 0.20649527617206995, 0.2048198801751639, 0.20310171798908155, 0.2013777239551055, 0.19962882242769442, 0.19790682036612534, 0.19610479568318034, 0.19411878934642623, 0.19230013630200601, 0.19045432471663254, 0.18877784880442164, 0.18685873244931467, 0.1847129943737185, 0.18279932596848017, 0.1808626755336119, 0.17911217861047943, 0.17710882917484472, 0.17515432228865654, 0.1731315525356447, 0.1711054773890741, 0.16890648530852428, 0.16689408683460336, 0.16487651214515234, 0.16283710202433277, 0.16078712603428288, 0.15879117124723513, 0.15671541233726496, 0.1546951526112996, 0.15260497419474076, 0.15051544330720698, 0.14824476202091472, 0.14617986857460336, 0.14411860607020155, 0.14203576200440204, 0.13994799090631324, 0.1379709342427965, 0.1358630828913895, 0.13375229831825788, 0.13165684299516997, 0.12956703331149372, 0.12739447226376877, 0.1253285063991646, 0.12339993364489676, 0.12132214850432331, 0.11925637145329235, 0.11717299571066186, 0.11513506353481856, 0.11315000849859737, 0.11112833361727631, 0.10912053430255107, 0.10693642097731453, 0.1049809664146905, 0.10306318274827767, 0.10111295583479142, 0.09917199447300797, 0.09734732835371855, 0.09541528266252959, 0.09342164801886703, 0.0915375007513545, 0.08966801407031884, 0.08799173297117606, 0.08613171977031905, 0.08409581404727301, 0.08231506928073937, 0.08054883099496722, 0.07893788406608447, 0.07718650948936026, 0.07551155121763535, 0.0738048880395912, 0.07212642531906777, 0.07036994621543348, 0.06875994830605259, 0.06709073350590632, 0.06553385109123905, 0.06399487684060305, 0.0625384862420414, 0.06103087386527184, 0.05950155173531707, 0.058049863870366106, 0.056621165302814185, 0.055241563271224405, 0.053857748216258036, 0.05255531516656309, 0.051217664737200824, 0.0499101254340311, 0.04861983917541069, 0.04737365015815638, 0.046143747559314274, 0.044957123491672454, 0.04379878503142632, 0.04275344887174381, 0.0416413308810836, 0.040583719750700034, 0.03953504870178063, 0.03851980775684766, 0.03755852085508046, 0.03660566779254916, 0.03571539054099103, 0.03482414013453281, 0.03396641915707087, 0.03298503657161429, 0.03221219404784281, 0.03155534817308711, 0.030817418031923328, 0.0301091515032248, 0.029586917248597522, 0.028917786079756327, 0.028269793849847073, 0.027677542873014913, 0.027119806737597597, 0.026506816476914233, 0.026026625832231615, 0.025615751958225134, 0.02518430882445668, 0.024782362162541403, 0.024473049001997163, 0.024121164242358956, 0.02380147429456486, 0.02351322083323645, 0.023255721855064145, 0.023108730409712328, 0.02290079261852675, 0.022882949607387244, 0.022721294839351616, 0.022599919121183653, 0.022343257347879678, 0.022318198059912527, 0.022322216950873084, 0.02234624334238122, 0.022395206270884864, 0.02268895343418282, 0.02275966045437853, 0.022706595253860425, 0.022869676689380884, 0.023057162742416395, 0.02332809275819201, 0.023556372862266153, 0.023816099404233064, 0.024097642238381164, 0.024405427787696193, 0.02478542722837364, 0.02513819138259818, 0.025636714702663148, 0.026028345476978916, 0.026452418189070133, 0.026996153760772693, 0.02746923800260059, 0.027873930611342405, 0.028424264361234193, 0.028998566762434178, 0.02967659264592634, 0.03028690221155375, 0.030864836395412435, 0.031535246819161866, 0.03222715739715597, 0.0329951980086194, 0.0337221199757099, 0.03445997623691983, 0.035235052768979674, 0.036031724416770466, 0.037048349435784174, 0.03786178381112697, 0.03868985277247686, 0.03956662099747606, 0.040470397821899984, 0.04123910847067012, 0.042213378004142474, 0.04325709559932015, 0.04425373760866207, 0.045268696384936295, 0.046327235315042924, 0.04737528876038562, 0.04844701613494875, 0.04953314798273179, 0.050638446810478244, 0.05168653159031318, 0.05283909318958067, 0.054187794446345444, 0.05534631853474075, 0.056530152832061795, 0.05767896453247604, 0.05891770044877502, 0.06028122428140867, 0.06154440406053664, 0.06283206722584994, 0.06410087722435782, 0.06543988159851886, 0.06664177965951826, 0.06803905046856946, 0.06944635304515884, 0.07095779173357872, 0.07237642215270436, 0.0738004384407198, 0.07525682414813437, 0.07673058437462132, 0.07820492371065656, 0.07971594211835968, 0.08117607219135872, 0.08272948122134689, 0.08449940642297032, 0.08605487138101266, 0.08763666174786072, 0.08918454058777615, 0.09082355311768721, 0.0925590555574036, 0.09422898402470196, 0.09592326162014482, 0.0976242844892146, 0.099367461615329, 0.10094197361598299, 0.10275234171384309, 0.10457330247900988, 0.10650356518414955, 0.10833754040037734, 0.11011107280291284, 0.11199533199731515, 0.11389554764807827, 0.11596068013201513, 0.11787675150301609, 0.11967577989526486, 0.12166308835137872, 0.12366820154511177, 0.1257300223957252, 0.12776836441467307, 0.12982471998876394, 0.1319084261345094, 0.1340148121973472, 0.13611885506298016, 0.1382748668124238, 0.14049969820959599, 0.14269493891008186, 0.14491611047167444, 0.14701949251725738, 0.14931101888617532, 0.15161652472560863, 0.153946314784209, 0.15629656993674823, 0.15875299067524942, 0.16113668055002667, 0.16362048998053658, 0.16605164562176883, 0.16851532672393324, 0.17104494689790486, 0.1735682045185042, 0.1760021782753218, 0.17860723549240348, 0.18123793312305947, 0.18400493757989184, 0.18667503298398208, 0.18934080792479277, 0.1920828958300466, 0.1948560356956463, 0.19753769251316655, 0.20038886463971692, 0.20342117198048823, 0.20630299222491114, 0.20922047430881052