0.05781408495232011, 0.0571992822966035, 0.05647963387585773, 0.055910235959668535, 0.05543282190418532, 0.05486179485461256, 0.05429925720432934, 0.053725317870175766, 0.05317849084902149, 0.052701009009122286, 0.052153635412426805, 0.05156016515637455, 0.05103185757882124, 0.0505055203412933, 0.05000264802313999, 0.04947687416305994, 0.0488606702221597, 0.04835181606581616, 0.04784003243283321, 0.04732285855473868, 0.04680749447093838, 0.0462877241797539, 0.0457706921349397, 0.045253231668642716, 0.044729625806400525, 0.0442135270958004, 0.043654555195628636, 0.043145545172629945, 0.04263550227222606, 0.04217790000303077, 0.04166116485068582, 0.04115136231843602, 0.04064196743924924, 0.040136721898247275, 0.039629460183967395, 0.0391334247014386, 0.03866614711252319, 0.03817491636673456, 0.0376891817698158, 0.03723055045483241, 0.036752720276418314, 0.03632165415743418, 0.03585130901600879, 0.035389199844753354, 0.034773430211695995, 0.03434679155554684, 0.03407635503885734, 0.03362650216682065, 0.03318531784531638, 0.03270265504628535, 0.03228370259589883, 0.03180109214748623, 0.031400131506826384, 0.03100017098719368, 0.030632901692065794, 0.03023290514544069, 0.02979395509301846, 0.029408673332113437, 0.02902587089485158, 0.028748508051312453, 0.02835924881437667, 0.027917564247242656, 0.027555010656018276, 0.027197788045984054, 0.026783983096378063, 0.02644575389999188, 0.026209156302561855, 0.025863613039467687, 0.025527143561995966, 0.025190136668005913, 0.024872136572489875, 0.024599161202685453, 0.024291900745134275, 0.02399431895546142, 0.02374640606567166, 0.02346205500046297, 0.023061470676553727, 0.022814734330302275, 0.022570904850132353, 0.02237098126033774, 0.022129747325429917, 0.0218488934782738, 0.021627580794301455, 0.0214109020960639, 0.021233520391416946, 0.02102330115005467, 0.020864497187856105, 0.020664810163498762, 0.02047572958947406, 0.020247341888891424, 0.020085040627329145, 0.019948545775698143, 0.01979851292683023, 0.019657202451042223, 0.01946570878108873, 0.019349507298079573, 0.01933515001467418, 0.019218574855465232, 0.019114057592930285, 0.018925039461103372, 0.018855839590604967, 0.01879863240902648, 0.01874078343138385, 0.01869013854436328, 0.01866572041707964, 0.018628282307667627, 0.018597058399305266, 0.018578777667439587, 0.018569883946737576, 0.018598438903825655, 0.018605151887166663, 0.018573493870066675, 0.018608931151490284, 0.018652613589555885, 0.01873587346965628, 0.01879296541772333, 0.01880805337754036, 0.01889328784707846, 0.018986219334844404, 0.019124472610244834, 0.019229172951924528, 0.01930740408720141, 0.01943831353893752, 0.01957779952327482, 0.019788185304933606, 0.019937674148983446, 0.02003467103413133, 0.02021742906336072, 0.020408549003316078, 0.020636204231067875, 0.02084119416673315, 0.021034995475115056, 0.021263724810094982, 0.021501603944917205, 0.021733204418321335, 0.02199159762780975, 0.02225848167496829, 0.0225340148115496, 0.02281832403103199, 0.023182898145271264, 0.0234760044586921, 0.023819363780392146, 0.024133229944352394, 0.02446116002196291, 0.024793101527129952, 0.025148195259225598, 0.02539689341903802, 0.025789558637982064, 0.026186310537580183, 0.0266560272754655, 0.02705401575642327, 0.027514235645011747, 0.02792430890595662, 0.028346470369451506, 0.028764619304462228, 0.02921123505264336, 0.029611625298875035, 0.030084297718134742, 0.0305629113824377, 0.03109733021419565, 0.031582115739860424, 0.03208233798486356, 0.03258450046666113, 0.033095670234175235, 0.033609334732198425, 0.03413841277706414, 0.03469082130194112, 0.035233365025189166, 0.035784212024787126, 0.03634616446562057, 0.03691234215462197, 0.03736820592961649, 0.03796429617041544, 0.03856087824334482, 0.039192803893132296, 0.03978807315905888, 0.040483790527462336, 0.04107549326029949, 0.04167706982076588, 0.042278495933314474, 0.0428989194036919, 0.04346775484055562, 0.044109931017295496, 0.044755264729849906, 0.04544106455062758, 0.04608815699296806, 0.046625744484259914, 0.04729771109978694, 0.04796793224773594, 0.04874256074543046, 0.049397702123297464, 0.05000580866011511, 0.05067857064115067, 0.0513531018831425, 0.05216283340579243, 0.05282388708153434, 0.05338536746752906, 0.05407709528948729, 0.05476952411691706, 0.05546565535604527, 0.056158769246681776, 0.05692689541034053, 0.05761145378343287, 0.058300355056857774, 0.058989705645809506, 0.059685383100579935, 0.060265105760060854, 0.06097910050785753, 0.0616873478380525, 0.06247720752218849, 0.06316424086908717, 0.06388566191096158, 0.06456839798432035, 0.06523996658921678, 0.06592607555866498, 0.06661140530158163, 0.06717441590927864, 0.06787206319270324, 0.06857939291292187, 0.06925737615871724, 0.06992851109634715, 0.07057751448585417, 0.07123756216098408, 0.07203320012307272, 0.07266100966973543, 0.07328997052507737, 0.07389418434886427, 0.07452548092727132, 0.07512877809317299, 0.07575626920723322, 0.0763780268660453, 0.076931650902862, 0.07754883736127495, 0.07825830610164401, 0.07884245944468857, 0.07942258484483201, 0.07992968477711357, 0.08050831331628891, 0.08110815926794732, 0.08166321952479179, 0.08221017532845026, 0.08275183515872109, 0.08328131483364362, 0.08378649194327992, 0.08430007905548191, 0.08480344639280735, 0.08524058194190456, 0.0857301430873738, 0.08622453036360225, 0.08668443355123463, 0.08713210753536815, 0.08755516459102652, 0.08798000386388942, 0.08838260280334642, 0.08878280978452537, 0.0891696274083089, 0.08963002497504034, 0.08997921967101036, 0.09031998130225542, 0.09065157871848281, 0.09097334417776827, 0.09115430354996944, 0.09147111117470325, 0.09185290020679968, 0.09212204610645877, 0.09237814708265987, 0.09262715001289332, 0.09285560495113743, 0.09298370508006183, 0.09319598014273825, 0.09338939265087357, 0.09371338235766266, 0.0938515162482951, 0.09389959536576245, 0.09402828808837269, 0.09414131894940324, 0.09427272791523743, 0.09434980986698198, 0.09435696988103821, 0.09441263965137353, 0.09445041217455984, 0.09443318584534055, 0.09444028397218729, 0.09444948485966087, 0.09441496389055112, 0.09436273791987015, 0.0942991146539967, 0.09421097210748616, 0.09417089379929101, 0.09404026886200038, 0.09389616713674816, 0.09372563209379906, 0.09355458531759496, 0.09333377832927948, 0.09313554227319244, 0.09291926397594882, 0.09265707760076734, 0.09240845025399434, 0.09224904486652387, 0.09194813498845128, 0.09163444397035547, 0.09127939147571096, 0.09094182058674873, 0.09055096800033297, 0.09018585109442896, 0.0898022737715932, 0.08948732893782645, 0.0890563858243364, 0.0885565209905613, 0.08810600740764717, 0.08763832573764986, 0.08724356430236202, 0.08673040261452444, 0.08613089194180784, 0.0856028247948666, 0.08505759303210139, 0.08455434484613523, 0.08396785590351678, 0.08343013237364501, 0.0828088881637829, 0.08217731828429789, 0.08149131114235501, 0.08084272819703456, 0.08020767773204113, 0.07952676048694246, 0.07883305502599695, 0.07818539080020676, 0.07745827794117108, 0.07676177735367658, 0.07600962952135501, 0.07524919809415583, 0.07446127364470606, 0.07368499454500824, 0.07287625682916317, 0.07208115731538582, 0.0712739663242049, 0.07061939190980084, 0.06976785391866899, 0.06887690891858121, 0.06802472776260818, 0.06716641791524652, 0.06633884754886667, 0.0654625479138622, 0.06463416798505836, 0.06374112982074563, 0.06284557707679941, 0.06199349332823242, 0.06108544538484671, 0.060256894850841396, 0.05933567856419286, 0.05841682527641836, 0.05738146580425741, 0.0564796892443163, 0.055692523616599744, 0.05476312166660332, 0.053835222106604845, 0.052889834389876385, 0.05196632866184479, 0.05106740166703929, 0.05014039614451525, 0.049214896782270166, 0.048393419240561626, 0.0474583234301131, 0.04645958899460997, 0.0455485031745928, 0.04464028096683769, 0.04383149496402551, 0.042917940994322674, 0.04203868778215312, 0.041140649296256444, 0.040253035767955164, 0.03938492025141249, 0.038516389996851655, 0.037770198214302005, 0.036908760868554734, 0.03606434151490079, 0.03515244592756502, 0.03435077975258853, 0.03359094182062894, 0.032807415807717365, 0.0320374413515146, 0.03126892786322153, 0.03052866651305227, 0.02997003302615881, 0.029237208451649312, 0.028529029001059556, 0.02782927940862555, 0.027170453529850525, 0.026571106127446672, 0.02595196912288898, 0.02535714212361945, 0.02471819649609856, 0.02418032409684928, 0.02370011890468458, 0.02319912578314096, 0.02272215921093712, 0.022300741961931082, 0.021869403519692767, 0.02147163109126562, 0.021094583777422467, 0.02074602300967664, 0.02042947576588345, 0.02013881644794957, 0.019856507362568474, 0.019629282601982687, 0.01943201573594523, 0.019343076647411573, 0.019198234219415772, 0.019027951283695162, 0.018964386092053354, 0.018934355274418408, 0.018994522102584184, 0.01902687070274319, 0.019026864972746492, 0.01914663944106554, 0.019302147630005043, 0.01957197946903242, 0.019792085563281638, 0.019943413499131785, 0.020263842402498462, 0.020658795881142868, 0.021050327054932177, 0.02148366369027324, 0.022055839539242936, 0.02256303232433595, 0.023147726200553664, 0.023750484029495842, 0.024404380631514896, 0.025068946791119002, 0.02582995443015344, 0.026583861273673466, 0.027449910037051158, 0.02836248813777764, 0.02937528484449631, 0.030376975752686074, 0.031343890991126534, 0.03246121637629625, 0.033626571226805485, 0.034850374391650306, 0.03611385626463311, 0.037491068038861604, 0.03885082632192638, 0.040267314370246846, 0.04176869435577707, 0.04329581002866923, 0.0448881668625689, 0.046532616191409075, 0.04823659020243129, 0.04991635847123544, 0.051750238920799004, 0.05363616340462796, 0.05558157229519446, 0.05758357299997597, 0.059689469337063435, 0.06180094554542921, 0.06386505841525504, 0.06611302897190131, 0.06841659902909238, 0.07085755325418706, 0.07326525635543032, 0.07565531101024257, 0.07819945194476784, 0.08080236679949977, 0.08354862590672134, 0.0862606995378042, 0.08904139458569875, 0.09188396201866982, 0.0947919401984683, 0.09768448404470503, 0.10073307145327329, 0.10389181275694907, 0.107055643515833, 0.11028375886903331, 0.11351718338341518, 0.11688130754393361, 0.12036533667312849, 0.12384429747146436, 0.12738828983252967, 0.13088228706041585, 0.13457031365927416, 0.13841879769936583, 0.1422106572088903, 0.14606762659655256, 0.149859013232396, 0.15386170039449448, 0.15788394792225574, 0.16200567397135296, 0.16618341211768883, 0.17056069899595075, 0.1748345294678041, 0.1791897404771179, 0.1835925313901658, 0.18806048600203995, 0.1924903079407736, 0.19709897717590075, 0.20172421860074344, 0.20645189176716375, 0.21123425753185424, 0.2160187798299232, 0.22091778685050792, 0.22586580067322226, 0.23086978121856397, 0.2359262824532498, 0.24109130119961156, 0.24624604389592925, 0.2514099285614654, 0.2566813215549788, 0.2620044957180093, 0.2673853356715903, 0.27281024476080684, 0.2783016211178232, 0.2838258903971688, 0.2894007834037151, 0.2950565478175468, 0.30072636413493264, 0.3064926566018864, 0.31225531026589626, 0.3180682838683767, 0.32380595643923393, 0.32973092827223616, 0.3357912354292821, 0.3417819467341801, 0.3478164401214986, 0.35385931037191953, 0.35998192139303864, 0.36615819730739296, 0.3723542086609519, 0.3785873600960478, 0.3846920517254396, 0.39101700146016993, 0.39738829529219094, 0.4037599454899062, 0.41015768895347676, 0.4166681477546163, 0.42310610687631134, 0.4294682924141548, 0.43597779914561624, 0.44250850976112327, 0.4491251324421366, 0.4556884784047134, 0.4623059866693156, 0.4689103594642365, 0.47553699166754665, 0.48209739928773454, 0.48877483333461486, 0.4954742891477858, 0.5021751377923117, 0.5088874886438877, 0.5156009855592426, 0.522334333315245, 0.5290070912797551, 0.5357633548762533, 0.5425212134071987, 0.5493762355442691, 0.5561230536081597, 0.5627938979445094, 0.5695586605591733, 0.576320210128418, 0.5830930351118709, 0.5898430385110652, 0.5966091471643257, 0.6033438296561553, 0.6100714201749742, 0.6167251755948797, 0.6234421389259319, 0.6301653922307557, 0.6368476938738273, 0.6435136337671543, 0.6501618760169519, 0.6567910555618366, 0.6633997819559456, 0.6699866428288984, 0.6765502070487425, 0.6829648708813393, 0.6894931841468803, 0.6960116830405929, 0.7024670809475778, 0.7088881264561543, 0.7153111335164118, 0.7216558859189531, 0.7279684507696221, 0.7342407829167017, 0.7404750910302325, 0.7466109003755944, 0.7527721083183341, 0.7588191753113844, 0.7648962655405094, 0.7709215250815529, 0.7769688429010906, 0.7828790944462077, 0.7887116199349479, 0.7945243170843915, 0.8002826433474935, 0.8059356530557835, 0.8115876419405618, 0.8172064870136218, 0.8227318396459814, 0.8281957272363825, 0.8336216961009374, 0.8389556420248065, 0.8442038874706509, 0.8494111115716805, 0.8545501174708046, 0.8597065072916946, 0.8646941662486847, 0.8695773190696011, 0.8744331722515972, 0.8792157769905917, 0.8838429169860926, 0.8884847296192997, 0.8931312632304343, 0.897596973615209, 0.9019838593857706, 0.9061972934225823, 0.9104338322599056, 0.9145757545233223, 0.9186356643002899, 0.9226055803808348, 0.9265469538958924, 0.9303271154414923, 0.9340311974309217, 0.9376315808032839, 0.9410859019415965, 0.9445117317769552, 0.9478418187188684, 0.9511189353172204, 0.9542499881312193, 0.9573291264402191, 0.9602629036039644, 0.963101710851069, 0.965701466948574, 0.9683645693928014, 0.9709148300956136, 0.9733655379052865, 0.9757093681822214, 0.9780394425860655, 0.9801576980652897, 0.9821306914502782, 0.9840499307541113, 0.9858631903980166, 0.9874955436750923, 0.9891049743900082, 0.9906184982152543, 0.9920033163724941, 0.9932779261882969, 0.9944019474526131, 0.9954611288204877, 0.9964014707358085, 0.9972364094891104, 0.997958790390122, 0.9986184716530414, 0.9991100055902131, 0.9995822603568251, 0.999843531147315, 1.0, 0.9999296604192256, 0.9998890932710217, 0.9998492779618808, 0.9995663728430848, 0.999176538694125, 0.9985519291110909, 0.9979626753734535, 0.9973541253426864, 0.9965224062545756, 0.9955820019702444, 0.9944707252879863, 0.9933205428617542, 0.9920922144365095, 0.9907137273724744, 0.9892260468596569, 0.9876139698994557, 0.9859108533459767, 0.9841918557328801, 0.9822595257106459, 0.9802245591498508, 0.9780123160485217, 0.9757811736080361, 0.9734182860798566, 0.9709772338326647, 0.9684294496064583, 0.965819404702842, 0.9630557075229607, 0.9602248999329038, 0.9572550423241445, 0.9541872217911024, 0.9509691539077417, 0.9477136030493994, 0.9443401784893436, 0.9408896059601835, 0.9373409969542076, 0.9336925439281926, 0.9299521377847072, 0.9261018759743388, 0.922176071749284, 0.9181576827013961, 0.9140202095134365, 0.9098244778598006, 0.9055419705376619, 0.901167719488645, 0.8967069962040655, 0.8921365192905448, 0.8875106225563003, 0.8828852646612356, 0.8780839450686456, 0.8732074441464294, 0.8681760356710845, 0.8631623643074885, 0.8581217540211227, 0.852950399863885, 0.8477088013612263, 0.8423734745339546, 0.8369985985269996, 0.8315437988019015, 0.8260371092000064, 0.8204654820573207, 0.8149361881947863, 0.8092265487590861, 0.8034444647786146, 0.7976304123845344, 0.7917633470012545, 0.7857886221968007, 0.7798263356198106, 0.7738366042635513, 0.7677684884779671, 0.7616532123557351, 0.755383796731412, 0.7491929317839255, 0.7431276688302154, 0.7368209873352601, 0.7304809434282213, 0.7240775249933471, 0.7176778625694892, 0.71119059929229, 0.7047360911804383, 0.6982498626686153, 0.6917246844215588, 0.6851824185998343, 0.6785644326547579, 0.6719784291327574, 0.6653677507374502, 0.658834169049789, 0.6521688498488478, 0.6454791445941827, 0.6387929059760358, 0.6320969485035417, 0.6253991169516728, 0.6186878713540632, 0.6118884283289813, 0.6051806440350374, 0.5984670831605715, 0.5917314833705252, 0.5850157386686535, 0.5783621330379211, 0.571640981623028, 0.5649279440737509, 0.5581998724275851, 0.5515112532676948, 0.5447568084695112, 0.5381034269714168, 0.5314611992814544, 0.5249008633438846, 0.5182795626621252, 0.5115996034332582, 0.5050342132673177, 0.49848956695172775, 0.4920982755266735, 0.485585282653547, 0.47902301729959945, 0.4725906329511264, 0.4661900295718598, 0.4599222630284213, 0.4535778174617847, 0.4472478727886243, 0.440992656621316, 0.4347800259708341, 0.42859563644615556, 0.42247368762264836, 0.41637221218208187, 0.41034536817764455, 0.404365141997344, 0.3983492711636459, 0.39247747192589827, 0.38677316700903636, 0.3809810616654124, 0.3752463076850962, 0.369563617010827, 0.3639471312310678, 0.3583345964248946, 0.35284583715001183, 0.34741580485202045, 0.3421483980801273, 0.33682721784119807, 0.3314381736961138, 0.3262721531354147, 0.32116817677778486, 0.316140324894165, 0.31116375925123646, 0.3063198120066985, 0.3014711565283668, 0.2966960828156953, 0.291970377025316, 0.2873474604084114, 0.28273340379245127, 0.27826762526046633, 0.2738738231969804, 0.2696619063792437, 0.26540204015639973, 0.2611151413589165, 0.2570323454517449, 0.2530253371381112, 0.24909827028756287, 0.2452455034709571, 0.24156159426880608, 0.23785590359066397, 0.23423557473898626, 0.23065085115206788, 0.22720726909455466, 0.2238584677160476, 0.22057841318195914, 0.2173821166212703, 0.2142666655404511, 0.21123882694280294, 0.20820816196402944, 0.20535961809084974, 0.20259052937674832, 0.19989856967016728, 0.19729099962261296, 0.19480815477100105, 0.19235810625072447, 0.19004538614535432, 0.18775772809303193, 0.18555742937260777, 0.18334149547674752, 0.18132718469462003, 0.1793711011083216, 0.17751973668417306, 0.1757475889226778, 0.1740580360057151, 0.17244464483859012, 0.17097012847855123, 0.16950903346104024, 0.16813097059468868, 0.16678870176627086, 0.16558054017228604, 0.16450969871260498, 0.16345043065114948, 0.16247207536960076, 0.16158922154043268, 0.16076794376898013, 0.15995738912968666, 0.15930172124040043, 0.15871916074994433, 0.15816578645637994, 0.15773347616266375, 0.15736715619896233, 0.1570731416641502, 0.15684738417560684, 0.156826017796238, 0.15671811120272777, 0.15666595163589755, 0.15670738071253912, 0.15681868835893317, 0.1569425321599336, 0.15719628384018405, 0.15750316201538814, 0.1578820458021164, 0.1583209706180657, 0.1587693660016695, 0.1593318906429434, 0.15994262643889326, 0.1606141581280426, 0.16133844757749746, 0.16216443582021484, 0.16298572263305883, 0.16389742027103127, 0.16481900095845128, 0.16579318028142012, 0.16679969793022092, 0.1678765497326154, 0.16896909499654475, 0.17014193234358316, 0.17135695507734283, 0.1725633511019219, 0.17386554566247336, 0.17525637004572675, 0.1766227877272537, 0.1780262942721539, 0.17944066516359813, 0.18091730312030413, 0.182490620978653, 0.18402080326583786, 0.1855836935840468, 0.18712784202593663, 0.18875710816638674, 0.19035518656941758, 0.1920396104232917, 0.19374302046708086, 0.19544283364011375, 0.19718432677895464, 0.1989221951812466, 0.20069517217022365, 0.20248029493360364, 0.20437603575008317, 0.20617025879736187, 0.2079297666980211, 0.2097583151033383, 0.2115953748835698, 0.2134675257929445, 0.21531400330642053, 0.21711370952292172, 0.2189772557903354, 0.22084067671284985, 0.2227587274605536, 0.2246114611046232, 0.22640480894471007, 0.22826254420549127, 0.23011333518272814, 0.23202438980509027, 0.23384940240569765, 0.2355904103072564, 0.23741074041358567, 0.2392170063563357, 0.24101136731836262, 0.24278625168620543, 0.24459399935695367, 0.24632797023830358, 0.24804584714002986, 0.24975238559255514, 0.25143297839410667, 0.25308739584270395, 0.25472746742309493, 0.25634452729218216, 0.25794976047999457, 0.2595155713672504, 0.26095926111451173, 0.26248421196476507, 0.26397545494519836, 0.2654791828675494, 0.26689597035449536, 0.2682493675396477, 0.2696044929082203, 0.2709237685489661, 0.27226866327566074, 0.2735065461360747, 0.27468535973320973, 0.27585676213430493, 0.27699030232722094, 0.27812860301667625, 0.2791784560363232, 0.2801004591093302, 0.28108492178762845, 0.28202437027708255, 0.2829589178707484, 0.28380249643592453, 0.2845963290220506, 0.2853529884425314, 0.286064533442181, 0.286749064983547, 0.2873664805982363, 0.2879848839666292, 0.2885046661999583, 0.2889803233549585, 0.2893178425746643, 0.2897144225651989, 0.29001886632061236, 0.2903170710492662, 0.2905613899297494, 0.2908546282901076, 0.290979299034102, 0.29099783170486776, 0.29103504428301613, 0.2910206782245969, 0.2910509763667306, 0.29092135510224, 0.2906773462306459, 0.290463420687857, 0.29019819669276625, 0.2898847954504479, 0.28951665678630756, 0.2891285534824948, 0.28865454416522296, 0.28813142221342847, 0.2875683639272438, 0.28694549005020836, 0.28628620325757764, 0.28556405378419875, 0.28479373252740997, 0.2838448376478535, 0.2829946054385261, 0.28212309824442455, 0.2811588975976792, 0.28014348449666, 0.2790931385894064, 0.27797559089855844, 0.27685335832464236, 0.2756346028942028, 0.27437127889222557, 0.2730418787211283, 0.2716928717309611, 0.2702740450871905, 0.2688387303419501, 0.2673581107013389, 0.26590744564767405, 0.264329087877649, 0.2625939372148083, 0.26095295798443513, 0.25926689645266987, 0.2576270095532127, 0.255843078198269, 0.25394198764976333, 0.2520957201573494, 0.2502092693669239, 0.24834583966162152, 0.24637451723550832, 0.24441633388314082, 0.24237282315769598, 0.24029962156526397, 0.2380821260050929, 0.23596486964208274, 0.2338155431545068, 0.23162893463947493, 0.22941005039019244, 0.22726568739708666, 0.22497266209192857, 0.22267558903089063, 0.22033518102783353, 0.2179738554608975, 0.21555468234896136, 0.21315726661198006, 0.21069148125225629, 0.2082571774705673, 0.20578154588160105, 0.20330545745057277, 0.20080813187580884, 0.19828783391213486, 0.1957524918732232, 0.19317799882822442, 0.19061183887905025, 0.18802956642303092, 0.1854822362280621, 0.1828655865634722, 0.18022722850198428, 0.17759442113427454, 0.17495335295591388, 0.17229879802669015, 0.16964493644013257, 0.16691401411143145, 0.16425886136994552, 0.16159607007070573, 0.15899550586982045, 0.15631346271662347, 0.15365695185061642, 0.1509739842945443, 0.14829474629083939, 0.14564469881807943, 0.14297170058431266, 0.14026855768838578, 0.1376149867216826, 0.13496750023878648, 0.13233320530346523, 0.1296997991435352, 0.12702585552967963, 0.12441782058288212, 0.12181780871644209, 0.11931086830413447, 0.11671998426619813, 0.11413919936531686, 0.11158214259139339, 0.10904194435514038, 0.10641052659127805, 0.10391948359935714, 0.10155579714312102, 0.09907675509285913, 0.09661957265462734, 0.09407290425268866, 0.0916747897398302, 0.08928423686198574, 0.08692242893858104, 0.08457964580395753, 0.08225406575876616, 0.07995348416493002, 0.07772190390173901, 0.07546138653661298, 0.07322798471699754, 0.07093844685215887, 0.0687715195587581, 0.06672484357770724, 0.06459499407375947, 0.0624968440321776, 0.06046786299470719, 0.058429084114278676, 0.056319268684287355, 0.0543627827573161, 0.052434827376930435, 0.050536288220013055, 0.04866797778149222, 0.046849264189577064, 0.045041227547328526, 0.043266514536568, 0.04154106409872957, 0.039832262360872624, 0.03814640369926452, 0.0365100928889619, 0.03490883935178033, 0.0332622203040028, 0.03174209631288229, 0.030349483041212676, 0.02888062597357852, 0.0274500631355199, 0.026076300699760184, 0.024719628935735066, 0.0233740349109583, 0.022098675258436652, 0.020860290714658895, 0.019683730918917487, 0.01851619899265887, 0.017383947476632133, 0.01629335544793213, 0.015240542050289036, 0.014119796953802015, 0.013155354301335461, 0.01230914968771712, 0.01139704724548585, 0.010522386127100063, 0.009691139722457626, 0.008889868447312018, 0.008091525725733692, 0.007368413411797587, 0.0066798529418345964, 0.006035125428974942, 0.005414361545850521, 0.004865715814578249, 0.004309772599436172, 0.0037903441046029003, 0.0033410183536332788, 0.00288865429968748, 0.0023334279454729156, 0.001971564063351248, 0.0016371424460595186, 0.0014392146002764426, 0.0011470784942296706, 0.0009173485633564741, 0.0006898695247214049, 0.0004969503851165496, 0.00031593660320038884, 0.00019215102126661629, 9.595923608619199e-05, 3.333693607554605e-05, 0.0, 5.4343132092416166e-05, 7.038565576343677e-05, 7.38406687255204e-05, 0.00015606667647567607, 0.0002646896304392854, 0.00040843667640752887, 0.0005669253380024061, 0.0008064577549878469, 0.0010075749119390907, 0.0012357018402600836, 0.0015083753506352202, 0.0017849688087381592, 0.0020803276637884295, 0.0024065814529946957, 0.0027553797677286117, 0.0031320258657931248, 0.003522457020738346, 0.003982852173626691, 0.004406765264145955, 0.004852118672148464, 0.005382919855507075, 0.005859465294886772, 0.006373327310087687, 0.006890013114767728, 0.007426503812651314, 0.008090047418711162, 0.008648357447243571, 0.00920079162940565, 0.009804792278705718, 0.010425552453663656, 0.011161018993170476, 0.011798728590892748, 0.012374293245522852, 0.013057475701068766, 0.013751183133989832, 0.014510442766689103, 0.015215674726763639, 0.01601603980804846, 0.016732219525245833, 0.01746230985311583, 0.018182991389409167, 0.018939037979066983, 0.0197127859321962, 0.020483458297088395, 0.02126118536679693, 0.022135108425536138, 0.022913031212093694, 0.023672750633278207, 0.024472297190051413, 0.025277411500217766, 0.02619275887556426, 0.026993152706403886, 0.02783994213391842, 0.028652450560068418, 0.029473420313401128, 0.030254840403870564, 0.031094435221016584, 0.031970164297552416, 0.03280881200035012, 0.03365021890873674, 0.03453089025762417, 0.03537097556310777, 0.03630086821932824, 0.0371349736988535, 0.03797538508719971, 0.03883012643670155, 0.03967827944898167, 0.04048643633811237, 0.041346098299951096, 0.042205106702856335, 0.0431190284383992, 0.04396881735433392, 0.04484208498699445, 0.0456920436228754, 0.04654390073267105, 0.04740018821554839, 0.04825383522110102, 0.04910192485751874, 0.049957334581641526, 0.05081247624622747, 0.05169205216674625, 0.05254318607929859, 0.05348523117306463, 0.05432659972782102, 0.0551177525294256, 0.05597671435868311, 0.05683677733094455, 0.05770098496710278, 0.05856273662469753, 0.059444379963821306, 0.060306390649876376, 0.06117091623696456, 0.06199451867774661, 0.06286967504513774, 0.0637544334822426, 0.06462951267673088, 0.06550644204973273, 0.06644774135477129, 0.067321855053146, 0.06819954835715691, 0.06908738828006969, 0.06998174043407536, 0.07091687230252448, 0.07182036005770846, 0.07264900321951735, 0.07358100900151994, 0.07451734736664763, 0.07554264092331146, 0.07647947793762079, 0.07744946772984686, 0.07840649527219636, 0.0793764107459557, 0.08031890813408382, 0.08131991496764522, 0.08232259801465223, 0.08334734321897148, 0.08438374267095793, 0.08538282921442715, 0.08645090850283434, 0.08749891894906003, 0.0885939734980065, 0.08970043133610253, 0.09081025391167194, 0.09194444725427206, 0.09312107893641276, 0.09428191050385115, 0.0954610825834023, 0.09668425536082477, 0.09789943692524547, 0.0991367858815999, 0.100396882868344, 0.10168032134672854, 0.10294425209025197, 0.10428169575026372, 0.10561706050716567, 0.10700413475064549, 0.10841450573584359, 0.10993309952893134, 0.11138277694771684, 0.11282331348575811, 0.11434081821350649, 0.11588792509601395, 0.11733809047391629, 0.11896263886090071, 0.12074525564761374, 0.1224038590633325, 0.1240978834077369, 0.12579359584281946, 0.1275640365302723, 0.1293723946354365, 0.13121282736478437, 0.1330897479170764, 0.13494178176446503, 0.13690162783976126, 0.13887793494174622, 0.1409114771977352, 0.14298133201115662, 0.14509799588978947, 0.1472427740776708, 0.14941529675739487, 0.15164285859013513, 0.1539116200493504, 0.15614798289812687, 0.1585111936431734, 0.16096671415324645, 0.16340368027020274, 0.1658857143924841, 0.16842282005924472, 0.17099584352868077, 0.17362881814057812, 0.17629583619141095, 0.17901204770525897, 0.1817529653895491, 0.18457172515667417, 0.18745480551876523, 0.1903697177040266, 0.19333529174334316, 0.19623079411765615, 0.19931393807942235, 0.2024325461261328, 0.20560766129524408, 0.20882937647911987, 0.21218565469524994, 0.2154926173844464, 0.21891593398689882, 0.22232361249675112, 0.22578906963991588, 0.22917212750651522, 0.23276934914272507, 0.2364927539562092, 0.24017809442711727, 0.24391778881668574, 0.247640380898653, 0.25149759856615694, 0.2553956158759419, 0.2593547022938233, 0.26336422903625556, 0.26739663900147886, 0.27151162940207546, 0.2757663962357629, 0.27996990224989937, 0.2842288702031315, 0.28850551945259945, 0.2928785291700429, 0.2972878158352893, 0.3017661671816864, 0.3062949814755322, 0.3108554770493348, 0.31548704903264746, 0.32012707085904746, 0.32486119974935074, 0.3296415119009168, 0.3344059901638835, 0.3392866073264045, 0.3442594953139861, 0.34921934883214695, 0.35422505949883937, 0.35934455205271265, 0.3644321944898869, 0.36953721413823787, 0.3747245235278628, 0.37995634338131884, 0.3851666806397439, 0.39049330943346167, 0.39592347821900953, 0.4013182332082496, 0.40675422339536144, 0.41221489444510334, 0.41773220576638515, 0.42323088402762093, 0.4288287996062149, 0.4344589223897539, 0.44017658708350127, 0.445862373458811, 0.45148233742495414, 0.45724648140308555, 0.46303613356733814, 0.4688043110340865, 0.47464948518866357, 0.4804507830256116, 0.4863464602529074, 0.49225895433594063, 0.49829993002702544, 0.5042315280626891, 0.5101451310544889, 0.5161250953413271, 0.522122238945561, 0.5280888467375698, 0.5341227113244383, 0.5401923442019186, 0.5462440107492482, 0.5523060556357315, 0.5583864923062408, 0.5644641752431316, 0.5705611453532498, 0.5766495028489147, 0.5827424070085869, 0.588788550762227, 0.5948918868799364, 0.6009982363780134, 0.6070931345068776, 0.613182603867596, 0.6191845253194871, 0.6252690504740904, 0.6313609825011499, 0.6374132478223218, 0.643450560902844, 0.6494344237477798, 0.6554427231634207, 0.6614890119953551, 0.6674467579420805, 0.6733844916952753, 0.679247689048075, 0.6851467901797127, 0.6910114183532454, 0.696853425498764, 0.7026640674701711, 0.7084885020039405, 0.714226276174454, 0.7198316324477044, 0.7255138780847703, 0.7311536685818117, 0.7367530344468195, 0.74230421793149, 0.7477630989911094, 0.7532273592003713, 0.7586405632135179, 0.7641227138083838, 0.76941526403065, 0.7746073870750863, 0.7798090365117419, 0.7848780274260055, 0.7899776627826829, 0.7950144783071896, 0.7999874028672721, 0.8048952952327938, 0.8098486943211641, 0.8146087364780116, 0.8193062640776757, 0.8238676545388429, 0.8284425626438299, 0.8328886196880172, 0.8373232002853442, 0.8416787999382196, 0.8459544321218326, 0.8501490562454647, 0.8542367543081314, 0.858269202968816, 0.8622158801371331, 0.8661099449695745, 0.8698777657918172, 0.8736083156999677, 0.8771946205209442, 0.8806940502898949, 0.8840924448775447, 0.8874145264086215, 0.8905788142767473, 0.8937224578974233, 0.8967669645477748, 0.8997704659178374, 0.9026066929202428, 0.905229661680469, 0.9078822175488344, 0.91042723740102, 0.9128861100027941, 0.915212229744468, 0.9174804943833782, 0.9195846204095268, 0.9215826420255449, 0.9235107024396776, 0.9252885396198128, 0.9270181609388002, 0.9285728934054618, 0.9300212922442191, 0.9313555690096306, 0.9325874778004646, 0.9336152387893865, 0.9346357053431408, 0.9355377085755158, 0.936246546964074, 0.9369204165069127, 0.9374772216397469, 0.9379041544314093, 0.9382088812567033, 0.9384940495205966, 0.9385420272700941, 0.9384523595124018, 0.9382705431814787, 0.937970262669801, 0.9375076956202966, 0.9369749325072289, 0.9363141173964755, 0.9355385917728843, 0.9346411630815744, 0.9336779112213732, 0.9325302487742954, 0.9312706826236212, 0.9298858068563058, 0.9283828304932793, 0.9266902518669256, 0.9249598392069093, 0.9231413451375918, 0.9211628405169751, 0.9190653691367684, 0.916855530312007, 0.9145205513992539, 0.9120340951472774, 0.9094692163384938, 0.9067860340202487, 0.9041002057672191, 0.9011683433962756, 0.8980370781058284, 0.8948977433437252, 0.8916439498857143, 0.8882734966564612, 0.8847939110270447, 0.8812117865796036, 0.8775083260956734, 0.8736955688334695, 0.869734141601123, 0.8657108606036594, 0.8616690696492609, 0.857418767774223, 0.8530678028758046, 0.8485671890370864, 0.8440232988010983, 0.8393254905278674, 0.834587301949107, 0.8297476921949309, 0.8249574577553981, 0.8199015681451164, 0.8146338154853716, 0.8094187587709704, 0.8041102602559596, 0.7986759852091305, 0.7931903369985024, 0.7876209426494545, 0.7819566690255565, 0.7762068906527178, 0.7704232252148828, 0.7645020063317942, 0.7584697447478432, 0.7524005595041551, 0.7462556335286595, 0.7399840747412142, 0.7336999670192066, 0.7274110824784502, 0.7209745324759111, 0.7144733429379421, 0.7079029932043361, 0.7012784069474112, 0.6947088454372649, 0.6879519393240606, 0.6811453656966978, 0.6741317929648938, 0.6672489407283672, 0.6603977512265766, 0.6533960346524182, 0.6463491305773541, 0.6391626347800046, 0.6320430160135557, 0.6249342570753066, 0.6177202620353904, 0.6104697466158353, 0.6031351876761668, 0.5958243331219594, 0.5885395756969153, 0.5811580603050992, 0.5737520313986083, 0.5663483083562045, 0.558896098204919, 0.5513988584044962, 0.5439178369222973, 0.5364218838874416, 0.5289565991542514, 0.5214317276036754, 0.5137921712433956, 0.5062707425526811, 0.49874081807272397, 0.4912268822595297, 0.4836854148274965, 0.47616644925684787, 0.4686261572381937, 0.46109256896905776, 0.45353366807215667, 0.4460241728849431, 0.43851339528430455, 0.43103010239800754, 0.4235619315059539, 0.4162198954006596, 0.4087753074785903, 0.40124096216770755, 0.3938690237634039, 0.3865214295179409, 0.379315447309013, 0.3720092220001348, 0.3646849852467538, 0.35746285080992124, 0.3502781161645295, 0.34316368790271196, 0.3360554187407527, 0.32889873886593163, 0.32189323395433755, 0.31493037927133954, 0.30803114897930994, 0.3011582055635052, 0.29440714542292507, 0.2876281197180657, 0.2809074559733615, 0.2742681620888136, 0.2676653396413499, 0.2611011726198963, 0.2546296230639278, 0.24822251670133427, 0.24183781256201556, 0.2355693216320823, 0.22938257319644623, 0.22324630034779028, 0.21718053212257404, 0.21121469895612072, 0.20529085461009447, 0.1993875809058241, 0.1936248363426513, 0.18793769313297415, 0.18235255984822749, 0.17681813933994447, 0.17130004972307245, 0.16593806638797717, 0.16065623794175662, 0.15554308889723464, 0.15041532248940698, 0.14529332178528026, 0.1403559164785116, 0.13562567627154068, 0.1308464828949557, 0.1261626904126703, 0.12144718262534421, 0.11697075487912373, 0.11271039133001329, 0.1083967461331745, 0.10418147029139654, 0.09995285739059279, 0.09594858349286027, 0.09212971704687391, 0.08829925797574986, 0.08456823285508112, 0.08080634583872405, 0.07729088155613151, 0.07385223024427304, 0.07052451022794616, 0.06729034779716099, 0.06417244556106443, 0.06112544136526763, 0.058284379988915225, 0.055418674400029184, 0.05265712978914966, 0.049906009623862484, 0.047362734279241245, 0.044944559569263486, 0.042592288378543584, 0.040339082608520656, 0.0381320038309002, 0.03608304215997279, 0.03412954179829346, 0.03227162957508414, 0.030509339488647882, 0.028960567455344383, 0.02737436937512682, 0.025855873910111144, 0.02447645540483573, 0.023194559850340073, 0.02199691142702541, 0.02090905336018104, 0.01990302915546341, 0.019004477545877013, 0.018197935489771645, 0.017423727993609302, 0.01680652642517846, 0.01624788817916507, 0.01580689018291996, 0.015450080602904714, 0.015158558435065292, 0.014971540259972585, 0.014962739525979811, 0.01492712118912521, 0.014977942629442666, 0.01509207800687027, 0.015314339107444468, 0.0155741929650165, 0.01596283726571145, 0.016427657823135787, 0.016952237957955, 0.017568618788806882, 0.018375377521354833, 0.019120755961476468, 0.019943222271032814, 0.020822131916912123, 0.021795127908223272, 0.022822764083551418, 0.02393633714473779, 0.025115814050776945, 0.026350348368432468, 0.027658208286785942, 0.028955460020439423, 0.030392451597692133, 0.03188329043842169, 0.033439484664004766, 0.03503364289064512, 0.03671662834040262, 0.038408002970039136, 0.04015052823523593, 0.04202017150028268, 0.04385029124641354, 0.04569376592208806, 0.0476275329860411, 0.04960535407825416, 0.051522974594323805, 0.05359640082918658, 0.05568720227607085, 0.05782743896753117, 0.059997730556847755, 0.062256070671573766, 0.06447598788415408, 0.06672297585809492, 0.06900194910708625, 0.07130754887404159, 0.07373122820029135, 0.07607331181585253, 0.07837706593797146, 0.08077867943862087, 0.08319874773413119, 0.08563866190204532, 0.08809012275813105, 0.09051166077919288, 0.09299398282904416, 0.0954840203310985, 0.09798045758830692, 0.10048195105923656, 0.10307404307387953, 0.10557053911445483, 0.10807281196800317, 0.11054770848958567, 0.11305919446305901, 0.11558411843342213, 0.11808782954666157, 0.12058706201411444, 0.12308010224578421, 0.12556528081877505, 0.12796026818817938, 0.13043508280289207, 0.1328927385534114, 0.13536340687642548, 0.13778017061585848, 0.14026569038579845, 0.14263392074649242, 0.1449864024500175, 0.14721567405372055, 0.1495443098599059, 0.15188300965737525, 0.15415175104736725, 0.1563937317357245, 0.15859846699333882, 0.16078460201776404, 0.16289342899633108, 0.16502290829109229, 0.16711694810251737, 0.16931147355553872, 0.1713153933430628, 0.1731715578279133, 0.17512895324941222, 0.17704639452749008, 0.17901014715689875, 0.18083474597426066, 0.18259436474733187, 0.18434703552636458, 0.1860584379474487, 0.18775552642352844, 0.18937796524462566, 0.1909423825973462, 0.19248071254386573, 0.19397360600707336, 0.19537059582631888, 0.19677652954357502, 0.19813817506003484, 0.19944206413778737, 0.20069526326765225, 0.20181363862357576, 0.20297507480129964, 0.20422913957823696, 0.20525938881664038, 0.20624230722682002, 0.20708071280158158, 0.2079783496525995, 0.20887652680443605, 0.20965652336947616, 0.21038447707951544, 0.2110196438704641, 0.21164748204949027, 0.2122230793158459, 0.21273990550695615, 0.2132017043599923, 0.2135930101598689, 0.21394688912643556, 0.21423885828999173, 0.21448233498339467, 0.21467019525783523, 0.21483685247571835, 0.2149099736968122, 0.21485881772993828, 0.21483519412991708, 0.21475472468806037, 0.21466773062777175, 0.21446923417402658, 0.2141937333784765, 0.21389421078019807, 0.21354151569822868, 0.21316402973346027, 0.21270280467900338, 0.21220996314012658, 0.21164615469193904, 0.2110336949401826, 0.21033862302136386, 0.209633780835159, 0.20889460425887338, 0.2080887094292712, 0.20723508043622507, 0.2063963166994051, 0.20544096479658658, 0.20438093952999892, 0.20334835801172263, 0.20227001029428113, 0.20111874380838565, 0.199954757599278, 0.19878307411690233, 0.19752553909577267, 0.19622723429281858, 0.19484232527164783, 0.19347056828159243, 0.19199870894286564, 0.190553329462169, 0.18920862297473076, 0.1876625849887617, 0.18608559383891748, 0.18446865588685882, 0.1828319731566405, 0.18109051736237297, 0.17940331662588094, 0.1776829531524843, 0.1759928289492521, 0.17420223323510375, 0.17234239120739858, 0.17050645347601032, 0.1686438204163305, 0.16678981028188936, 0.16487298636023787, 0.16283555784280096, 0.16088960984828476, 0.15891858808037573, 0.15704216773271057, 0.15501118831852795, 0.1529511922100198, 0.15089575105094727, 0.1488271436627562, 0.14673687009769795, 0.14464557742319, 0.14256485849396694, 0.14044949098266035, 0.1383261635951569, 0.13620502146207009, 0.1340671301945098, 0.13191198138697885, 0.12976682234730394, 0.12761784844735186, 0.12550020752550398, 0.12334231276314508, 0.12109555204341847, 0.11895209072893885, 0.1168062786721213, 0.11473105887564053, 0.11257611721139593, 0.1104273122716234, 0.10828545367525644, 0.1061513736104998, 0.10392039006389216, 0.10181777851866924, 0.09976928080223704, 0.09767102817525462, 0.09558338653626827, 0.09346715191152215, 0.09140924040246162, 0.08943750868231794, 0.0873949238124455, 0.08537088338987303, 0.08325428769223198, 0.08128340210585334, 0.07930812993630959, 0.07736964627068965, 0.07544739559689966, 0.07358945703594211, 0.07169823915911809, 0.0697742437191423, 0.06793712440068166, 0.06612162293467039, 0.06436931636096542, 0.06259553908991941, 0.060901832063805755, 0.059176649547146375, 0.05748302240913356, 0.05586148299174461, 0.054226437638271285, 0.05261342245206295, 0.051048769686689165, 0.049517786105687245, 0.0479678446237415, 0.04651132081561749, 0.045129467485341065, 0.04373052456426611, 0.04236648896633176, 0.04104069105343705, 0.03974676811449021, 0.038429661759111756, 0.03721500231540447, 0.036033279278537306, 0.03496590071551853, 0.03384190692181528, 0.03278215570182088, 0.03173373608401511, 0.030725935068543434, 0.029684007770504475, 0.02876615562590821, 0.027912054347857262, 0.027062766931102652, 0.02625174667396972, 0.02548224608394587, 0.02474779809604105, 0.023921825589947494, 0.023281613923103225, 0.022673057831817917, 0.022122077833131422, 0.021576813312618272, 0.021098473747167622, 0.020621538117293507, 0.020183104093790843, 0.01978943948532366, 0.019427358508765938, 0.019172460943608513, 0.018879424207002896, 0.018628853538741216, 0.01842002434294712, 0.018252253020389634, 0.01805970951032239, 0.0179803823695744, 0.017936598896771343, 0.01790037883265619, 0.01793103276400246, 0.0180140133293082, 0.01810976639117019, 0.01824029625006681, 0.018411580515560806, 0.01861015021434916, 0.018852354103180903, 0.019118004067313045, 0.019417699558076245, 0.01980990444408362, 0.020168690459761333, 0.020488768928779603, 0.02092752485491553, 0.021395890145549518, 0.021912153716843037, 0.022436341505821328, 0.02304593978569166, 0.023621554053067952, 0.02422865337706909, 0.02479168271930431, 0.025468032275921537, 0.0261189691875911, 0.026849754329055973, 0.027601271218771352, 0.028413841630126186, 0.029201545901186485, 0.0300150098640315, 0.030847041564281502, 0.03170069474654341, 0.03253805771805, 0.03343765106850929, 0.03438887210713763, 0.03531870339776972, 0.03626705616679528, 0.037195898523838165, 0.03818364169875505, 0.039228895512255654, 0.040238751975808375, 0.04126405314509169, 0.04225420408801973, 0.04331388674755271, 0.044451745266308004, 0.0455220689235498, 0.046605064566422695, 0.04768097819651365, 0.04878831688214322, 0.0498326056862549, 0.05096476910424344, 0.052099511532005885, 0.05320860729010582, 0.05435110518825895, 0.055512183429434155, 0.05665200418185918, 0.057792281913343777, 0.05905354609828913, 0.060177824689941144, 0.06124559656991875, 0.062387270830455165, 0.06352793602738144, 0.06472875733822323, 0.06585683545481615, 0.0669474593286073, 0.06807847592358515, 0.06920456144084673, 0.07032791471619519, 0.07144105988644439, 0.07259337827721792, 0.07368501901598266, 0.07477022141507712, 0.07584471433940086, 0.07691400180791261, 0.07797338208056445, 0.07902190859924431, 0.0800586864548954, 0.08106424468041583, 0.08207738095835986, 0.08312807462214586, 0.08410354401567628, 0.08506562742204254, 0.0860412899010864, 0.08697022612537955, 0.08782875943098346, 0.08873468527129569, 0.08962100356760012, 0.09056800764366556, 0.09140369273476566, 0.09211757300420469, 0.09293303160425016, 0.09378641178131755, 0.09454570255312984, 0.09528427942191207, 0.09603262050787177, 0.09672420115556198, 0.09746352757445388, 0.0981046930581084, 0.09872781228324636, 0.09926657468296095, 0.09985857902717583, 0.10045688638298561, 0.10099522240299957, 0.1015100478812317, 0.10207228362663491, 0.10252970879676604, 0.10299121330703778, 0.10340310341956263, 0.1037939661766223, 0.10412878545551718, 0.10447941046662164, 0.10484517054553828, 0.10513998972539453, 0.1054113683157332, 0.10579538800220838, 0.10600123334876327, 0.10620560448772569, 0.10637415081916905, 0.1065240781814587, 0.10674741563466159, 0.10684524835234702, 0.10688349597009635, 0.10695321983320112, 0.10700191620490242, 0.10707558141524345, 0.10707478969749436, 0.10706051195191782, 0.10701899145986164, 0.1069571610919177, 0.10693056589165134, 0.10682020080747694, 0.10664548912618207, 0.10650499781381768, 0.10634337619547136, 0.10635017477098464, 0.10612305897837013, 0.10579316003776038, 0.10555736407167463, 0.10530466983185272, 0.10504446643352387