0.02707470644622875, 0.02691890829788948, 0.026709282151681165, 0.02652229538830182, 0.0263014112547399, 0.02615700379938646, 0.02600955571232989, 0.02588727275346287, 0.025772071977953465, 0.02572715112877503, 0.02561485926303414, 0.025448201451756334, 0.025358532314600064, 0.025271274006985367, 0.02522437098180827, 0.02513649315809808, 0.024984406643851598, 0.02491309514081569, 0.024841561564060675, 0.0248244936390288, 0.024746956526748572, 0.024676563786500648, 0.024606906787421407, 0.024541600871968446, 0.02442947330715306, 0.02437959383441689, 0.024311410954120583, 0.024268232883912198, 0.024226844638996634, 0.024231130844559662, 0.024189854077951132, 0.024154692868968153, 0.024125845105503446, 0.024103512141496634, 0.024031631755540295, 0.02403005234177285, 0.024017368421554428, 0.02402628092107703, 0.024039561947070992, 0.024058878176963186, 0.024082690867121455, 0.024112727587267783, 0.024149466721658065, 0.024193339762573013, 0.02425377858999617, 0.02431190584332192, 0.024369689637776887, 0.024446572928229292, 0.02453205869077795, 0.024661566389997877, 0.024760549241316328, 0.024804491791089674, 0.02493431582098386, 0.025071534508573662, 0.025281939801418536, 0.025427093920914638, 0.02557557772884074, 0.02574645000263807, 0.02592887920186404, 0.02605249758619255, 0.026266843277825226, 0.026499795922134337, 0.026728433835204124, 0.02696635135916003, 0.027225991520885093, 0.0274820691454852, 0.027726056828764337, 0.02800729519685317, 0.028298646462457916, 0.028617557765449272, 0.02892804426983709, 0.029256642048863482, 0.029590679798673167, 0.029937430464702364, 0.03032411473980845, 0.03069314361333667, 0.031016414251944627, 0.03142200477377359, 0.03183854372384768, 0.03225239595853632, 0.03269386949437433, 0.033140667436022134, 0.03360605987471609, 0.03408332974187351, 0.03459299705832999, 0.0350927192458847, 0.03558651880733561, 0.03611728829227539, 0.03666141958680142, 0.03724434165562459, 0.037812926718048805, 0.03841120758171096, 0.03900931323000011, 0.03962392505222006, 0.040194699010331056, 0.040849785904457446, 0.041558063058900564, 0.042234547830833254, 0.0429271987717214, 0.04358986511594088, 0.04432089585592264, 0.04505465423463184, 0.04581508536928724, 0.046589517460810366, 0.047391457566983826, 0.04819352777973572, 0.04902961216753845, 0.0498614611120378, 0.050710645976865684, 0.05154201879784956, 0.05243037420856393, 0.05332911800439475, 0.05424922907031766, 0.055185026146319115, 0.05614179937602489, 0.05710909711844371, 0.05815535277052683, 0.05914823168473955, 0.06016150794293072, 0.06112343286935091, 0.06218533106382154, 0.06327256201667114, 0.0643640410577559, 0.0654718906816211, 0.06663341013389794, 0.0677696492155784, 0.0688724031066835, 0.07005253163462102, 0.07124803012415239, 0.07249528545245086, 0.0737175617358396, 0.07491256370794695, 0.07617625617431638, 0.0774550002748958, 0.07875301253487973, 0.08006190397812135, 0.08142171319480464, 0.08275771611679758, 0.08411152552741193, 0.08543362890545285, 0.0868284474370676, 0.0882977881597647, 0.08971360794336355, 0.0911473033455079, 0.09258841175616538, 0.09405790901083115, 0.09553249501080988, 0.09703540610245404, 0.09855331490997267, 0.10005591685006811, 0.10160713896769315, 0.10320230882967313, 0.10477525623126836, 0.10636283985493342, 0.10797083019971489, 0.10958615077182093, 0.11114333173746713, 0.11279589520581226, 0.11445799091336127, 0.11619119032102283, 0.11786537882997289, 0.11953911749484102, 0.12124191666542941, 0.12295674983165802, 0.12465521253018647, 0.12639684761796657, 0.12818527490016432, 0.1299413754421503, 0.13170900866100854, 0.13342142850189448, 0.13521921949025928, 0.1370757905431028, 0.13888016289116537, 0.1406941797779209, 0.14252646706544914, 0.1443573809939232, 0.14620122020510434, 0.1480489532070975, 0.14990485697064784, 0.1517011144248667, 0.1535803836954452, 0.15544248428324273, 0.15733021692119284, 0.15921982849681587, 0.16113052584542814, 0.1630217620697838, 0.1649040389136098, 0.1668027672492203, 0.1687034289719564, 0.17065908249615472, 0.17255626130667912, 0.17442953957651722, 0.17633801490805298, 0.17828489464568004, 0.18019067767529262, 0.1820988691822114, 0.18399866017738342, 0.1859106860798355, 0.18782537866837232, 0.18973573455199713, 0.1916447380450848, 0.1935095979359278, 0.19541946956467127, 0.19729876560976806, 0.19920068297520427, 0.20109526906045627, 0.2030336894125357, 0.2049068539006463, 0.20672796146955152, 0.20859679955997099, 0.2104569087289058, 0.21235629218532803, 0.2141921368881263, 0.21602017728761488, 0.21784184072136242, 0.21965525216938794, 0.22143764904319713, 0.22323539405403303, 0.2249905762238216, 0.2267689953910425, 0.22853337769668777, 0.23028653919206876, 0.23202183430251935, 0.23379982775569064, 0.2354984139519461, 0.23718497024038016, 0.23886570067180043, 0.2405248593796255, 0.24210168651477249, 0.24374068624147624, 0.24536032118527296, 0.24702172073750045, 0.24859436028537868, 0.25008417420062934, 0.2516314189929875, 0.25315695675191136, 0.2546978081868634, 0.2561747304398227, 0.2576475365463452, 0.2590814894419947, 0.2604950583019834, 0.2618996403832844, 0.26326896464032984, 0.26454936338435836, 0.26588330092926904, 0.2671905213127685, 0.2685121414208538, 0.26976044779048586, 0.270942809832663, 0.2721463118944323, 0.2733217405553431, 0.27453123556052406, 0.27564215098805295, 0.2766566100538643, 0.2777255769165622, 0.27876400732815126, 0.279767811421152, 0.2807454305117066, 0.28174824300956, 0.2826564764308988, 0.2835365142719316, 0.2843445244950067, 0.2851717860015465, 0.2859505752419148, 0.2867148992536048, 0.28744555730675947, 0.2881475015755985, 0.28880995345202237, 0.28948997854140546, 0.29007843980980214, 0.29063574941966824, 0.29113719049770714, 0.2916334823003754, 0.2920724856853232, 0.2925030600372755, 0.29289761036357126, 0.2932912342122286, 0.2936090753647917, 0.2938393823999926, 0.29409501612589506, 0.2943126603456531, 0.29450549029525686, 0.29464581936026474, 0.2947993969549995, 0.2948593404743332, 0.2948849992560312, 0.29480256427839135, 0.29476758900461336, 0.2947070390348397, 0.2945912718132687, 0.29443715804573817, 0.29423273628260943, 0.2940037301421933, 0.29372792144423576, 0.2934225712038125, 0.2930783271613851, 0.2927396026291883, 0.292312577636101, 0.29182056574421916, 0.2913253304214095, 0.2907922542626954, 0.29027770922979124, 0.28966215946742024, 0.2889509656180198, 0.2882741200669071, 0.28755887147712866, 0.28687884220949283, 0.28607833506384794, 0.28517602609298376, 0.28431686696718633, 0.2834198017770972, 0.28252637813979425, 0.28154934402476023, 0.280483496887655, 0.2794442113220286, 0.27836736707876786, 0.277324812586309, 0.27616534620930344, 0.27491653037565283, 0.2737000308283668, 0.27244806510193686, 0.27117113758297284, 0.2698483326270968, 0.26848192813545385, 0.26709364781099465, 0.2656719756095187, 0.26426257853944835, 0.26276976492209325, 0.26119319658615336, 0.2596483322269755, 0.25807114380575924, 0.25647831836108115, 0.2548362678732682, 0.253183676540365, 0.2514803943633225, 0.24974944764043627, 0.2480011891431367, 0.24621458593052045, 0.24437876789453522, 0.24254317475481843, 0.24068081046663695, 0.23879322663026292, 0.23687883772217744, 0.23496149151130863, 0.23299473649993263, 0.2310052698411335, 0.22893620694165936, 0.22690974222035676, 0.22489274989416946, 0.2228135104772116, 0.22071330789876453, 0.2185967411349397, 0.21645584994992348, 0.21425779835701775, 0.21208433847497665, 0.20989089386113471, 0.20773863825115887, 0.20550024043609535, 0.20323777610227647, 0.20097293572790195, 0.19869420241571764, 0.19641511929960626, 0.19410841610309806, 0.1917157134702849, 0.189395552530196, 0.18706047819613708, 0.18478091121257273, 0.1824104762756946, 0.1799598148437454, 0.17758315760996882, 0.17519539088492767, 0.17280057367744978, 0.17039329546653756, 0.16797807833462072, 0.16555581818569198, 0.16312738009416433, 0.16075589528250317, 0.15830971245696873, 0.15583616020832322, 0.15339319424663145, 0.1509490482016743, 0.14847314718185067, 0.14603230405623824, 0.14360333612047316, 0.14115931463818604, 0.13871650657034132, 0.136338903502886, 0.13389259032057407, 0.13145209481173784, 0.12901971639657717, 0.12659448677597437, 0.12419677985722725, 0.12178418931510715, 0.11932256738941419, 0.11693606949488833, 0.11456712283839313, 0.11219302781997789, 0.10982763793364997, 0.10756607607351645, 0.10520818173403672, 0.10281908552032709, 0.10049910420879817, 0.09819238216680708, 0.0959274976623456, 0.09364509604071282, 0.09144926430755315, 0.08919072298671499, 0.0869529613872531, 0.08468653582672435, 0.08249602517012589, 0.08038950168940032, 0.07822641018986651, 0.0760856453217483, 0.07399228573580122, 0.07189295869561949, 0.0697903507770095, 0.06774211789938166, 0.06571622808267354, 0.06374516810992632, 0.06176093737299618, 0.05986123198097463, 0.057920157023667714, 0.05600802391211804, 0.05416680832332562, 0.0523066493480569, 0.050524629943139346, 0.048720026312592965, 0.04694848129915275, 0.04516529986102875, 0.043464131267624585, 0.04183766609207747, 0.040189972995035315, 0.03857477443405208, 0.037019126195343054, 0.03546534496867024, 0.034010886499833505, 0.032516782191195526, 0.031060241943059494, 0.029633751239655177, 0.028251904542096175, 0.026929238127767235, 0.025616505363356672, 0.024341000364250312, 0.02309955238253804, 0.021898491006954752, 0.020784474777501522, 0.01965074477732919, 0.018556820927320767, 0.017498429706101343, 0.01648394343475539, 0.01556075218540361, 0.014617746071911976, 0.013716745952673626, 0.012910659470205256, 0.012085993267270584, 0.011300512610520185, 0.010564352690057718, 0.009871133606895842, 0.00919844724526283, 0.008593070689455978, 0.00812013659055256, 0.007585298651881758, 0.007096783739896385, 0.006599726944530867, 0.006208999091915726, 0.005880127892180311, 0.005570495556660234, 0.0053039955388887085, 0.005137879864494308, 0.00495037843996505, 0.004769062138799809, 0.004678985323556768, 0.0046322868963926435, 0.004673226156170848, 0.00470786106177174, 0.004813664092386839, 0.004936948876990692, 0.005107194276930182, 0.005352147452310105, 0.005611661048856443, 0.0059498784130363235, 0.006300115091174364, 0.006698819102449057, 0.007126323944408119, 0.00762272918586536, 0.00819015626656575, 0.008774987071272604, 0.009406756485140633, 0.010053976943963662, 0.010782590179218012, 0.01153843575440762, 0.012357875060580307, 0.013220750336067146, 0.014178480012237496, 0.015122258351880857, 0.01611382300794404, 0.017150742614027097, 0.018233942409823886, 0.01935614562592094, 0.02053208859985357, 0.021806506785465075, 0.023066040315124454, 0.024373544827181643, 0.025671210693998112, 0.02708033653979434, 0.028580991901486524, 0.03007069581914816, 0.031606533406884976, 0.03316303392294943, 0.03479328872308502, 0.036484379468593515, 0.038199915529182386, 0.03996002053228073, 0.04174036247098577, 0.04359201015879056, 0.04549529150161012, 0.047430979795636125, 0.049409751769952825, 0.051471689943698135, 0.053531219108474096, 0.05560861571329352, 0.05776111305849921, 0.0599562108503935, 0.06224899695568789, 0.06452178899395081, 0.06682770334811873, 0.06919175629382025, 0.07159912075199519, 0.07405640485923258, 0.07654825800322389, 0.0790344012526882, 0.08161698527938718, 0.08423860328512794, 0.08691838170294088, 0.08961573574628605, 0.09238236156557678, 0.09515610692779373, 0.09797123259756438, 0.10084940984677822, 0.1037432284764137, 0.1066533258698196, 0.1096325739046743, 0.11265076744759561, 0.11567649588263457, 0.11877573376523547, 0.12191641933012512, 0.1250878718136933, 0.12829600564207208, 0.1315708702192298, 0.13484825841042847, 0.13814660534060508, 0.14150184405235555, 0.14489340307989979, 0.14829795117831576, 0.15176440036359393, 0.15531542665151246, 0.1588441517559896, 0.16240990340774125, 0.16602221938656916, 0.16965925192368225, 0.17327917295709422, 0.17699469989783712, 0.18074237116678968, 0.1845784170930648, 0.1883831277540652, 0.19220385770841522, 0.19608063086005675, 0.1999903353887338, 0.20391352761028841, 0.20789045502797793, 0.2119263352640046, 0.21596116474183097, 0.22002801635946725, 0.22414454022834454, 0.22827185957350932, 0.23243798891659834, 0.2366274339904871, 0.2408480020983468, 0.24510417626313233, 0.24938476307722576, 0.2536379487880911, 0.2579850131210152, 0.262357754433463, 0.2667431172145064, 0.27116884438907846, 0.2756284658197833, 0.2801027590560789, 0.28460238115977443, 0.2891874685767737, 0.29372965624203357, 0.2982387466401991, 0.30284436234138346, 0.3074733604020839, 0.3121537368846287, 0.3168255036081239, 0.32149661821684683, 0.3262200505563501, 0.33095259751828227, 0.33572180299051235, 0.34051196890999386, 0.3453078577644844, 0.35014131988381786, 0.35500033557888044, 0.3598719554138845, 0.36476313945946526, 0.3697007633501998, 0.37462686323335587, 0.3795621662241438, 0.38452963375601046, 0.3895156638111226, 0.3944826447426043, 0.3995091864803192, 0.40460915628181165, 0.40965848543598243, 0.4147258957388274, 0.41974739147029044, 0.42485690027666695, 0.43003819658932907, 0.4351651035756511, 0.44030755489905987, 0.44542768940117056, 0.45060389379859367, 0.45576342810348264, 0.460965785131966, 0.4661773444460039, 0.4714381494144967, 0.47666254644664946, 0.48189682181718746, 0.48714251488621374, 0.49239784536570563, 0.49761199652153276, 0.5028912168352606, 0.5081835607263551, 0.5134717659308874, 0.5187651184336304, 0.5240863986098471, 0.5293861054332656, 0.5346459625470583, 0.5399615094672824, 0.5452786735574656, 0.5506132870990603, 0.5559308755516248, 0.5612501168321605, 0.566570510636654, 0.5718915379434895, 0.5771795063223306, 0.5825043692255216, 0.5878705602292065, 0.5931837609808336, 0.5984958945168614, 0.6037298489086921, 0.6090472550838338, 0.6143580798690559, 0.619660068914018, 0.6249542216124205, 0.6302302295320796, 0.6355091397670323, 0.6407676490348543, 0.6460289238518679, 0.6512795075275192, 0.6565391503171143, 0.6617647247590681, 0.666928308008327, 0.6721382140234992, 0.6773331803023438, 0.682510927297016, 0.6876753930511247, 0.6928599787501614, 0.6979873410547152, 0.7030997768789812, 0.7081090632657712, 0.7132002641170326, 0.7182651758759795, 0.723312231942512, 0.7283364795904537, 0.7333477200653948, 0.7383242679793183, 0.7432876660194033, 0.7482160231603723, 0.7531206530668132, 0.7579636945971047, 0.7628234904923279, 0.7676412846561248, 0.7724465428048716, 0.7772221340604833, 0.7819806913450602, 0.7866939575344445, 0.7913798631142674, 0.7960313220383748, 0.8006511988940093, 0.8051654035235356, 0.8097291431997682, 0.8143071585187778, 0.818788161017009, 0.8232336651555314, 0.8275876488529672, 0.8319668476901686, 0.8362759934410157, 0.8405767003134057, 0.8448341064927527, 0.8490932011129135, 0.8532575411272807, 0.8573872602435763, 0.8614666137536235, 0.8655031232284955, 0.8694577522160951, 0.873410836603892, 0.8772631289580277, 0.881127331790708, 0.8849399087058165, 0.8886936641481822, 0.8924033155418525, 0.8960572263191159, 0.8996614983522893, 0.9032122008233932, 0.9066878408105002, 0.9101328441273965, 0.9135850758704779, 0.9169095881397811, 0.9201808371892183, 0.9233817968055437, 0.9265457266973798, 0.929663769340839, 0.9327116783362426, 0.9357017873922181, 0.9385529020540334, 0.9414351495661095, 0.9442386375263884, 0.9469931707431929, 0.9496819485411114, 0.9523299835817549, 0.9548836975668409, 0.9573826246398287, 0.95980493558453, 0.962162034610493, 0.9644724437081392, 0.9666950043567923, 0.9687834097136665, 0.9708822362252668, 0.9729100091702498, 0.9749309278401149, 0.976808109192624, 0.9786043520919404, 0.9803467021634712, 0.9820190232211906, 0.9835956490919566, 0.9851294677732776, 0.9865440548565311, 0.9879374118364583, 0.9892546019339045, 0.9905198282581676, 0.9916818589716876, 0.9927722302710423, 0.9937843122567381, 0.9947214458691174, 0.995531136147047, 0.99632423777732, 0.9970487757394897, 0.9976835746481004, 0.9982406630022219, 0.9987823643670355, 0.9991762242272174, 0.9994295893653715, 0.9996829504667828, 0.9998574230892995, 0.9999872865964151, 1.0, 0.999895858110493, 0.9997601237136413, 0.9995450997804582, 0.99929216024614, 0.9989138744765091, 0.9983998344452312, 0.9978759139253144, 0.9972718682751179, 0.9966272521139027, 0.995859087239242, 0.9949828916731674, 0.99406489385661, 0.9930682849454169, 0.9920144664680774, 0.9908588697236359, 0.9896156909322263, 0.9883085603414986, 0.9869245612348542, 0.985479031082009, 0.9839402019474403, 0.9822749486567637, 0.9805924214239424, 0.9788322425726631, 0.9770161719899818, 0.9750999812184489, 0.9731293370977937, 0.9710619465625708, 0.9689220209007914, 0.9666696689360162, 0.9643906824951415, 0.9620067510091845, 0.9595848228321591, 0.9570887706403648, 0.9545938936223841, 0.951943002373908, 0.9491485431339715, 0.9463731502805196, 0.9435258310071818, 0.9406096978440653, 0.9376245094871316, 0.934623442948279, 0.9314963090826343, 0.928296742484842, 0.925044431416293, 0.9217291842502398, 0.9183264971027516, 0.9148904264477401, 0.9113607927808, 0.907804728239016, 0.9041863006468267, 0.9005237440024355, 0.8967818634818787, 0.8930151169752021, 0.8891539456489561, 0.8852385063474912, 0.8811931225234174, 0.8771808897986533, 0.873169533161233, 0.8690386731407829, 0.8648573918387027, 0.8606094657546075, 0.8563320955265025, 0.8519979462532515, 0.8476251701275224, 0.8432053250072907, 0.8387164335050038, 0.834208763530799, 0.8296340088580016, 0.825040483171153, 0.8204033340019037, 0.8157400818745779, 0.811017947979383, 0.8062271715718834, 0.8014330592985287, 0.7966011668968397, 0.7918072794578511, 0.786894692597874, 0.7819356154171139, 0.7769671085951925, 0.7719697630189088, 0.766889290657525, 0.7618441972438206, 0.7567721635548972, 0.7516704020459959, 0.746542738756428, 0.7414267459057903, 0.7362468841093092, 0.7309658948316149, 0.7257578752319276, 0.7205276404999219, 0.7152909829622817, 0.710019650249552, 0.7047459412713813, 0.6994413754749815, 0.6941239827179537, 0.6887608527996884, 0.6834258637210124, 0.6780939078111241, 0.6727365603074176, 0.6673718973537988, 0.6620514445209541, 0.6566696425304, 0.6512278663549845, 0.6458529947585064, 0.640475783914892, 0.6351458256061824, 0.6297618992080036, 0.6243079883727626, 0.6189430827948125, 0.6135801688378307, 0.6082880922211341, 0.6029251781871146, 0.5975091551316937, 0.5921754549682162, 0.5868500783717112, 0.581529385788442, 0.5762253983638298, 0.5709254338173716, 0.5656478820916803, 0.5603844945124561, 0.5551888007085927, 0.5499509419244419, 0.5447399313021369, 0.5395436932689401, 0.5343701183622885, 0.5291556316280471, 0.5240377169454852, 0.5189631985882555, 0.5138863652563282, 0.5088345945578995, 0.503779759139611, 0.49878480316372886, 0.4938554161171726, 0.4889094466072891, 0.4839943545526808, 0.47907271878534097, 0.4742264802824553, 0.46945042067015624, 0.4646622625123792, 0.45990934471928724, 0.45518427178670634, 0.4505047767659593, 0.4458278311804164, 0.44122677469751254, 0.436661894174941, 0.4321532244667148, 0.4276610679849006, 0.4232279404429666, 0.4188139022996811, 0.4144421615308877, 0.41004987790091646, 0.40577210827093946, 0.4015866977141832, 0.3973835042204658, 0.393225199676171, 0.3890498931254926, 0.38499044318725484, 0.3810167730347568, 0.3770378886561293, 0.373105684182751, 0.36917332488937615, 0.3653415949289901, 0.3615861456278312, 0.35784145300127973, 0.35414499151292983, 0.3505161804689469, 0.34691472900288967, 0.3433755466711574, 0.3398730950292124, 0.3364217272101549, 0.33294005174559443, 0.32960112362297234, 0.32635391480631243, 0.3231029368236866, 0.31990222937997176, 0.31674288263847894, 0.3136442326837359, 0.31055447457386115, 0.30756133696922705, 0.3046162043630489, 0.30174459467463743, 0.2988934239750541, 0.2960775889855646, 0.293329138889053, 0.2906302218140665, 0.28801506144232125, 0.28541103623387315, 0.28284043869982145, 0.2803413947187103, 0.2778921853389644, 0.2755107075049777, 0.27315829485615933, 0.2708621337902922, 0.26860901177317675, 0.26640566396820514, 0.26425968454672755, 0.2621535411777285, 0.2600852488140083, 0.2580778068569073, 0.25611765052793845, 0.2541430897708763, 0.25228404322949755, 0.25051785276680133, 0.24873775929904426, 0.24700316733344818, 0.24529551939287073, 0.24365279106575743, 0.24203501874627223, 0.24048030386792807, 0.23896687568484465, 0.23752762593475182, 0.23609174240818592, 0.234706125956793, 0.23335303536881755, 0.23204132661507185, 0.23069894828025483, 0.22947688427126592, 0.22829308544241875, 0.22714101547949045, 0.22602404350053065, 0.22497102476058992, 0.22391966416235928, 0.22286183401761214, 0.2218866035349083, 0.2209433936912435, 0.2200670226043608, 0.2191823126165451, 0.21829825118480298, 0.21748243506451512, 0.2166960680535276, 0.2159617397969553, 0.2152297566912582, 0.2145178191928335, 0.2138443578937952, 0.21319787963966655, 0.21256559937367642, 0.21197241730512198, 0.21140332899253092, 0.21085767752298734, 0.2103940674498228, 0.2098857535366433, 0.20940213289283743, 0.20888373781724442, 0.2084533422205959, 0.20803088588042298, 0.20763714363053484, 0.20725962248727953, 0.20694198182784584, 0.20658963962486576, 0.20621207746045084, 0.20589805465685496, 0.20559672027867004, 0.20529241860688385, 0.20501659313757145, 0.20480304663125948, 0.2045401656733707, 0.20428919279094634, 0.20402804273352518, 0.20380062803822696, 0.20358107231655487, 0.20336864755770198, 0.2031626302886151, 0.2029331644987723, 0.20274149576571848, 0.20260068712840065, 0.2024077184635163, 0.20221913167297925, 0.20205814368253122, 0.20187261319444028, 0.20163797460709745, 0.20146432575436743, 0.20128893148582863, 0.2010902078815326, 0.20091252797035158, 0.200769623849964, 0.20057783399139936, 0.20038313419066278, 0.20020090124532305, 0.19999627279644436, 0.19979362995979164, 0.19957938604004147, 0.19935993737598895, 0.1990611896104835, 0.19883839650115653, 0.19864634349395735, 0.19839524079864498, 0.19813489200707066, 0.19784573083512183, 0.19756788397694025, 0.19731750370185794, 0.19701097203231466, 0.19669432497312914, 0.1962996213407689, 0.1959694185866468, 0.19563561018921408, 0.19527257335187798, 0.19489454339836246, 0.19455361434522717, 0.1941385189190523, 0.1936545947152369, 0.19322087489550605, 0.19277025504532563, 0.19229261437436726, 0.19180922761963667, 0.19136236488372585, 0.19083662019714973, 0.1902961022028123, 0.1896790188917052, 0.18911523718355083, 0.18854592491709157, 0.1879412805975241, 0.18731802264838227, 0.18671126651945738, 0.18604618005326637, 0.18537936428610083, 0.18467843334845954, 0.1839609085740253, 0.1831982700919927, 0.1824500013905309, 0.18170866329574517, 0.1809186809419387, 0.18011093258922195, 0.17929022973226885, 0.1784457156079059, 0.17754903128378108, 0.1766726725484783, 0.17577613230564412, 0.17484152397181277, 0.17390750087367915, 0.17297196076609844, 0.17199464963547806, 0.1709984651410603, 0.1699936093259307, 0.1689588787728482, 0.16790732910146866, 0.16683692018361213, 0.16574895480757795, 0.16463250490506134, 0.16351121401865062, 0.16234102430838818, 0.16118843162750418, 0.16001687123458844, 0.15888212738097804, 0.1576671897205648, 0.156370565361342, 0.15513541292077782, 0.15388217600826887, 0.15268985158993395, 0.15139238492655568, 0.15000062772536202, 0.1486896816646593, 0.1473620800346611, 0.1460858160085695, 0.1447183833028355, 0.14333698364385478, 0.14194806714257285, 0.14054815310739766, 0.13907007173722752, 0.1376571505992355, 0.1362360228265242, 0.13479465003926802, 0.1333409004409172, 0.13187542766593827, 0.13039885820380648, 0.12889471384498868, 0.12739989629307982, 0.12589476880120767, 0.12445436487699227, 0.1229212339432846, 0.12138191450261221, 0.119840681560952, 0.11829521354632402, 0.11674663432713776, 0.11519296849546462, 0.1135964186324886, 0.1120405345212638, 0.11047923569365803, 0.10894828995462243, 0.10737350838044774, 0.10573777436141239, 0.10416742596951828, 0.10259267017296896, 0.10100828579353904, 0.09942785975608323, 0.0978861893404573, 0.0962964252386316, 0.09470799431125547, 0.09308406985231536, 0.09150406309682878, 0.08994347244794232, 0.08836238231333388, 0.08678401675812256, 0.08519678771164291, 0.08362679672064062, 0.08205321077238455, 0.08049153539011235, 0.07893398632415008, 0.07741328893983705, 0.0758616269606832, 0.07427334543819769, 0.07274270656302244, 0.0712177016700908, 0.06977131103261332, 0.06825031216458491, 0.06665643144770222, 0.06516910380751673, 0.06368853781984395, 0.0622847947631888, 0.060811142331434156, 0.059352217433265735, 0.057903794570017215, 0.05646833061780794, 0.05497357788298465, 0.05357348642805179, 0.05226001847334813, 0.05086940989126329, 0.0494938428171694, 0.048098173489393256, 0.046757233469722846, 0.04540138533743402, 0.044090838906420765, 0.04279269831562233, 0.04154371871215469, 0.04026752815683313, 0.03902950858746208, 0.03778283385139474, 0.03655382352291147, 0.035304301452428376, 0.03411548166568993, 0.032938240782361905, 0.03178149389529182, 0.030640832998757365, 0.029586943792416515, 0.02847059853971723, 0.027363216031387874, 0.02629015073296957, 0.025236909743409117, 0.024190336506578272, 0.023178136596361632, 0.022189840676861836, 0.021214843148347876, 0.020259164649267407, 0.01934495028080553, 0.01842524266074796, 0.017549339810387636, 0.01666797567623282, 0.015892772803375716, 0.0150439946831912, 0.014221217695526275, 0.013446678206083404, 0.012670478481313812, 0.011875082204335276, 0.011153745661725672, 0.010453542808516215, 0.00987072898493224, 0.00920003646120092, 0.008516213678691804, 0.007901705976432038, 0.00730941484121047, 0.006793256263967375, 0.006237572597421899, 0.0057012619236931645, 0.005194371887229072, 0.004710415041760779, 0.004285133437490521, 0.0038412470410003154, 0.0035026030804954545, 0.0030955903150577664, 0.002715973601051612, 0.0023546521750772036, 0.0020277954307254685, 0.0017803604645943276, 0.0014942155621102055, 0.0012341755738719954, 0.0009611602865068695, 0.0007555802962144708, 0.0006087925064393719, 0.00044148015482846576, 0.000297385293332535, 0.00023932652643357053, 0.00013229321723115474, 9.901769163346494e-05, 3.614169659125189e-05, 0.0, 8.693722883705306e-06, 2.077251535875554e-05, 8.720964835869285e-05, 0.00014525712698087632, 0.00022869289492513615, 0.00034574381852146315, 0.00047647988835255485, 0.0005988423439728073, 0.0007806148460067905, 0.0009832776531953909, 0.001279007409686493, 0.0015138442846463784, 0.0017672050730164434, 0.002051248166210668, 0.0023582749069765035, 0.0026888489486822367, 0.003040456993323053, 0.0034209996473006923, 0.0038152411529143227, 0.004231261528843504, 0.0047130127561373185, 0.005166270529530101, 0.005647148896871421, 0.006146591187020844, 0.006668908111915337, 0.007261913654530322, 0.007822699258393274, 0.008360768939296978, 0.008975890702347193, 0.009611659690975572, 0.010316199191205041, 0.010986874025451976, 0.011661562005079158, 0.012380420906185009, 0.013120500797417809, 0.013910772089616153, 0.014689138046659242, 0.015476881528772782, 0.016301453024767557, 0.017147130606630798, 0.01805196662618129, 0.018934671096869672, 0.019830266698241512, 0.0207597511571084, 0.021710930677874402, 0.022714770269700434, 0.023704890368892544, 0.02473810185053546, 0.025771334451495934, 0.02682806692111548, 0.027901874555806106, 0.029005244810636856, 0.030125751371697044, 0.0312739035898241, 0.032443627903102026, 0.03367606244782617, 0.03488358130615581, 0.03609781414970501, 0.03735476780019502, 0.03863398980977707, 0.03996857432910401, 0.041287985708074744, 0.04260229338483666, 0.04397321229354671, 0.045366096957479146, 0.04676697595457894, 0.048205870578353335, 0.049732582776303845, 0.051206350903093646, 0.05270583849900715, 0.054200611659123155, 0.05575453678849085, 0.0573418437141337, 0.05894128751316622, 0.060564885368200656, 0.0621885917553743, 0.06386377296305437, 0.0655469510864346, 0.06727049363088654, 0.06901688868530652, 0.0707945971003724, 0.07258692644954533, 0.07445902123516175, 0.07629366792394177, 0.07815650098181318, 0.08003730593064654, 0.0819573283243706, 0.08389456238431432, 0.08587041582202226, 0.08787307418596932, 0.08989768370577986, 0.09195510644054897, 0.09406370318394637, 0.09617243316475828, 0.09831004925387367, 0.10045147702607064, 0.10265019793410227, 0.10488564094412975, 0.10713888904699106, 0.1094209393596968, 0.11178124755727982, 0.11411534984346175, 0.11646963626836784, 0.11886957723433575, 0.12130079665494573, 0.12377035094093224, 0.12626333538481158, 0.1287449385858617, 0.13130707065280128, 0.13389870598445983, 0.13654238375334757, 0.13919151178637906, 0.14183644790817, 0.14455429682538232, 0.1473024770789678, 0.15015381441671707, 0.1529549288930028, 0.15575862835142287, 0.15863522265861998, 0.161545351548689, 0.1644841462291073, 0.1674624458303662, 0.17050460900024592, 0.1735467378677406, 0.17662466903062363, 0.17974136002877777, 0.18289036836017322, 0.18607223190171085, 0.1892933412201165, 0.19255013080751923, 0.19582053475170547, 0.1991516042517971, 0.20254237354192206, 0.20593966838191385, 0.20937341335938348, 0.21280643411121827, 0.21631779051538602, 0.21986353516229046, 0.22344398542502833, 0.22705942385412647, 0.23070708601540593, 0.2343936003639834, 0.23814573443462392, 0.24189957948851049, 0.24569093829928745, 0.24945539589248272, 0.25332958169801, 0.2572986374482807, 0.26123264893479875, 0.2652044432086436, 0.269198746596704, 0.27324741088854004, 0.27732739890794034, 0.2814493266076968, 0.28560717329107826, 0.2897888293703582, 0.294019862101688, 0.29826683481444927, 0.3025703321880147, 0.3069077410208385, 0.31127312071656826, 0.315679333037674, 0.3201252780697892, 0.32459814663323544, 0.3291000113497167, 0.3336414340757395, 0.3382163224007047, 0.3428365930206037, 0.34747643537026124, 0.35214689066165783, 0.3568540407334343, 0.36159397884149663, 0.3663502969138187, 0.37115682998670224, 0.3760092729320304, 0.3808753257380421, 0.3857725270840553, 0.3907014472747676, 0.3956595026310494, 0.40062230303306334, 0.40564278087673705, 0.41069074004185857, 0.41578195460474765, 0.4208819018982535, 0.42598912500018843, 0.4311458200620409, 0.4363276754764116, 0.44149108657414465, 0.44672748860732314, 0.45195417673137894, 0.4572372330340529, 0.4625396029674442, 0.4678863680703253, 0.47322398705074686, 0.4786040563618652, 0.48397908279267005, 0.4893746717400188, 0.4947307910245463, 0.5001727270188681, 0.5056506950337828, 0.5111195083698875, 0.5166037264126879, 0.5221167881603708, 0.5276281162825694, 0.5331466103337732, 0.5386863788996028, 0.5442382422030657, 0.549794346480477, 0.5553688062586188, 0.5608801030451402, 0.5664812445027985, 0.572085837802314, 0.5776835499931513, 0.5832953681985557, 0.5889260294017052, 0.5945387555997709, 0.6001532094650371, 0.6057756795418897, 0.6113904183685925, 0.6170059134741772, 0.6226190992871931, 0.6282302076943412, 0.633757870724728, 0.6393719996665331, 0.6449704841730483, 0.6505657435279438, 0.6561501535809768, 0.6617603571315347, 0.6673166875185063, 0.6728473456197778, 0.6783833236735924, 0.6839057213893929, 0.6894035152487711, 0.6948970624831181, 0.700308137440476, 0.7057746336647106, 0.7112183089709361, 0.7166245824713208, 0.7220227612735489, 0.7274015553794115, 0.7327475032999788, 0.7380670142847402, 0.7433391566893018, 0.7486057691874738, 0.7538542056719614, 0.7590580077871597, 0.7642305568750059, 0.7693426972444916, 0.7744531972081742, 0.7795086175121738, 0.7845486750362554, 0.7895498711259686, 0.7945636417444647, 0.7994780240396623, 0.8042845647803449, 0.8091293124860748, 0.8139289303675564, 0.8187318720968734, 0.8234326187885835, 0.8280553601348294, 0.8326692934632698, 0.837233918445794, 0.8417090428419824, 0.8461769675052594, 0.8505883089455397, 0.8549466101817281, 0.8592487193201673, 0.8635249847595761, 0.8677083408561473, 0.87185183803669, 0.8759180176517466, 0.8799259519866236, 0.8838331955252542, 0.8877261247544376, 0.8915839716715082, 0.8953439469338593, 0.899039664401019, 0.9026419051899295, 0.9062094284964287, 0.9096687405258642, 0.9131023737371089, 0.9164631926016392, 0.9197718115466136, 0.922982839174834, 0.9260754555512273, 0.9291450480866719, 0.9321373916603092, 0.9350561114166285, 0.9378922253300046, 0.9407062800174691, 0.9433780976378676, 0.945973662709332, 0.9484236331110912, 0.9508723172571344, 0.9532430127568106, 0.9555246972916435, 0.9577229445048328, 0.959873495446541, 0.9618989940220675, 0.9638216698022992, 0.9656835085360482, 0.9674600375150626, 0.9691095490540782, 0.9707191408323749, 0.9723039175482665, 0.9737270064394351, 0.9750642914065084, 0.9762718756393667, 0.9774409873521785, 0.9785169284568025, 0.979505910096539, 0.9804041717588711, 0.9811984849770042, 0.9819164618486296, 0.9825425003416154, 0.9830765584318658, 0.9835185919966892, 0.9838896574949806, 0.9841448490100021, 0.9843151139090704, 0.9843874400341863, 0.9843687955289262, 0.9842188135997882, 0.9840228154671421, 0.9837472386507214, 0.9833624290295107, 0.9828852735823607, 0.9823219392544345, 0.9816597613542424, 0.9808728840312422, 0.9800319536664576, 0.9790979275637498, 0.9780622218630343, 0.976944516785748, 0.9757225097821188, 0.9744223588022269, 0.9730303187698636, 0.9715369486246049, 0.9699642074788817, 0.9683218988675129, 0.96656581776439, 0.9647215661076269, 0.9628006697066628, 0.9607801180351971, 0.9586413390181713, 0.9564531417302742, 0.9541779770878963, 0.9518045499791378, 0.9493592591024184, 0.9468517175637826, 0.9442336485660179, 0.941533237224123, 0.9387521574049047, 0.9358889651419364, 0.9329033657597812, 0.9298858247906763, 0.9267871961250719, 0.9236749133669517, 0.9204090702246976, 0.9170219532640203, 0.9136145265949938, 0.9101315541324131, 0.906554989034281, 0.9029264738577943, 0.8992094181407166, 0.8954370869294669, 0.8916079364044169, 0.8876912405613484, 0.8837061241204083, 0.8796376766438977, 0.8755212503623677, 0.8713791964434466, 0.8671273613924736, 0.8628145697468049, 0.8584257141708492, 0.8539959832764245, 0.8494933384642762, 0.8449488906773189, 0.840347219758038, 0.8357167952039447, 0.8310012729034205, 0.826226038597368, 0.821409312094344, 0.8165427461909356, 0.8115713265969867, 0.8066159676647656, 0.8016566324816872, 0.7965989336374264, 0.791498053811003, 0.7863563138426848, 0.7811729067400103, 0.7759423250507695, 0.7706830072274471, 0.765386806740464, 0.7600501349360286, 0.7546851122955168, 0.7492500633537765, 0.7438255228834744, 0.7383690100238993, 0.7328601981880541, 0.7273478291655165, 0.7218205279751273, 0.7162523685474023, 0.7106605946397424, 0.7050790045741958, 0.699440848152649, 0.6937405259809972, 0.6880754922386196, 0.6823936015987838, 0.6766975540430651, 0.6709868718800753, 0.6652643689480138, 0.6595316326403007, 0.6537902237854006, 0.6480617737341194, 0.6423050665600915, 0.6364870845254116, 0.6307330587777297, 0.6249753913599388, 0.6192419908263891, 0.6134790356956041, 0.6077200983240799, 0.6019644595027042, 0.5962147066497833, 0.5904621665464591, 0.5847295633873656, 0.5790324833738848, 0.5733167886543714, 0.5676147596211396, 0.5619205192075164, 0.5562501842274296, 0.5505976070206019, 0.544961874371502, 0.5393453913079869, 0.5337262504256203, 0.5281547862001728, 0.5226219382976831, 0.517092750002889, 0.5115887517648671, 0.5060709174491197, 0.500625858374849, 0.49523732769706263, 0.4898426768233564, 0.4844789432790466, 0.47914923611052124, 0.4738503642404464, 0.4685506022821477, 0.46332575823470623, 0.45813526009919564, 0.45300651081206567, 0.44788518864297483, 0.44278527914601973, 0.4377461619202672, 0.4327473545668812, 0.42778888416505717, 0.42287388263538495, 0.4179689658016519, 0.41314557330548224, 0.40836539671341526, 0.40362655665963776, 0.39893653287300934, 0.3943389885997959, 0.38973662156234956, 0.3851850086578821, 0.38062335805851905, 0.37618249088159444, 0.3717924270704463, 0.36744986774228494, 0.3631580938791583, 0.3589480713079766, 0.3547564696582913, 0.35062366299459136, 0.34654152171326646, 0.3425151965671622, 0.3385148926203978, 0.3346050377669352, 0.33071714767317384, 0.3269222703824097, 0.3231816927042722, 0.31951019921039137, 0.3158785215879329, 0.3123149190823745, 0.30879628456624036, 0.30533603558602157, 0.3019715623814106, 0.29862399832743813, 0.2953183705672653, 0.29209510099348734, 0.28893145237763973, 0.2857972807806203, 0.28275666512704983, 0.27978498081702513, 0.2768589208164573, 0.2739917032346007, 0.271209467024658, 0.26845664819362053, 0.265724910237266, 0.26309729493690215, 0.26052718010611503, 0.25798445136495096, 0.2555331878696438, 0.2531979711209925, 0.250850755186569, 0.2485629075278724, 0.24628171230329482, 0.24411780079414605, 0.24200289263086527, 0.2399497577424148, 0.23795116271263658, 0.23599896204688403, 0.23411008607206676, 0.23234414436661732, 0.2305535232140003, 0.22881996034321214, 0.2271184917077508, 0.22549956839470178, 0.22392382328868343, 0.222412029731158, 0.22095170542261078, 0.219563420770209, 0.21820176034660257, 0.21684489010339958, 0.215590334370002, 0.21438268559039753, 0.2132486930295126, 0.21213024662545982, 0.21099666655994487, 0.20997969302388883, 0.20900492668211348, 0.20812236254825534, 0.20722486154123165, 0.20640360502566354, 0.2055893829932628, 0.20481937128012193, 0.20407035795212922, 0.2033882668406432, 0.20268762891439676, 0.2020915070514464, 0.20153012996049252, 0.201034252054394, 0.20053718756269298, 0.2000441130211423, 0.19962044970003986, 0.19922853886688086, 0.19888185792161922, 0.1985498633229658, 0.19829373124115296, 0.19801649907273577, 0.1977707974818976, 0.19750115515699462, 0.19732176001758822, 0.1972024620560763, 0.19706779067896305, 0.19695860912845542, 0.19685881452808812, 0.19679943418041274, 0.1967284794594828, 0.19671557666687847, 0.19672063207578425, 0.19674704212555036, 0.19678560144051443, 0.1968835745502474, 0.19694833844337323, 0.19703021023415956, 0.19709489420713286, 0.19721178356099436, 0.19731646908002548, 0.19745943155597007, 0.1976113489606299, 0.19778365721530694, 0.19795006627072295, 0.1981834350288112, 0.1983569105948595, 0.19846342835836286, 0.19866407522564142, 0.19886731770290253, 0.19909167752565674, 0.19929596375241138, 0.19955638550683097, 0.19975677476004491, 0.19996049776028466, 0.20008996653660263, 0.2003063864145296, 0.20051934561080423, 0.20072625501138563, 0.2009278202276347, 0.20117878560828464, 0.2013611058498272, 0.20153756635571435, 0.20171142805608905, 0.201879346783708, 0.20204945516189493, 0.20220165179939661, 0.20232368837000803, 0.20246169130853883, 0.20258868473272143, 0.20268696755367602, 0.20279225376871937, 0.20287470900257162, 0.202953120088514, 0.20301634865885723, 0.2030449310617566, 0.20307907863951888, 0.20309884159063718, 0.20309757060253827, 0.20307856910098926, 0.20305761008941342, 0.20300019545880735, 0.20293405647572627, 0.20283950785498986, 0.20272679945500602, 0.20255925801454205, 0.2024133185820654, 0.20226484062888986, 0.20207308686313705, 0.20186047496197085, 0.20160558379433025, 0.20135296973370206, 0.20108743028065268, 0.20078748412793823, 0.20046488909020388, 0.2001113976445236, 0.1997438996688115, 0.19934566299193895, 0.19893152374222392, 0.1984930478505757, 0.19809548729371548, 0.19759991151343248, 0.1970553624114722, 0.19652108440660843, 0.19596330064687173, 0.1953797843519116, 0.19477462355956224, 0.1941231835210031, 0.1934723589818697, 0.1927959278862527, 0.19215429501094514, 0.19141939229042843, 0.19058627579093013, 0.1898169671913642, 0.1890208783102503, 0.18819638630706115, 0.18734813075415419, 0.18648915606106303, 0.18558776635585594, 0.18466212267450868, 0.18369836546975216, 0.1827266194919656, 0.1817435330633238, 0.18072167364919892, 0.1796768241681696, 0.178639355161931, 0.1775454108807859, 0.17643892547466336, 0.17530282778288694, 0.17414668619218107, 0.17293537254236502, 0.1717437470899207, 0.17054240446714103, 0.16930615082881964, 0.16804968880112267, 0.1667673388373108, 0.1654722827674623, 0.16419695256834835, 0.16285846171201293, 0.16150359265327074, 0.16005712562316457, 0.1586794804078876, 0.15729081020301738, 0.1558727528875146, 0.15443682807492481, 0.15304604711953476, 0.15156864081480692, 0.15002067504927408, 0.14852622397629064, 0.1470165770763583, 0.14553565217441689, 0.14399227414714097, 0.14240907480348675, 0.14084832924481003, 0.13927592698459124, 0.13771156605825505, 0.13611525683474843, 0.1344669715004169, 0.13285902478626643, 0.1312407868486987, 0.12964221868853348, 0.12800215566909098, 0.1263206565497299, 0.12467300923144756, 0.12301814545985208, 0.1213860097248687, 0.11971542144933947, 0.11807173210661923, 0.11639134148861618, 0.11471039804342709, 0.11304022283220096, 0.11135762017517653, 0.1096046626921554, 0.10793332319810166, 0.10625955990378107, 0.10462448709703749, 0.1029435276728169, 0.10128112983393217, 0.09960359780003006, 0.09793043933296564, 0.09627308201753938, 0.09460842208020125, 0.09286655349563476, 0.09122515266604614, 0.08958597324870168, 0.08800132076029296, 0.08636323304040261, 0.08474530510809782, 0.08312237546787489, 0.08150918113433679, 0.07991112951687439, 0.0783179345753777, 0.07669776440419963, 0.07513218250376064, 0.07357642681974094, 0.07206134473529813, 0.07052351627835714, 0.06895703494337974, 0.06745201358950798, 0.06595893406582223, 0.06447149103496802, 0.06300532840982596, 0.061565842272650675, 0.06012593199457961, 0.05870167905667887, 0.057297596956248045, 0.0559056139881076, 0.054519885940848015, 0.053164319332968044, 0.05182623600417688, 0.0505472980006995, 0.049240352672749184, 0.047932433053281924, 0.04667061336384082, 0.04542884650550136, 0.044254644089842095, 0.04304787282890919, 0.04184154398972052, 0.04068468775792607, 0.0395499067446113, 0.038484574979930006, 0.037388435274731256, 0.03629539188155389, 0.035252237469258936, 0.0342326712920874, 0.03323976749420982, 0.03226719224544001, 0.03134673131563642, 0.030418636866630076, 0.0295162628479793, 0.02864249102855925, 0.027790813467386457, 0.026975777642823905, 0.02617381339617401, 0.025397945904123146, 0.024705331901354887, 0.023974104279600048, 0.02325785963030426, 0.022586005985102967, 0.021941478939519504, 0.021400386044751002, 0.02080014213266027, 0.020240921774116623, 0.019700604376914232, 0.019190418988520017, 0.01869565694408896, 0.01824567734483025, 0.01784648219490952, 0.017448641556178843, 0.0171817232696847, 0.016827414055173563, 0.016506575206088912, 0.016219106161325336, 0.01596191012519751, 0.01576850020565033, 0.015567645964044063, 0.015397932947950664, 0.01530980186542081, 0.015193600765071386, 0.015063116149353455, 0.015015709634383373, 0.01499593322848064, 0.015073808368869011, 0.015099519859986768, 0.015203246228990313, 0.015283827018059016, 0.015396462301139549, 0.015489980172031195, 0.015670395382206957, 0.015990128930708787, 0.01620968954363492, 0.016461984115493634, 0.016769078122401634, 0.017080923512223928, 0.017444154383993934, 0.017815171921774738, 0.01821698676873012, 0.01859854977420221, 0.019065983782742064, 0.019610515427289425, 0.02012306335948171, 0.020664127946362805, 0.021271399813717694, 0.02186326721566826, 0.02245336584404332, 0.02310730192635976, 0.023787696457402627, 0.02457570770589513, 0.025298082555207446, 0.026067972756570756, 0.02684825450408041, 0.02765842202061395, 0.028510782392418485, 0.029376900633613978, 0.03023949427642178, 0.03116632336745488, 0.03211883587246277, 0.03314304585220786, 0.03414049785186005, 0.0351445959358322, 0.036199703521244034, 0.037280428503054255, 0.03840765464321892, 0.039536327033008, 0.04074247457945135, 0.04191682179182161, 0.04311969045760367, 0.04435545195666916, 0.04561285244857195, 0.04687121059860041, 0.0481856008947624, 0.0495247184576174, 0.0508974586132514, 0.05228446846284408, 0.053737531594730506, 0.055168891514359726, 0.05662712773919317, 0.05814093280487766, 0.059647962842744685, 0.061119044694143504, 0.06268826107690291, 0.0642803116015087, 0.06594254584690501