0.033041882939297294, 0.03267913508603865, 0.03235798288877775, 0.032110761968134116, 0.03185089539209232, 0.0316519327309149, 0.03143990033728343, 0.03124996541035508, 0.031015887394960695, 0.030868514145669757, 0.030692812105765046, 0.030568672348446214, 0.030449637073753276, 0.030392488923258063, 0.03027471569404715, 0.030114734250018295, 0.03001660277014417, 0.02992173225077512, 0.029816611527372566, 0.02973055366625336, 0.02966411830677715, 0.029582918564069857, 0.029506880828437543, 0.0294118257652703, 0.029350533728349937, 0.029247922972391507, 0.02920352570096349, 0.029163079155367214, 0.02915224354435048, 0.02911969302236981, 0.029087255581951195, 0.029073049384598315, 0.029068024142532106, 0.029061929271638753, 0.029078665190334533, 0.029089509318671842, 0.02913000684025258, 0.02918138298512772, 0.029217013779738645, 0.02929569189946357, 0.029445842803962525, 0.029540360077555436, 0.029651083938022557, 0.029723509852669232, 0.02987407834199034, 0.030008238970480532, 0.030190559293459297, 0.030386048011283487, 0.03057086685040566, 0.030798029734688943, 0.031014467222480496, 0.031273269923347266, 0.03158431114011629, 0.031867032083686325, 0.03216743597987584, 0.03240660321609446, 0.032753450671159846, 0.033169209240266485, 0.03353853916378284, 0.03392692749103338, 0.034326477658957216, 0.034754913462472364, 0.03522193975457214, 0.03568718272292093, 0.036173572443742516, 0.0366292970418073, 0.03716494491211509, 0.037741105235204374, 0.038311840553652235, 0.03890353879580942, 0.03951104315356661, 0.04014627928526467, 0.04083314304362265, 0.04150801507434291, 0.0422067725405624, 0.04289667461104739, 0.04364756779653913, 0.04442349998373321, 0.04521905002021421, 0.046037828555695305, 0.04687197744947247, 0.04773927148362883, 0.04855652710394751, 0.049481089243286515, 0.05042604301287316, 0.0514524854720439, 0.052433393468502426, 0.05344068218234947, 0.05447459092588028, 0.055535356753584376, 0.05663415007083432, 0.05774795150533543, 0.05885165157461084, 0.06002677871132743, 0.06122822481617802, 0.0624810621766119, 0.06373340856582696, 0.06500109960111009, 0.06631338647005353, 0.06765429028232217, 0.06904050933957706, 0.07043744561860985, 0.0718046210123872, 0.07327005078762992, 0.07476273930549342, 0.0762559625355454, 0.07780840869215482, 0.07938004963095609, 0.08098899762657126, 0.08262615395216404, 0.08431945617505919, 0.08601130265603192, 0.08774542578583905, 0.08949876424521659, 0.09128441663965958, 0.09307510142922008, 0.0949289974763561, 0.09683294919341201, 0.09874651083894555, 0.10069252339224415, 0.10261906821064638, 0.10463660884373598, 0.1066782531656184, 0.10875603420929202, 0.11086383005414892, 0.11306484863205424, 0.11522565786174595, 0.11737162562192097, 0.11960705688725677, 0.12187344465875538, 0.12414081349015749, 0.12647317015456788, 0.12888145585802016, 0.13126708506834087, 0.1336851986779935, 0.13611641550445713, 0.13860118159900164, 0.14116855977660367, 0.14370799995898456, 0.1462808064399091, 0.14881807543193554, 0.15146461163798325, 0.15416643250388337, 0.15686548076197976, 0.15959411352691535, 0.16233569311364074, 0.16512485117065628, 0.16795286502776702, 0.1707963404770866, 0.1736680393031708, 0.17652393622011794, 0.17945674441521342, 0.18246636713526085, 0.18544237769396602, 0.18844616925965973, 0.19141436311386684, 0.19448016640070098, 0.19757966260383802, 0.20068960968704058, 0.20382288745415322, 0.20702030580160827, 0.21019442699389904, 0.21331692030107643, 0.21654991398163506, 0.219802252199593, 0.22315866914477536, 0.22643886904268676, 0.22969644669512423, 0.23302933700308695, 0.23638172080986047, 0.23973946917334604, 0.2431311655246699, 0.246597551141887, 0.2500161336360754, 0.25345435747206324, 0.25684020679681957, 0.2603239190210259, 0.2638232920257971, 0.2673322257311503, 0.2708536152109499, 0.2744034566870451, 0.27794642383187645, 0.2814631569162333, 0.2850343917804292, 0.28861420330708704, 0.29222409060922183, 0.2958171249512193, 0.29940776458988116, 0.3030185744164084, 0.30663591761411796, 0.3102646285855117, 0.3138924221800157, 0.3175688231945642, 0.3212000728342182, 0.32483713689468025, 0.32840507839625355, 0.3320597628964067, 0.33568276703032673, 0.3393375914529034, 0.34298817818227634, 0.3466724993053387, 0.3503087959097086, 0.35396102629739373, 0.3575876925127992, 0.36121060464472865, 0.3647631641882934, 0.36838390897702805, 0.3720106787738079, 0.3756081533484616, 0.379195229257595, 0.38276848605193065, 0.38633301807375103, 0.3899477222462266, 0.3934781426854636, 0.39699785957414185, 0.4004044185955595, 0.4039116494338608, 0.40744245475433766, 0.41090344973503273, 0.41434591962724576, 0.4177635433163711, 0.42116708272776276, 0.42453826287532787, 0.427899498764487, 0.431237008848691, 0.4345117475055535, 0.43780430827938777, 0.4411096288101918, 0.44433999428234694, 0.447543331451644, 0.45072416720848013, 0.4538699358846694, 0.4569533608687975, 0.4600432236468314, 0.46309976134034314, 0.46612501249157595, 0.4691124453716875, 0.47208095731352606, 0.4749948916682348, 0.4778728573727381, 0.4806619830286846, 0.48347180065887785, 0.4862509105472835, 0.48897557690003707, 0.4916582068913609, 0.49431455486392856, 0.4969090724473374, 0.49951514731983926, 0.5020156834827434, 0.5044745136275807, 0.5069067833730287, 0.5092764188183888, 0.5115224009907001, 0.513812100549805, 0.5160697534910951, 0.5182542187869299, 0.5203876563156844, 0.5224748910318797, 0.5245036575452937, 0.5264688524147788, 0.528393056627999, 0.5302626789606748, 0.5320662250887039, 0.5338263910393712, 0.5355488284687724, 0.5371923839850887, 0.5387792224445864, 0.5402868518155662, 0.5417611750976858, 0.5431156010497955, 0.5444776308129735, 0.5457757469627829, 0.5470592458749611, 0.5482235176488266, 0.5493677384363691, 0.5504042470444989, 0.5513810858968075, 0.5521717324070036, 0.5530428829128139, 0.5538834359385519, 0.554612402910245, 0.5552753616461688, 0.5558640509672297, 0.5563958284357496, 0.5568800320293802, 0.5572759213879855, 0.557606061330762, 0.5578401474253903, 0.5580419023678916, 0.5581810201889648, 0.5582459169855625, 0.5582430853459355, 0.5582545107586826, 0.5581057651181311, 0.5578527985173332, 0.5575821251152869, 0.5572446550575278, 0.5568046640461212, 0.5563375753342499, 0.5558012471771107, 0.5551958847069388, 0.5545216904789979, 0.5537733994430077, 0.5529628429957817, 0.5521220380164736, 0.5511698588891253, 0.5501518288679437, 0.5490597069831548, 0.5479109386546749, 0.5467095431694154, 0.5454266105486875, 0.5440784930633131, 0.5426461628327157, 0.5411704648876335, 0.5396289627088479, 0.5380220431845474, 0.5363501117268428, 0.5345889881717582, 0.5327914345478845, 0.5309151473568521, 0.5289898707500374, 0.5270001123376841, 0.5249575857261166, 0.5228398013851905, 0.5206905146084096, 0.5184464352406417, 0.5161437859256757, 0.513796661740603, 0.5113764606409734, 0.508861574407744, 0.5063338139594563, 0.5037483909327202, 0.5010787906171401, 0.49838397169311494, 0.4956761764170541, 0.4928634480151272, 0.4899985470402978, 0.48705753489002496, 0.48409342598692734, 0.4810669124825033, 0.47800219529070953, 0.4748872918849676, 0.47177791762289917, 0.4685588395508195, 0.4652547353109923, 0.4619533880238415, 0.458606941616764, 0.45519454135233073, 0.45176371334774074, 0.44832789293186337, 0.4448069011945201, 0.44124718957478193, 0.43759221863976244, 0.4339649643337861, 0.430303926782948, 0.4265988877126364, 0.42285768612667585, 0.4190624838109603, 0.41525525019243176, 0.4114200804446386, 0.4075467432833603, 0.4036430666268084, 0.3997458790539698, 0.3957808775029997, 0.39177767251535184, 0.38776628210241526, 0.38373151649133247, 0.37967448155031164, 0.37559628942743317, 0.37147345420804995, 0.36735941941573746, 0.363226219035689, 0.35905331568496635, 0.3548885288810227, 0.3507565000234568, 0.34655404681444324, 0.34234078178645266, 0.33809856146856926, 0.33386909200966525, 0.3296553791864806, 0.3254063058711417, 0.32115216603060304, 0.3168584165900725, 0.3126016468501311, 0.30834633222166663, 0.3040821831524873, 0.2998169808934322, 0.295535574167554, 0.2912740807428845, 0.28702253029681796, 0.28276482831128374, 0.2785119906149724, 0.2743007818523353, 0.27005683892797205, 0.26574136914564916, 0.26152966353024293, 0.2573256500043589, 0.253215667964707, 0.24902103170139914, 0.24478874870159234, 0.24063581093641948, 0.2364983203575182, 0.23238023823916662, 0.22827694879719046, 0.22422839351608534, 0.22016012059637946, 0.21611525542383325, 0.21207545202231784, 0.2080822083553838, 0.20410277596997667, 0.20016138771778577, 0.1962460794818033, 0.19232235422595487, 0.18846680230039412, 0.1846301890979653, 0.18083121097484162, 0.1770613675817607, 0.1733410053173108, 0.16963058215652257, 0.1659920973290737, 0.16234505618734008, 0.15873558138141017, 0.15510679031487531, 0.1515813001780612, 0.14812457370343007, 0.14466786707363094, 0.1412509366555804, 0.13788263188238956, 0.13454614668863168, 0.13128733815685076, 0.12803117209589385, 0.12482020694141786, 0.12157266555404579, 0.1184632081340505, 0.1154470741152017, 0.11241477142424434, 0.1094286159380584, 0.10642613958706436, 0.10354144796854894, 0.10076892064124124, 0.09796411132904982, 0.09520865235030858, 0.09244259127050561, 0.08979401376145178, 0.08723573180808124, 0.08467540962390137, 0.08216538600974524, 0.07970312874369109, 0.07729464038987709, 0.07489312333280884, 0.07259177355006884, 0.07033903112318299, 0.06814359699876006, 0.06598846874226659, 0.06390832825899193, 0.0618511147639256, 0.059846139598632185, 0.05788244437866673, 0.0559832446900953, 0.05413282301306967, 0.052337013067992495, 0.05059530968670908, 0.0489018896280412, 0.04725994782306088, 0.04566666343129795, 0.04412773905800168, 0.042653477054552094, 0.04121467669301607, 0.0398273429829546, 0.038499383815457186, 0.03721305593458805, 0.035936736686606886, 0.03475723312681755, 0.03362565618664979, 0.032596610242211325, 0.03155371119404379, 0.030602460391912056, 0.029655014862747766, 0.02875923940152856, 0.027884116955371983, 0.02709269898252324, 0.02627476106732668, 0.02558669078686198, 0.024940632564324446, 0.024358482683688416, 0.023793685951304537, 0.02331846147577143, 0.022833625454209264, 0.02239374094031918, 0.021970665337161653, 0.021621739943684007, 0.021316589320755468, 0.0210488480582562, 0.020821176130492353, 0.020605620660967335, 0.020459682788549233, 0.020383191872147197, 0.020305945656326117, 0.02026625333207934, 0.02027699589424084, 0.02030831581845495, 0.020337309338858578, 0.020444453060039683, 0.020583586808201812, 0.020803334390472647, 0.020998440771032925, 0.021234653507789174, 0.02149346477770392, 0.021783529610814947, 0.022027213635637394, 0.02238622713695311, 0.02281275339223754, 0.023213379918187244, 0.02363937485301206, 0.024141818663148823, 0.02460939410969362, 0.025064383953815893, 0.02558688438889625, 0.026130394608019657, 0.026756903428503464, 0.027331819307022432, 0.027898541795456644, 0.028519628069767846, 0.029158192046055915, 0.02988428807929274, 0.03054576990550422, 0.0312612510947726, 0.03195362645624069, 0.0326634790180495, 0.03342196451450298, 0.03415778210358955, 0.03487821045888284, 0.03564557577845449, 0.036422808916811725, 0.03732083122957973, 0.03810019626716321, 0.03890333983865786, 0.03970511056286931, 0.040516698426994416, 0.04132548022972697, 0.042153159251764535, 0.04304825614464799, 0.04387584070549665, 0.04470913361590624, 0.04557664629137132, 0.04641300746397917, 0.04730988459959713, 0.048143762781235035, 0.04898122397977057, 0.049806944216870444, 0.05064849513585323, 0.05154850544408632, 0.05237797232388268, 0.0532070104169509, 0.054036953088130675, 0.0548607285789135, 0.05569957522954397, 0.0565117612932014, 0.05731898290959406, 0.05816398702099384, 0.058952870862098404, 0.059810375069028685, 0.060578475231606844, 0.061343510785166734, 0.06206850685543911, 0.0628277691105128, 0.06362736375520424, 0.06436195965463892, 0.06508914337108612, 0.0658216612628844, 0.06652964346627326, 0.06729416911807276, 0.0679750101025852, 0.06864914585083545, 0.06933193235532832, 0.06998758988162514, 0.07061561095353472, 0.07125590718939656, 0.07188519046385176, 0.07257688020479958, 0.0731737062030816, 0.07378732096977272, 0.07436463811221823, 0.0749341192356066, 0.07549231827302905, 0.07604446879457764, 0.07658687777922694, 0.07711921478997118, 0.07764124370575566, 0.07817741759172125, 0.078675342597221, 0.07913950487270836, 0.07962208252228933, 0.08009391894952898, 0.08058802956653778, 0.08103490631130321, 0.08145449541425014, 0.08188754802603238, 0.08231155574246085, 0.08280339822202899, 0.083200671065517, 0.08357788964055914, 0.08396974406528247, 0.08435675010126152, 0.08471444148130712, 0.0850953435685986, 0.08547336223888512, 0.08584320633294462, 0.08620865758200535, 0.08666321686837909, 0.08700981101379227, 0.08728788058685981, 0.08764844676393278, 0.08800744444600286, 0.08841201226114276, 0.08876401153904083, 0.08908630320244917, 0.08944899961421994, 0.08981372367494414, 0.09019488392453144, 0.09056417405105456, 0.09094947246381543, 0.09132821249364363, 0.09171404176481748, 0.09213221999497012, 0.09253111938191191, 0.09291048835965775, 0.09333482918421829, 0.09376918834447291, 0.09421446259114126, 0.09467156111300871, 0.09516600863133053, 0.09564641669042237, 0.09614282145966678, 0.09661223306125571, 0.09714844656049675, 0.09767320958070139, 0.09824584363945786, 0.09883518815555783, 0.09955743189132538, 0.100169743033045, 0.1007654466664812, 0.10143788071641235, 0.10213572662779678, 0.102829745272037, 0.10358473758003238, 0.10437695196311633, 0.10518426929956484, 0.1060207400337288, 0.10690378383680404, 0.10779953551123572, 0.10871473467633018, 0.10967932363629118, 0.11067802641524996, 0.11164077266180991, 0.11271970988911267, 0.11386185170121045, 0.11500481356353713, 0.11618564034638923, 0.11736996236317707, 0.11863448562910399, 0.11999022501799451, 0.1213280830946515, 0.12265336430767584, 0.12408895926133262, 0.12556778630457327, 0.12713485235915484, 0.12869834933668123, 0.13022366825946927, 0.13189757499526739, 0.13361735314421627, 0.13543911099385864, 0.1372479211892871, 0.13908782194596417, 0.14100605116969447, 0.14297745891006913, 0.14499471435367653, 0.14707608811882186, 0.14921814267208502, 0.15141007571053594, 0.15365913568680586, 0.15593868421103316, 0.1583075218708856, 0.1607339576360287, 0.16321881990243353, 0.1657628816919315, 0.16838326699161443, 0.17104576880741645, 0.17377587878992148, 0.17656242215270956, 0.17941229181377671, 0.18229577497256033, 0.185277157928125, 0.1883047977522617, 0.19141411786618853, 0.19458621505888787, 0.19781073265155782, 0.2011114406287224, 0.20448406784247716, 0.2079116666430902, 0.2114043650708093, 0.21495699998225842, 0.2185814548425937, 0.22225507272668116, 0.2260129453883651, 0.22983584069958432, 0.233702140232644, 0.23765854246643736, 0.24167385287688709, 0.24575995649463497, 0.2499105735479103, 0.25410946313912813, 0.2583915973163798, 0.26273760617944, 0.2671475876971296, 0.27162156576563407, 0.27618136546620464, 0.2807803706510024, 0.28540326641630803, 0.2901368475859862, 0.2949321846907584, 0.2997399311014381, 0.30466451534301314, 0.3096283314987563, 0.3146721270938471, 0.31977321806751363, 0.3249616757801698, 0.3301734421479675, 0.33541379170778723, 0.3407461181462938, 0.34613424986625435, 0.35153675753214836, 0.35704033685840303, 0.3626615280248131, 0.36826049557259366, 0.37391440644143387, 0.37959487679275195, 0.3853589702794775, 0.39110492171226885, 0.3969771688300979, 0.40289394711469556, 0.4089450331605025, 0.41493803994008216, 0.420935260609042, 0.4270282380072178, 0.43316378141885303, 0.4392806369543848, 0.4455055433706844, 0.45176891828011345, 0.4580642014827105, 0.4643937836442172, 0.47077038222929074, 0.4771639020810735, 0.48364955154016687, 0.4900981646956635, 0.496579545024677, 0.5030153007482773, 0.5095663787170585, 0.5160939773731077, 0.5226957461815277, 0.5293154865705824, 0.5359686766889268, 0.5426194121803714, 0.5492805066338814, 0.5559622555483386, 0.562656802958041, 0.5693080726191496, 0.5760308747460442, 0.5827535794853568, 0.5894867029532297, 0.5962225734600063, 0.602998215964158, 0.6097309134788331, 0.616467253958906, 0.6231996433014853, 0.6299295117144822, 0.6366085407772439, 0.6433336979782956, 0.6500590896145507, 0.6567599560023651, 0.6634476670775775, 0.6701041216621065, 0.676762468451784, 0.6833960832797071, 0.6900149404617623, 0.696610884344564, 0.7031494303411358, 0.709698624323684, 0.7162069935679513, 0.7226962861542425, 0.7291520110407832, 0.7355917853585409, 0.741973344316442, 0.7482821608451434, 0.754591995947594, 0.7608589959091759, 0.7670706732800006, 0.7732486848288942, 0.7794058031147718, 0.7854823177286996, 0.79150894227388, 0.7975330189868118, 0.803448044747547, 0.8092748115540939, 0.8150866420279651, 0.8208393163323556, 0.8264954425926117, 0.8321287566918587, 0.8376790088227614, 0.8431795622831438, 0.8486094865542121, 0.8539536983861417, 0.8592398244410409, 0.864461175706572, 0.8695931338043852, 0.8746472402837913, 0.8796247318789316, 0.8845182949596891, 0.889365201742418, 0.8940883615170847, 0.8987282928005537, 0.903250407352838, 0.9077227312392157, 0.9120856485036921, 0.9163784777324053, 0.9205772275804156, 0.9246479001465872, 0.9286590600875849, 0.9325679861324317, 0.936379567166174, 0.9400896211986857, 0.9437327419084174, 0.9472323956198107, 0.9506132354599359, 0.9539088786400649, 0.9570987004263237, 0.9601679718071017, 0.9631447189611627, 0.9660637018202293, 0.968813584901108, 0.9714549220270464, 0.9739563687722135, 0.9763806686443431, 0.9786145788618845, 0.9808200426829526, 0.9829057443416449, 0.9849371489249523, 0.9867745505511859, 0.9885035187108898, 0.9901058395985783, 0.991590484590756, 0.9929867791801802, 0.9942300863716284, 0.9953307267771886, 0.9963401946420897, 0.9972286517239244, 0.9979382226150701, 0.9985905709953158, 0.9991721178827193, 0.9995667446552828, 0.9998392471473558, 0.9999701842428833, 1.0, 0.9999086039589011, 0.999690196140347, 0.9993480561825957, 0.99886584043451, 0.998278525457336, 0.9975777845362357, 0.9967406706057491, 0.9957804439040254, 0.9946973699167544, 0.9934917514142816, 0.9921557275215896, 0.9907071166850372, 0.9891120331728336, 0.9874233179635719, 0.9856124274496811, 0.9836418699786778, 0.9815938203553409, 0.9794320196073643, 0.9771401490565623, 0.9747290063218743, 0.97224334926776, 0.9695911806362003, 0.9668143081796586, 0.9639366560946078, 0.9609460169724678, 0.9578514560250645, 0.9546364370882555, 0.9512268541632396, 0.9478038346667356, 0.9442681228542646, 0.940689754479648, 0.9369250494870633, 0.9329935715638262, 0.9290300695639663, 0.9249612794305067, 0.9207997808509759, 0.9165239482501334, 0.9122467454663892, 0.907760415619315, 0.9031828705078461, 0.8984164405986401, 0.8936712607434959, 0.8888701807634274, 0.8839336619345962, 0.8789088021825342, 0.8737151114068806, 0.8685285460759408, 0.863253712243935, 0.8578928940512213, 0.8524483252058103, 0.8469194620316465, 0.8413142705466632, 0.8356699122014871, 0.8299071180783832, 0.8240732406795951, 0.8181208360146822, 0.8121563289748591, 0.8061561412697537, 0.8000527386871621, 0.7938871126188122, 0.7875846259515262, 0.7813099716747173, 0.7750101030824069, 0.7686120104360104, 0.7621602202353572, 0.755643220649318, 0.749092220911834, 0.7425314611389962, 0.7358817875596216, 0.7291906712750295, 0.7225037383183581, 0.7157298848080196, 0.7089036300420853, 0.7020672652457816, 0.6951998210575806, 0.6882238883720929, 0.6813099545634584, 0.6743798666082167, 0.667407152386064, 0.6604105139127436, 0.6534306006158094, 0.6463883697923568, 0.6393259264457847, 0.6322568735690928, 0.6251767339931874, 0.618098485725655, 0.6110009215846, 0.6037869346982258, 0.5966968281658714, 0.5896000230618156, 0.5825404036650719, 0.5754335416960339, 0.5682950635494228, 0.5612027945420752, 0.5541169183419465, 0.5470781657159968, 0.5400075364219985, 0.5329280052197808, 0.5258938406947938, 0.5188778771075346, 0.5119122954656731, 0.5049352161512586, 0.49792408282214506, 0.4910085324360038, 0.4841191802064233, 0.47730744854993407, 0.47047084375582315, 0.4636176957986108, 0.4568600808688647, 0.4501381908017998, 0.4434950574711833, 0.4368454445933038, 0.4301987422378891, 0.4236436680622892, 0.41713323600473395, 0.41068840636579423, 0.40427025481625234, 0.3979249979019252, 0.3916076417388091, 0.38534553279573697, 0.37910987818207165, 0.37296589561226245, 0.3669394297625425, 0.36090408232455734, 0.3549324269662031, 0.3489761801591611, 0.34314092415822883, 0.3373858272437583, 0.331677371674686, 0.3260362720476817, 0.3203871235146362, 0.31489381168235775, 0.30951064294540603, 0.3041462775081945, 0.2988540073390079, 0.2936322131300246, 0.2884877724585936, 0.28334738890684064, 0.2783631962891157, 0.27345207897118456, 0.2687111819156256, 0.26393838491624444, 0.2592070652760831, 0.2546047832827665, 0.2500834062356418, 0.24561354819206377, 0.24125979263911468, 0.23697896712279296, 0.23278929774193283, 0.22868179715742953, 0.22467630800581775, 0.22073276770717376, 0.21688803388344577, 0.2131133768875048, 0.20942525223358155, 0.2058374659433008, 0.20232105933568276, 0.19888407330222957, 0.19554388564655942, 0.1922907191327576, 0.18908626957898922, 0.1860118635522764, 0.1830494911219081, 0.18014121066638097, 0.1773194742611925, 0.17457318590149962, 0.1719254037751414, 0.16936570146907265, 0.16688809125179674, 0.16449558713670911, 0.16219337276342805, 0.1599694984580017, 0.15778906137463647, 0.15573881706515824, 0.15376979743699368, 0.15193923566685508, 0.15012480484974514, 0.1483312017921326, 0.14669128974760304, 0.14512986770090083, 0.14366846129261696, 0.1422601496537615, 0.14098772519845984, 0.13972839188282732, 0.1385492867146007, 0.1373944842666273, 0.13637902414308428, 0.13545071170520573, 0.1345797295549994, 0.1337814482661919, 0.13306312486941, 0.13240635010093002, 0.13178702278871712, 0.13127381757262432, 0.13082683977362738, 0.13048351022574614, 0.1301615421984251, 0.12986697591160645, 0.12967989948797723, 0.12955375301524585, 0.129495742589662, 0.12948739059739614, 0.1295619223744478, 0.12966583825274364, 0.1298270275807092, 0.1300358599991019, 0.13030834771972494, 0.13064156640568036, 0.13101671476195015, 0.13143118546082244, 0.1319067857919777, 0.13242913786845623, 0.1329832130348267, 0.13359670538560192, 0.13424113129854912, 0.13493845850941152, 0.13567444616526977, 0.13648885793931054, 0.13729322093966706, 0.13818940274524294, 0.13905948241160046, 0.13996648076886362, 0.14083452644846775, 0.1418185891305608, 0.14279938488885435, 0.14383958625383364, 0.14490233697080718, 0.14603030600397515, 0.1471293627057605, 0.14825007294745665, 0.1493908880006259, 0.15055027019123643, 0.15172395893084276, 0.15291625147193316, 0.15413061109872134, 0.1553481255919299, 0.15657702932160744, 0.1578075992666017, 0.1590557707267338, 0.16029395453816664, 0.16155562485323946, 0.16281998701025444, 0.164047510816046, 0.16531831760577248, 0.1666378200389765, 0.16789460187084068, 0.16914908456053382, 0.17042715219799612, 0.1716692422520746, 0.1728844068957206, 0.17411754979543423, 0.17534125623865093, 0.17654326308048734, 0.17774551902124527, 0.17896388356141513, 0.18013324152092158, 0.18128799785057093, 0.18240489740028204, 0.1835291061225344, 0.18466080161130669, 0.1857407707311155, 0.18680027935141896, 0.18782166033742007, 0.1888385751261968, 0.18979217924913036, 0.19076285831910916, 0.19170437612655847, 0.1926270237573341, 0.19350689016973094, 0.1943835768864328, 0.19519818912219247, 0.19598230139383715, 0.1967786905787679, 0.19749342000929623, 0.1981281212112901, 0.19878623259921954, 0.1994084424697292, 0.20001870608052366, 0.20056407701400658, 0.20108671559150468, 0.20155677632946392, 0.2019896927038764, 0.20230538996703717, 0.20267171597176428, 0.20303250883135468, 0.2033063909408175, 0.20353860143012406, 0.20371238494951802, 0.2038622879123924, 0.20394946357603105, 0.20401444473444758, 0.20403444660556963, 0.20406688594183384, 0.20398968221030073, 0.20381604237687712, 0.2036617606496973, 0.20346176689477302, 0.20321887747875553, 0.2029273602925225, 0.20264247322998716, 0.20225382976472212, 0.20182292974736218, 0.2013603778797537, 0.20084265615060304, 0.200184076175648, 0.1995936826399405, 0.19895492552108462, 0.19831770022926332, 0.1975780157936841, 0.19677554195347216, 0.19595116302800217, 0.19508246718169686, 0.19418898993733363, 0.19323044508197437, 0.19228182110411995, 0.19123293970546845, 0.1901455310067403, 0.1890167803889842, 0.18785250276249085, 0.18660033519669264, 0.1853650879284594, 0.184088804319666, 0.18277490810180208, 0.18141828205381336, 0.18001466081068918, 0.1785821733398915, 0.1771118217339044, 0.1756235212484905, 0.17407736197388193, 0.1724393523667022, 0.17083221114217972, 0.1691887140236499, 0.167592027494134, 0.16586887300576902, 0.16404624843734214, 0.16227570470996064, 0.16047365381403378, 0.15870680122205622, 0.15683670411572992, 0.15486273062901376, 0.15295398343560668, 0.15101728131675782, 0.1491222286516078, 0.1471247203390615, 0.1451149771046239, 0.14307618190166654, 0.1410187022934102, 0.13890217672550778, 0.13681449656161146, 0.1346915012454788, 0.13256917440179197, 0.13042921738964847, 0.12831386296663777, 0.12613711761471416, 0.1239431939441402, 0.12174455945408907, 0.11953561551004593, 0.11730909539712198, 0.11508338934873226, 0.11286069848505084, 0.11061881276122941, 0.10837170948185212, 0.10614768676036762, 0.10388958469737128, 0.10168539178517247, 0.0994196164597711, 0.09715772535478749, 0.09489738571242669, 0.09264489407764336, 0.09035383338954522, 0.08811785941154776, 0.08588594445859624, 0.08372479783109434, 0.08149599795493324, 0.07927549386472842, 0.07706966106857095, 0.07487588908467567, 0.07266753689399408, 0.07050347697306622, 0.06841230099278749, 0.06626714541099336, 0.06414016088810803, 0.06200181668875965, 0.05991665495860323, 0.057904434172691456, 0.055849816096145435, 0.05381839002162596, 0.05184892347413753, 0.04986057934268738, 0.047910148225167676, 0.04597470422997361, 0.044067577501908185, 0.04225748588907572, 0.040399535289312394, 0.03861878144467993, 0.03682220344804306, 0.03506162690564529, 0.033356031340778566, 0.031664693222541306, 0.0300595313833041, 0.028435930671302314, 0.02685220964623455, 0.025310923003657698, 0.023806204751507763, 0.022385086224125172, 0.020954686826863043, 0.019566949406439292, 0.01824368250911622, 0.016938423607404652, 0.01573458016158999, 0.014510110756036153, 0.013316628136243003, 0.012188750692871769, 0.011106940774979333, 0.010117769159211249, 0.009122580432235078, 0.008201169863974908, 0.007301128398235728, 0.006451550751183852, 0.00565778105705146, 0.004908157544741792, 0.004225588678250624, 0.003575254238971997, 0.0029766689722028235, 0.0025118806970669304, 0.0020065811641276476, 0.0015906978676972622, 0.001193985488456832, 0.0008548638251054565, 0.0005345176989618112, 0.0003139062352386581, 0.00017751448975771405, 6.146385952867723e-05, 1.4183993190847209e-06, 0.0, 5.1333988366603585e-05, 0.00016136704498644392, 0.00032427721640105293, 0.0005433173990246384, 0.0008376442266019331, 0.001166603676842094, 0.0016212230046621615, 0.0020560776447839713, 0.0025519198518863875, 0.003042537027372353, 0.0036669265964410502, 0.0044399976066417475, 0.005164235471823048, 0.005949679677727783, 0.006741012332562491, 0.007653931437802912, 0.008634211971161529, 0.009658592971547794, 0.010739990361088714, 0.011905628839085027, 0.013097261827062652, 0.014347100808869126, 0.01565480320097619, 0.017020046219905778, 0.018461659230825798, 0.019938653979833677, 0.021481575009401236, 0.023072547222127517, 0.024720855917211272, 0.02639870162089598, 0.028163777619987448, 0.02994779440818743, 0.03182613692008484, 0.033756573877592067, 0.03577744362736544, 0.0378073735491703, 0.039866983980467736, 0.04200820531769034, 0.044201548463317884, 0.046474150978383776, 0.04876764970660169, 0.05112778363558351, 0.053524981569926175, 0.055974905632980826, 0.05847147770461803, 0.061025728138222116, 0.06357593114367338, 0.06623782186286514, 0.06894621556117886, 0.07176117009086727, 0.07455465470747202, 0.07740580637315296, 0.08029646975332008, 0.08323564753623823, 0.08616518537981782, 0.0892064405259656, 0.0922853544537903, 0.09541333291557114, 0.09858364818047304, 0.1018315840884696, 0.1050812731905862, 0.10836074292287014, 0.1116984104145488, 0.11507746818375475, 0.11846184903368026, 0.12192658868920632, 0.12541817987089873, 0.1289596093101683, 0.1325376371460799, 0.13612466693217934, 0.1397785276114815, 0.14350755320097536, 0.1472243841074304, 0.15097729314228558, 0.15473287125874136, 0.15856026716410426, 0.16242553782407404, 0.16631669972896324, 0.17023982533612947, 0.17412883383758626, 0.17812275045420747, 0.18213800497118818, 0.18618621971917576, 0.1902608436115383, 0.19437816546730743, 0.1985031215626722, 0.20265486250376047, 0.20683295435253088, 0.21103693055248665, 0.21520615247636923, 0.21946799200506936, 0.223764453735082, 0.22806639559462982, 0.2323898309070078, 0.23675903611979712, 0.24112131874650253, 0.2455162970600233, 0.24992007299995386, 0.2543449278952483, 0.2588092570462815, 0.2632716357653884, 0.26766375654920105, 0.2721765905091147, 0.2767026151241988, 0.2812636154824255, 0.28581293563516247, 0.2903570946715409, 0.29493635130516493, 0.2995276180977609, 0.3040731617317868, 0.30869470076005795, 0.3133567586649728, 0.3179896184709725, 0.32263203562535503, 0.32728090128244475, 0.33194162228220625, 0.33661053221937265, 0.3412871962852536, 0.3459711571640421, 0.35058539184445014, 0.35529217844957867, 0.3600168922686995, 0.36472475068738325, 0.3694351622545272, 0.37413972867265144, 0.3788556413523172, 0.38358657703434956, 0.38830320211393227, 0.39302137097384154, 0.39772695742272146, 0.4024485517374068, 0.4071585625426424, 0.4118798478978323, 0.4165990570557894, 0.421244758935608, 0.4259677170168529, 0.4307162757373599, 0.4354208193923421, 0.4401201964982579, 0.4448086500139238, 0.4494974788376647, 0.45417165485999034, 0.45884827187622007, 0.46351725478705397, 0.46821927373571004, 0.472866762297214, 0.47747228005164427, 0.4821106525284902, 0.48673912666816527, 0.4913135417239171, 0.4959264732768095, 0.5005503487500521, 0.5051327376834684, 0.5097025711156089, 0.5142485034055543, 0.5187933592468608, 0.5233811733215848, 0.5278894986466333, 0.5323858353968951, 0.5368091693024055, 0.5412865620933213, 0.5457324288457297, 0.5501755608251211, 0.554599489801944, 0.5590532045851898, 0.5634318106288068, 0.5677440029350147, 0.5720937071194586, 0.5764220415137685, 0.5807232654258728, 0.5850087026042301, 0.5892414860597476, 0.5934852521864872, 0.5977041029702822, 0.6019553295998304, 0.6061166838084646, 0.610228502207384, 0.6143481988849981, 0.6184427470282746, 0.6225335576772433, 0.6265736556433732, 0.6305392178266869, 0.6345342217412799, 0.6385763761907557, 0.6425026740012793, 0.646403363936621, 0.6502693253642018, 0.6541171264596746, 0.6578405570722691, 0.6616423574072618, 0.6654086796532211, 0.6691833607345266, 0.6728734109232792, 0.676489504904246, 0.6801183851985059, 0.6837110914412052, 0.6873522243945704, 0.6908613770167191, 0.6942674496134229, 0.6977206259640386, 0.7011359394270245, 0.7045896408143961, 0.7079186334831774, 0.7111720789483111, 0.7144361849540098, 0.7176615224810445, 0.7208366003692408, 0.7239841204359702, 0.7270742016116307, 0.7301412687634652, 0.7331654629893719, 0.7361628512533968, 0.7390981966219922, 0.7420287930930726, 0.7448727299708475, 0.7476747441412376, 0.7504066684946933, 0.7531258468312845, 0.7557581913409134, 0.7583904020287013, 0.7609734900225091, 0.7635346303932778, 0.766015489931925, 0.7684372278805934, 0.7708226131643721, 0.7731582308326209, 0.7754710245839899, 0.7777024584370588, 0.7799063206828379, 0.7820354686557225, 0.7841151514553816, 0.7861281978164889, 0.7881087605739971, 0.790001214710024, 0.7918806112981709, 0.7937044176883148, 0.7954970336434701, 0.797205914301413, 0.7988872497151625, 0.8004824500057153, 0.8020233979195801, 0.8034246907822841, 0.804865922488074, 0.8063310396030975, 0.8076399630527309, 0.8088929899151726, 0.8100566632971234, 0.8112001332098424, 0.8123441789790885, 0.8133606396771771, 0.8143203710239748, 0.8151843513429091, 0.8160332811299934, 0.8167665971805744, 0.8175002988092883, 0.8181694735742899, 0.8187770506707324, 0.8193173683704429, 0.8198156429189128, 0.82022542562424, 0.8205726105358787, 0.8209199080312855, 0.8211334495687587, 0.821246425391604, 0.8213453757745308, 0.8213812185260373, 0.8213592263177976, 0.8212675966036467, 0.821148177186518, 0.820925212938364, 0.820640572308186, 0.8202336900539283, 0.8198320938483867, 0.8193452132736874, 0.8188139637644831, 0.8182159240537206, 0.8175869852811591, 0.8168518994177523, 0.8160447936272134, 0.815183103903387, 0.8142571476457809, 0.8132588250936517, 0.8122056890394433, 0.8110717631113382, 0.8098921304871901, 0.8086476025746949, 0.8073330586674698, 0.8059604634033405, 0.8044963450386392, 0.8029992084269911, 0.8014370901870405, 0.7998652473300246, 0.7981679668812715, 0.7963776290215279, 0.7945640620386054, 0.7926885796828891, 0.7907625266793583, 0.7887630629034188, 0.7867363436611502, 0.7846129472015485, 0.7824320249083511, 0.7801718193165775, 0.7778790021297213, 0.7755087890162856, 0.7731023106662146, 0.7706373971724978, 0.7680900803821255, 0.7655133181802157, 0.7628622544328022, 0.7601726143659662, 0.7574258284222523, 0.7546119064754581, 0.7517550189603422, 0.74888140189505, 0.7459106330651678, 0.742888910236805, 0.7398168418536196, 0.7366950572759683, 0.7335187391944575, 0.7303001853017272, 0.7270336218214155, 0.7237690138760892, 0.7204024948783666, 0.7169438359112307, 0.7134980835447015, 0.7100075189436003, 0.7064320638827464, 0.7028598527061455, 0.69922966606748, 0.6955718505957162, 0.6918714897263912, 0.6881381144705945, 0.6843555769903524, 0.6805403027939135, 0.6766818306276432, 0.6727877757511895, 0.6688619647316835, 0.6648996724219282, 0.6608751451490856, 0.6568533907211339, 0.652799912284497, 0.6487679624897453, 0.6446483748128294, 0.6404409603932109, 0.6362802521241191, 0.6320927581043773, 0.6279208890191174, 0.6236788187531287, 0.6193753791776, 0.6150987616521824, 0.6108014859765607, 0.6064493745891808, 0.6021193387941082, 0.5977870729132886, 0.5934192845838643, 0.5890369076887465, 0.5846331005098323, 0.5802266387434959, 0.5758419445054767, 0.5714106217031346, 0.5669728039836907, 0.5625350133707493, 0.5580866920865349, 0.553583445709441, 0.5491367764106146, 0.54468632641753, 0.5402718685458017, 0.5358134788128563, 0.5313633124352489, 0.5269108315961321, 0.522463600916499, 0.5180226844122153, 0.5135891595936279, 0.5091258425928266, 0.5047152185246511, 0.5003131352389406, 0.4959428861368884, 0.4915593558511223, 0.48715696251613083, 0.48280662219948245, 0.478470693077392, 0.4741095797317495, 0.46981185444980683, 0.46558777187879574, 0.4613168883847316, 0.45709599571075676, 0.4528679976938733, 0.4486662568391535, 0.4444259724578001, 0.44028749619837115, 0.43613308487628505, 0.43205133372839605, 0.4279950935349592, 0.4240042622543774, 0.41999899263813495, 0.41606154337114354, 0.41211742052918043, 0.40820970103539755, 0.40431451712278826, 0.40048493388457085, 0.3966488673281158, 0.39290028468032806, 0.3891883929417006, 0.38551718889064, 0.3818820572697473, 0.3783229079582077, 0.3747652280323848, 0.3712520546326256, 0.3677539933875455, 0.36433565912412347, 0.3609594159783676, 0.3576319681887939, 0.35435093262072237, 0.35107066708613066, 0.34789078903461057, 0.3448473087095052, 0.3417494795779646, 0.3387049964966349, 0.33564572389196584, 0.33271722254423663, 0.32988265671255756, 0.3270498215942281, 0.32427119159955364, 0.3215143023944052, 0.318849245579419, 0.3162375489851872, 0.31367978723377016, 0.31117648956332783, 0.3087527461286803, 0.30635668221586215, 0.3039877268405132, 0.3017099947568596, 0.2994880809086843, 0.29728683066430084, 0.2951821564044432, 0.2931213926399181, 0.29112833396431215, 0.2891905152919194, 0.2874287081692805, 0.28558753756775074, 0.28368656647562523, 0.2819866955230968, 0.28034180704296413, 0.2787960426840775, 0.27725671158884785, 0.27576485170651877, 0.2743435423744867, 0.2729796573884118, 0.27168127032186956, 0.2704307816026086, 0.26924043291613586, 0.2681041243202349, 0.2670247810319337, 0.2660184552643779, 0.2650498986976274, 0.2640916466799743, 0.2632419865052166, 0.2624454183168464, 0.26174277717144073, 0.2610466397767305, 0.2603642183643006, 0.2597820614364142, 0.25925102211045475, 0.2587625699135861, 0.2583337681770966, 0.25796543233534786, 0.25763391196356356, 0.25735169312997275, 0.2571127297809192, 0.25692803849603896, 0.25683698828172263, 0.2567401294871047, 0.2566917643007859, 0.25669629936247523, 0.2567410645906937, 0.2567631514579768, 0.2569068295507177, 0.25709022932453285, 0.2573265330005946, 0.2575861282586779, 0.257920118035717, 0.25825216858833594, 0.2586235127287424, 0.25899203209870325, 0.2594438205175384, 0.25997849301760495, 0.26049064397601823, 0.2610376597348679, 0.2615444909782217, 0.26216687483874856, 0.2629092657537624, 0.2635734111820369, 0.26426856381524366, 0.2649467788870753, 0.2657054515284991, 0.26652103388018406, 0.2673227778196855, 0.2681484709626762, 0.26896128669028735, 0.26983552745719924, 0.2707525155474776, 0.27165897651331605, 0.2725830278579263, 0.2734469256653133, 0.27441224859034336, 0.2753954892350759, 0.27637863877497393, 0.2773707539339991, 0.2783819964022331, 0.27938828882436223, 0.2803634196739622, 0.28138777619519817, 0.2824150745963279, 0.28348831799283863, 0.2845136996926086, 0.2855667051266831, 0.2865937744645341, 0.28762276827526234, 0.28863585674728603, 0.2896665238869168, 0.2906940067662106, 0.29171710000598733, 0.29273460898536646, 0.29372894740928174, 0.29473382279981786, 0.2957177424690209, 0.29670294320410456, 0.2976754733536757, 0.29859065781062166, 0.29954056308724664, 0.30051351599404885, 0.3014217092131689, 0.3023129803226, 0.3031808358269185, 0.30403588251550734, 0.30487064258041, 0.3056841569856798, 0.3064754715966151, 0.30727371077443894, 0.30801398962626125, 0.3087364082655183, 0.30942818063590544, 0.3100946555643055, 0.31074291446653024, 0.31135444236024074, 0.31185862507080325, 0.3124229890687898, 0.3129527697932291, 0.31351598304830103, 0.3139669317557796, 0.3143204302454185, 0.31471502527626577, 0.3150722036991771, 0.3153998154048729, 0.3156800468606122, 0.3159632123432845, 0.31616164243458694, 0.3163233585963533, 0.316444827350304, 0.316531107396772, 0.3165235786594135, 0.31653785874467877, 0.31650867999942855, 0.31650425333808474, 0.3163790944086354, 0.31614551276418446, 0.31594811250307514, 0.3157054055796441, 0.31546107413964913, 0.31512203441999237, 0.31469619086602224, 0.3142761174976814, 0.3138096912998595, 0.3133379138281635, 0.31277357598070527, 0.31220889998765267, 0.3115505338995003, 0.3108499090906997, 0.3100681496266904, 0.30928612398279165, 0.30837885427061307, 0.30751486945900675, 0.30660039167457753, 0.3056989415615257, 0.30467740815869004, 0.30355328949886745, 0.302448674205891, 0.30136132597274606, 0.3001522631961694, 0.2988995858527541, 0.29761419199127387, 0.2962728407935149, 0.2948420484205147, 0.29342065640786197, 0.2919537756517544, 0.2904145621731445, 0.2888616439892745, 0.28725772345858513, 0.2856151505791995, 0.28392816234622453, 0.2822795029648871, 0.28049548689716586, 0.278630057776648, 0.2767762559717963, 0.2748824580776857, 0.27293551861815296, 0.2709650482894388, 0.2689745844627163, 0.26692412997343357, 0.26483701737051746, 0.26270560166270673, 0.2605479068684794, 0.25839311866986947, 0.2561605544652301, 0.25389619441041966, 0.25157586320540437, 0.24925236368611864, 0.24689986792199278, 0.24451334156438206, 0.24209681538083125, 0.239596407316092, 0.2371291962587803, 0.2346286232332792, 0.2321017909470289, 0.22954671798515067, 0.22699471601168075, 0.22438304680683893, 0.22180586124773652, 0.21914199415186567, 0.21646025802052493, 0.21377479136094962, 0.21105706358309884, 0.2083238353171499, 0.20557564820565166, 0.20281310789576174, 0.2000478133687693, 0.19725722806912013, 0.1943921700671959, 0.19158706293953495, 0.1887683181740863, 0.18600013026787232, 0.18315008807857264, 0.18026374819961605, 0.17740580319127056, 0.17454148219643972, 0.17166912317514765, 0.16879561591031852, 0.1660062894086816, 0.1631162245799115, 0.16022997793210966, 0.15741629448858088, 0.1545303285020419, 0.15158511915724404, 0.14872607879380703, 0.1458725947804142, 0.14305561229518043, 0.14021209280008853, 0.13746601600105246, 0.13463207723436083, 0.13181449899406422, 0.1289778531786965, 0.12619794857555763, 0.12352878841415565, 0.12076764049897198, 0.11802843869306756, 0.11526750008697798, 0.11257802716396631, 0.11000428443752382, 0.10734357035451493, 0.10470984497424811, 0.10211138931029316, 0.09953097125465628, 0.09698134349058421, 0.09445704552521103, 0.09196175669991556, 0.0895643277821526, 0.08712000584978687, 0.0847512606433374, 0.08237103748834818, 0.08002808601066529, 0.07770056034545803, 0.07543511639125783, 0.07323075445307353, 0.07103568486660235, 0.06887959282455258, 0.0668175956697778, 0.06473393513669704, 0.06274303932495964, 0.06074043821281522, 0.05878458428755801, 0.056850817558656085, 0.0549915178809054, 0.05321602402636074, 0.05144339662031384, 0.04971939192679406, 0.04800596558947022, 0.04638480240827314, 0.044903949875706374, 0.04336647304496611, 0.04188300804546721, 0.040445322705709594, 0.03907091296752421, 0.03778301656985592, 0.036512134568384494, 0.035297366787271835, 0.03413059017778779, 0.03302938479409286, 0.03199517948639697, 0.03100502248547624, 0.030072173360089167, 0.029213295434129097, 0.028393795224448, 0.027636109213917022, 0.026934611530291835, 0.026292747679045853, 0.02574079944212109, 0.02521504776078455, 0.024756760482115624, 0.024354315331448984, 0.024014215720558275, 0.023728280925132787, 0.023513998011387094, 0.023397276008728953, 0.02330269269433282, 0.023272428828967427, 0.0232653449493728, 0.023368539759275782, 0.02354711520364525, 0.023772281601181416, 0.024060455050712568, 0.024450025402816242, 0.02485971203451597, 0.02527472344224772, 0.025822720917632033, 0.02643237332106999, 0.027172319375465603, 0.027897475538564146, 0.028639659560251125, 0.029503123191567525, 0.030429316143876166, 0.03148664427653324, 0.03252980762376808, 0.03353574658701776, 0.034724790472090525, 0.035973556407117906, 0.037301517700637644, 0.03866824457577567, 0.040112964688786806, 0.041600776076902615, 0.0431510140238744, 0.044719706686259325, 0.046399616461389306, 0.04819615931588578, 0.049987323258368487, 0.05184100471562661, 0.05373755594117871, 0.055717164576424755, 0.057745764566166535, 0.05984626510941272, 0.06200537357341537, 0.06418179307632586, 0.06646240559614221, 0.06884211661983963, 0.07122787792497863, 0.07367131649707748, 0.07613638461845913, 0.07869813714565511, 0.08126754554559157, 0.08394318543277238, 0.08666980390809234, 0.08945017378966559, 0.09227843725683159, 0.09513036858663255, 0.09806388865996168, 0.10104639699938212, 0.10412699578311728, 0.10720086391790273, 0.11027126585725774, 0.11345375763104693, 0.11668296557243078, 0.11997227598395944, 0.1232922800681269, 0.12665327829540768, 0.13006634265992445, 0.13352442320454616, 0.13700234898699457, 0.14055184351271632, 0.14417599483570062, 0.14780459714091906, 0.15147595351636164, 0.15517833366603065, 0.15893419263434927, 0.1627243311925555, 0.16655966216184787, 0.17042479285844975, 0.1743364711697299, 0.178284292194938, 0.18223479730319767, 0.18625707318468324, 0.19025969339005933, 0.19435266831571177, 0.19847408529446825