0.026213486431710887, 0.02594580198968641, 0.025728392766051225, 0.025476776914444093, 0.025349063544378762, 0.025243772852914934, 0.025166585817299723, 0.025108542126742746, 0.02510257707634545, 0.02506987913694035, 0.02501860820190398, 0.02501526673639636, 0.025020138247609753, 0.025017455112503532, 0.02503774002102676, 0.025046449085737305, 0.025078555135116323, 0.025114370819748193, 0.025160506586892513, 0.025203529195753076, 0.025242200593564645, 0.025296452598893304, 0.025355825528314932, 0.025396018093172476, 0.025470444807041404, 0.025550319659575084, 0.02563645518498, 0.025729647511107113, 0.025823311106329523, 0.025933856966121188, 0.026052390415458766, 0.02618163519335093, 0.02632123714542106, 0.02646178216891834, 0.026625473231466967, 0.026799142872896222, 0.026987400031618945, 0.02718872335560668, 0.02746080411596802, 0.02768290699645985, 0.02786601048580259, 0.028131517606562385, 0.028412052490836778, 0.028739487587227327, 0.02904783347797963, 0.02933963639262753, 0.02968949526724214, 0.030056293840487875, 0.030415709029594732, 0.030821072962993325, 0.031233344737772617, 0.0316746926991001, 0.03213374067676496, 0.03265989963457516, 0.033150039157113925, 0.0336375384199882, 0.034175353656173156, 0.0347342355145552, 0.0352712804920089, 0.035878806546012734, 0.036471945152662145, 0.03712377799132742, 0.03779466374300095, 0.0385259526980121, 0.03923232438546259, 0.03992281358936167, 0.04068190970123578, 0.041463146145256966, 0.042235873872341324, 0.043067225188628405, 0.0439235142290435, 0.04479964213774678, 0.04569958387124297, 0.04662029108558112, 0.04757017856938786, 0.04854912083096775, 0.049549830705441215, 0.05057716740697934, 0.051568996531910334, 0.05265881406449392, 0.05382179376417889, 0.05495510548125555, 0.05611724100148362, 0.05730947115039518, 0.05853017667752925, 0.05969242389276751, 0.06098439053983679, 0.062301901528500264, 0.06366252852250417, 0.06503195909557567, 0.06644993778430303, 0.06787598848080148, 0.06933353434631417, 0.07079349319574932, 0.07231883311655934, 0.07388333685313997, 0.07546993698779647, 0.077088928589957, 0.07869653050852156, 0.08038704153992408, 0.08208555450301593, 0.08384166403658493, 0.08562876772562225, 0.08742642955389028, 0.08928031361573967, 0.09117977781316922, 0.09309615942051438, 0.09504639657738059, 0.09696097831395262, 0.09898901469278672, 0.10108586204818996, 0.10317214122998268, 0.10529322159015644, 0.10746417625843134, 0.1096539921265503, 0.1118619290291649, 0.11412721962512466, 0.11642816874805859, 0.11871251767193926, 0.12109197395890395, 0.12355524741664822, 0.1259952228484243, 0.1284721940059628, 0.13090052970080823, 0.13346216726048826, 0.13611655881399382, 0.13873514391115052, 0.14139025104037556, 0.1440357875969962, 0.14676950286434615, 0.14952950096740894, 0.15233167112723106, 0.1551674774899399, 0.15808310738130096, 0.1609808256074146, 0.16384976451841227, 0.16682850656076567, 0.16983942046135575, 0.1728743867315958, 0.17595111478375902, 0.17905524437713122, 0.1821966072663119, 0.1853697496580929, 0.18860961354463635, 0.19184175115124424, 0.19506137043284455, 0.19836586009874752, 0.20170033885084007, 0.20507022568371538, 0.20846362338071425, 0.21189606103209682, 0.2153476766506901, 0.2188290257529118, 0.22231574657010322, 0.22585826512361296, 0.22946554324486604, 0.23305704524975843, 0.2366770502710101, 0.2402945058125848, 0.24397331148022236, 0.24773577393369606, 0.25145621449428995, 0.2552038212371866, 0.2589150485739524, 0.26272203663699883, 0.266616137286629, 0.2704560724659705, 0.274319782170784, 0.2781547407118779, 0.2820695792236732, 0.286056718081057, 0.29000020186314474, 0.29396371404002025, 0.2978882827296626, 0.30189622907645614, 0.3059557769201244, 0.3099862308321201, 0.3140317093157563, 0.3180591573595724, 0.322136224973593, 0.32621937611608354, 0.3303178092830111, 0.3344254620899483, 0.33857024767566474, 0.34269084951537865, 0.3468129596653766, 0.35095129137863884, 0.35509619630483474, 0.35925783503553443, 0.3634118327476961, 0.36757771196807326, 0.3717388206022655, 0.3759194371309202, 0.3800832859563519, 0.38424891499286423, 0.3883369311951227, 0.39251253050252394, 0.3966885225848787, 0.40085072781351816, 0.40500621967458567, 0.40915434347239715, 0.4132943977879105, 0.4174486461110002, 0.4215673818255432, 0.425676994871129, 0.4298132628496082, 0.43389686753254614, 0.43795557165088733, 0.44201934158185235, 0.44606945245238266, 0.4500789722082081, 0.45410154438501255, 0.45813408566145986, 0.4621150078653692, 0.4660771099211209, 0.4700017238179309, 0.473924865065727, 0.4778431095199304, 0.4817163196278912, 0.48556525810214063, 0.4893841678597164, 0.49318169304925497, 0.49689052556037083, 0.5006387474953908, 0.5043534606435303, 0.5080543368096943, 0.5116976943208282, 0.515313241402651, 0.5188863973060325, 0.5224238806226629, 0.5259357687321073, 0.5293976059625664, 0.5328380409504548, 0.536220780593563, 0.5395643564140031, 0.5427930430255153, 0.5460641994516336, 0.5492885433125091, 0.5524655681142323, 0.5555947156844014, 0.5586643387824991, 0.5616972774956075, 0.5647359326208584, 0.5676603114579032, 0.5705361468721273, 0.5733742673576476, 0.5761481277116632, 0.578810061044855, 0.5814880838280152, 0.5841092645634993, 0.5866573807247295, 0.5891650982842591, 0.5916077712516252, 0.5939966274001385, 0.5963245941539157, 0.5986132364802406, 0.6008150403449224, 0.6029408331404009, 0.6050211655640537, 0.6070378741170864, 0.6090317516310338, 0.6109141127484679, 0.612716744768033, 0.6144739224344761, 0.616165152771356, 0.6177501376261537, 0.6193123274272915, 0.6208079337429228, 0.6222288006441765, 0.6235789399143017, 0.6248671739124491, 0.6260735499650483, 0.6272380180398194, 0.6282975019188661, 0.629286388574705, 0.6302086199390697, 0.6310537982389346, 0.6317568539623613, 0.6324659534061394, 0.6330978683818037, 0.6337005436320666, 0.6341722789591265, 0.6345135672983687, 0.634843419827067, 0.6350951207339709, 0.6352642242087038, 0.6353606476096344, 0.6354048321350348, 0.6353421206464518, 0.6352031093432264, 0.6350088717546958, 0.6347143243121863, 0.6343103943114123, 0.6338692880186122, 0.6333505804117566, 0.6327801981369324, 0.6321035117077713, 0.6312904284425901, 0.6304700857682903, 0.629570671783366, 0.6285899673879012, 0.6275343609301016, 0.6263946435472724, 0.6251850195415924, 0.6238983630371757, 0.6225168028405041, 0.6210800008751118, 0.619572227508088, 0.6179823992576035, 0.616317684784527, 0.614634802205209, 0.6128149524175279, 0.6108846032669167, 0.6089299858614471, 0.6069034002772705, 0.6048256618810501, 0.6026543009657094, 0.6003733663464157, 0.5980694175233345, 0.5956950602953358, 0.5932336625697212, 0.5907232553715377, 0.5881808197663775, 0.5855290657098204, 0.5828124995006484, 0.5800566369037243, 0.5772093375403824, 0.5742648208330955, 0.5712999639115429, 0.5682729314452015, 0.5652178013110317, 0.5620650815831785, 0.5588374365424847, 0.555572766027266, 0.5522511565114945, 0.5488717162210509, 0.5454393318627585, 0.5419417792628114, 0.5384035752481375, 0.5348127134134625, 0.5311178980882155, 0.5274318448793006, 0.5236936973084932, 0.5199050624911278, 0.5160675039729355, 0.5122027936955791, 0.5082693706966993, 0.504327612519221, 0.5003044308918742, 0.4962424570189701, 0.4921472876001017, 0.4880101699082236, 0.48377043007013887, 0.47957198735445244, 0.47533649084123286, 0.47106928886786736, 0.466764182958026, 0.46241699885729354, 0.45805079959711276, 0.45365512770347266, 0.4492922985058533, 0.44483470126347063, 0.4402958694400815, 0.43580402060381834, 0.43128947204605345, 0.4268126994637711, 0.422250009679079, 0.41763117128030175, 0.4130452848412821, 0.4084444552813241, 0.4038108053077056, 0.3991868723763293, 0.3945963310194298, 0.38994487356866864, 0.3852873851575227, 0.3805615376351902, 0.37590355720796936, 0.37130951046555444, 0.3666324146836327, 0.3619566803209159, 0.35725579223854625, 0.35258958319326167, 0.34793483724743546, 0.3432753375170378, 0.3386222670605945, 0.3339428887479701, 0.3293109240378671, 0.32467085302161425, 0.3200594851450942, 0.3154587776541832, 0.3108584113953973, 0.30628542183772317, 0.30177966684293855, 0.2972312018421821, 0.29270361045983556, 0.28817680606596163, 0.28369688638737783, 0.27925647883462346, 0.27482162490625317, 0.2703699073284922, 0.2659943979294495, 0.2616450384371438, 0.257316822484036, 0.2530248358216393, 0.24876556242150474, 0.24453448119896662, 0.2403361595752502, 0.23618103632109583, 0.23205073837163434, 0.2279619095454987, 0.22390581485315691, 0.21988892092897064, 0.21590759019696007, 0.21197255217947517, 0.20807008776564273, 0.20422070945157683, 0.2004144528066587, 0.1967111856656276, 0.19298659866819448, 0.18923394257682757, 0.18561800164531728, 0.1820477862359637, 0.178529891030599, 0.17505358872771734, 0.17170919543977275, 0.16832144797665766, 0.1649891134452848, 0.16163591894844154, 0.1584244463124246, 0.1553271365639625, 0.1522117507680196, 0.14915307646395715, 0.14608784330285282, 0.1431513267150637, 0.14031562495731198, 0.13748170696806006, 0.1347057906328936, 0.13198447508742003, 0.12932586141996835, 0.12668352670003183, 0.12414777344196533, 0.12166880527082188, 0.11924076817961227, 0.11687788763271213, 0.11463559444327993, 0.11238128079189807, 0.11018935818917874, 0.10799341299997697, 0.10593420351338839, 0.10398385131788349, 0.10203512250695271, 0.10014820679091417, 0.09830732285980745, 0.0965455945648212, 0.09481307612349499, 0.0931762639053683, 0.09159808663716419, 0.09009066253437888, 0.0886286461938173, 0.08726395704926386, 0.08591625015235418, 0.08462999862919653, 0.08341207784907809, 0.08224634794352517, 0.08114195196590104, 0.08009638845325412, 0.07911020499629895, 0.0781405209575402, 0.07727680930134087, 0.07646109593008779, 0.07570882276131263, 0.07501102112915477, 0.07435547815465367, 0.073767334326806, 0.073295594384445, 0.07280493148047074, 0.0723700878460755, 0.07198739058794684, 0.07166181466664158, 0.07137172656346998, 0.07115345792950374, 0.07098548523084364, 0.07089195426969877, 0.07081930858985466, 0.07073545784262039, 0.07076861024828424, 0.07084599494315554, 0.07098833063285842, 0.07115010273409623, 0.07131529227209164, 0.07156922974372433, 0.07186322992147559, 0.0722658183305209, 0.07262966454269863, 0.0729952833521449, 0.07344755916283147, 0.07393740603033218, 0.07447961282005776, 0.07504003102121534, 0.07559116469179568, 0.07622785576857541, 0.07689572453128751, 0.07759407705749781, 0.0783221706952656, 0.07914732072966395, 0.07992388552627251, 0.08073153715335074, 0.0815771159211538, 0.08244160580864135, 0.08332699156112595, 0.08424556962871772, 0.08518835717318854, 0.08608597311872457, 0.08708197758126764, 0.08810380581452872, 0.08913122235806324, 0.09017439434619437, 0.09122144315481509, 0.09229498588156969, 0.09336910454060908, 0.09446840905803512, 0.09557788793533127, 0.09671883189759362, 0.09784344007231469, 0.09899905226664785, 0.1001376285732084, 0.10128421275731865, 0.10246607975655986, 0.10362133181887255, 0.10477421317240446, 0.10594091717156316, 0.10711027818385335, 0.10825250759453371, 0.10942704525283745, 0.11058147346449416, 0.11175203870468715, 0.11291712666813133, 0.11413484119406966, 0.11527912620452206, 0.11641144769243303, 0.11754615476728784, 0.11867328580305021, 0.11978893189470168, 0.12089785343335988, 0.12199018861230551, 0.12307665973792546, 0.12414974648119363, 0.125150551440198, 0.1262014651035696, 0.12725237262276465, 0.12826178581435296, 0.12925212855721932, 0.1302687967935426, 0.13121331487103097, 0.13213486296457885, 0.13304221890217086, 0.13392897903502027, 0.13472431793616857, 0.1355761172533314, 0.1364836794617019, 0.137270660377992, 0.13803475180179217, 0.13869125258348047, 0.13941734729989078, 0.14019413983305012, 0.14084929394555937, 0.14147842005961558, 0.1420484650901608, 0.14262713486052866, 0.1432004508501515, 0.1437151473909957, 0.1442001954623535, 0.14460806194133766, 0.14503799435569023, 0.14540636135739632, 0.14577176713416248, 0.14610144640833142, 0.14640838088931818, 0.14666523775258908, 0.14689465274671828, 0.14708088112908985, 0.1472325351162086, 0.1473457778391681, 0.1474282892025931, 0.14746361358872462, 0.14747709347762017, 0.14745449153307993, 0.14739030300548508, 0.14729628640067446, 0.14719353981612912, 0.14702342238143712, 0.14681865226921456, 0.14661405140753242, 0.14633513927129477, 0.14602502866421457, 0.1456794730515856, 0.1453003825678513, 0.14484428384976497, 0.14440299448280178, 0.1439675944645469, 0.14344836082903814, 0.14285240511976513, 0.14227167500027768, 0.1416550413251611, 0.1410470949857766, 0.1403543201360896, 0.13957599937596135, 0.1388257066493216, 0.1380404399177665, 0.1372428813803416, 0.13638664906355447, 0.1355426142313754, 0.13461723773275294, 0.1336631721034102, 0.13262159544203217, 0.13161789237757246, 0.13064150712235828, 0.1295679177718333, 0.12846748999755742, 0.12730272467414414, 0.12615414325141297, 0.1249912647037589, 0.12378541819115475, 0.12255361587745402, 0.12134337413775234, 0.1200554880299197, 0.11867797674127917, 0.11735591213421234, 0.1160090787804303, 0.11472858974104701, 0.11332357120848484, 0.11190249215331796, 0.11046355357899072, 0.10900808173351048, 0.10755110471117191, 0.10606168152519721, 0.10452544569231514, 0.10301125829973505, 0.10148146026765217, 0.09991747358983116, 0.09836116228342981, 0.09682634882312066, 0.09523766780958799, 0.09363851341092423, 0.09207279580867063, 0.09044922458901279, 0.08880217830445167, 0.08716922933572117, 0.08553015435461896, 0.08395646909682417, 0.08229817464714835, 0.08061862083627808, 0.07896299161508112, 0.07730652354695262, 0.07572060127999006, 0.07405511442585037, 0.07241289158293852, 0.07075488880537914, 0.06910307472739519, 0.06747416486349686, 0.06583318734109732, 0.06422676541743882, 0.06259844031211868, 0.06098015386272693, 0.05940528072137106, 0.0578037088764118, 0.05618558953794979, 0.05461377356945587, 0.05305375965276423, 0.051536563382938605, 0.04999829525159003, 0.04857314883927048, 0.04705420183149877, 0.04555738644779356, 0.04404388597839934, 0.04259586672193679, 0.04126066625422195, 0.0398411465277704, 0.03844779724849611, 0.03709337370909866, 0.03575048228261807, 0.03448785728456, 0.033192114771247144, 0.03192659843925035, 0.03066174049486174, 0.02946017541730131, 0.028303768463651836, 0.027157756024479635, 0.026042245757920957, 0.02501656911223248, 0.023955968747922614, 0.022992291129982148, 0.02199452019737562, 0.021035762982525796, 0.02015352468961711, 0.019267471575277546, 0.0184065932595476, 0.017603966769650415, 0.016841021878189748, 0.016164857220547956, 0.015475908207641314, 0.014803295612469533, 0.014203754860011302, 0.013645801275627622, 0.013216313551628542, 0.01273174995770748, 0.012266328319904063, 0.011880491919243423, 0.011540387406944163, 0.011314323052979103, 0.01105774172071971, 0.01080454353410095, 0.010654321477646847, 0.01055145566394095, 0.010523898856317288, 0.010513310365993959, 0.010583095644354707, 0.010668852547475368, 0.010806708550070978, 0.010988379160521299, 0.011231528286236764, 0.011601001433203336, 0.011938484989387614, 0.012332354257858256, 0.012733473678211944, 0.01324528887661072, 0.013870661303479687, 0.014480690704345427, 0.015147471319432948, 0.015859740535725742, 0.016640823333032184, 0.01751252464912086, 0.018400506045958602, 0.019346175003694243, 0.020292264059350727, 0.02135994598226948, 0.02254421004408235, 0.02371236154373857, 0.024938756597471506, 0.026183643205077687, 0.027531026462888242, 0.02894227683858654, 0.03040000856362506, 0.03191422279706453, 0.033542097114845404, 0.035162406516553286, 0.036827073881104525, 0.03856898752998438, 0.04036930834398041, 0.042246266283746316, 0.0441605613187784, 0.04607583157924374, 0.048115076810314426, 0.050209469087824345, 0.0523509469767007, 0.054557302479558506, 0.056816119619733624, 0.05913343793547804, 0.06150611731741919, 0.0639848801939528, 0.0664621588039301, 0.06899507584192754, 0.07158908635865284, 0.07424052684521044, 0.07695271669076308, 0.07971747569108598, 0.08252408741582451, 0.08540349445600429, 0.08833792296516486, 0.09134094092054973, 0.09438294726794927, 0.09741006691745151, 0.1005706502910905, 0.10378161085971768, 0.10710939919974506, 0.11041323466209989, 0.11375220656570666, 0.11716687836851142, 0.12063387644359563, 0.12409210871761409, 0.12767037240641702, 0.1313544466616446, 0.1350211509613117, 0.13873908730974452, 0.14245346757229957, 0.14627926204498456, 0.1501434874140479, 0.1540637015499202, 0.1580299996832444, 0.16209198430742383, 0.16614383223165177, 0.1702238692663394, 0.1743745086474623, 0.17857117735202288, 0.18282538038391463, 0.18711120598006611, 0.19139170299650832, 0.1957739147566245, 0.20019739721563753, 0.20463528319816773, 0.20914409684513005, 0.2136717583531016, 0.21826122244443757, 0.22289022520079393, 0.2275547963713255, 0.2322569843030614, 0.23702050890410176, 0.2417942249912875, 0.24658218586785471, 0.25143471978357096, 0.25632296130705806, 0.26123915618366833, 0.26619853141691735, 0.2711771942301594, 0.2762060242832637, 0.2812671435706033, 0.2863942267379843, 0.2915144489769986, 0.29668879080296423, 0.3018714825226763, 0.3070868010361839, 0.31225192081642184, 0.31754011847964564, 0.3228886374274507, 0.3282229250720529, 0.333584087428162, 0.33892644368691965, 0.34434528363277883, 0.3497645784794559, 0.3552310312106047, 0.3607182028648841, 0.36627007584920923, 0.3717924575533441, 0.37731149992218294, 0.382881270674078, 0.3884705662241017, 0.39411107027979225, 0.3997337348294393, 0.40529968670462196, 0.4109704934697852, 0.41665497829464626, 0.42238144894301216, 0.42808895313628437, 0.4337639481003549, 0.4395056118125212, 0.44525779510793057, 0.451036778813294, 0.45680699206731107, 0.46258762414461885, 0.4683780928422509, 0.4741777890132611, 0.4799538692761925, 0.48577417330929323, 0.4916155832441084, 0.49744440154611363, 0.5032786542486198, 0.5090597205369579, 0.514910225767097, 0.5208152228074058, 0.5266590198091596, 0.532505524021332, 0.5382637426322221, 0.5441246506213303, 0.5500037918861067, 0.5558521562390976, 0.5616967741868503, 0.5674902666892223, 0.5733319444996738, 0.5792071785369777, 0.5850277044822582, 0.5908422132124431, 0.5966196459774415, 0.6024238696624106, 0.6081786637963397, 0.6139676702468596, 0.6197435387146263, 0.6255437260058166, 0.6312876463278799, 0.6370029375329239, 0.642724044786133, 0.6484305834503489, 0.6540933497190422, 0.6597723077913608, 0.6654099876705092, 0.6710547972596381, 0.6766789668212658, 0.6822268604924087, 0.6878154187543292, 0.6934055022989148, 0.6989402271407008, 0.7044509259057966, 0.7098947361818511, 0.7153610994492943, 0.7207634392190104, 0.7261777556292801, 0.7315612072450351, 0.7369412264127984, 0.7422588321326342, 0.7475325118226966, 0.7527909651691765, 0.7580171737209627, 0.763219723746011, 0.7683783861431779, 0.7734738977081707, 0.7785680782568527, 0.7836252806779656, 0.7886007307564253, 0.7935877206978494, 0.7985324130770843, 0.8034364098155762, 0.8082981961794051, 0.81315042084705, 0.8179220948969393, 0.8226002727818105, 0.8272936467382098, 0.8319403695673655, 0.8365279869705498, 0.8410813965815883, 0.8455969052528116, 0.8500504969161512, 0.854454652136595, 0.8588187858093254, 0.8631206390158962, 0.8674036412179001, 0.8715984487413175, 0.8757422991535976, 0.8797613754419269, 0.8838091961893955, 0.8878649961448243, 0.8917874373493385, 0.895654396160546, 0.8994243258265544, 0.9031823108071121, 0.9068730318485924, 0.9105095498513457, 0.9140835952284437, 0.9176166443652146, 0.9210611042149577, 0.9244185277275724, 0.9277389694131363, 0.9309933208820288, 0.9341552075093977, 0.937278807611817, 0.9403403863582617, 0.9433238644836984, 0.9462374948760998, 0.9490706156891162, 0.9518442002526827, 0.9545770023500535, 0.9572019926487578, 0.959755664054002, 0.9622050313860917, 0.9646178338347697, 0.9669975800810731, 0.9692537944185563, 0.9714360707526736, 0.9735500329476166, 0.975581199214145, 0.9775161914632085, 0.9793972931309245, 0.9811998285608149, 0.9829251029811225, 0.9845686799067396, 0.9861230235056788, 0.9876071925101041, 0.9890098085234161, 0.9903092989098725, 0.9915502744166286, 0.9927091527330774, 0.9937818066306433, 0.994770187578965, 0.9956841700084247, 0.9965019741494279, 0.9972270333998366, 0.9978766237821785, 0.9984406260563936, 0.9989482449247332, 0.9993366185120129, 0.9996007677540508, 0.9998243816106516, 0.9999602417728242, 1.0, 0.9999611998118931, 0.9998910348782821, 0.9996681717031356, 0.9993600786380494, 0.9989230344000573, 0.9984486062435696, 0.9978751648131072, 0.9972242798386, 0.9964840283712726, 0.995707004284834, 0.9947817964444057, 0.9937696547313044, 0.9926722546023254, 0.9914882841533125, 0.9901862916945512, 0.9888327030246885, 0.9874125402192755, 0.9858790709061505, 0.984258661468869, 0.9825035391469314, 0.9807155846982963, 0.9788263959404224, 0.9768619851650198, 0.9748087608398244, 0.9727041758789734, 0.9704705727627339, 0.9681493278641984, 0.965746609258119, 0.9632189844281096, 0.9606529352624088, 0.95800097684739, 0.95529423004688, 0.9524688508154431, 0.9495439916792928, 0.9465573068358313, 0.9434886160128585, 0.9403100535958749, 0.9370829569512592, 0.9338129224705488, 0.9304186798756592, 0.9269468442879135, 0.9233906370944064, 0.9197663281744339, 0.9160492898556764, 0.9122754801874853, 0.9084260640671213, 0.9045240381630442, 0.9005233506160749, 0.8963967456178747, 0.8922604373659018, 0.8880510014679439, 0.8838423949951963, 0.8794812481345702, 0.8749903269690094, 0.8705072296731787, 0.865956446676019, 0.8613548698960908, 0.8566704672369968, 0.8518981203499385, 0.8470917647885845, 0.8422231268653596, 0.8373515094425855, 0.8323549378093411, 0.8272342590255266, 0.8221370799585989, 0.8169826675242103, 0.8117881629561436, 0.8065217733527458, 0.8011878130392602, 0.7958208687260329, 0.790403762097253, 0.7849471504036397, 0.7794329092939221, 0.7738908461084665, 0.7682851387589484, 0.7626378317809953, 0.7569446368700128, 0.7512185546672837, 0.7454626211402121, 0.7396605742608556, 0.7338235758574057, 0.7279023257700804, 0.722005796301803, 0.7160948182774839, 0.7101300843591108, 0.7041362064719788, 0.6981193605790411, 0.6920713312784914, 0.6859613931814199, 0.67987130669579, 0.6737579784377895, 0.6675974727645434, 0.6614463818602848, 0.6553404198221418, 0.6491445444115322, 0.6429368313463094, 0.6366817996366743, 0.6304590820638912, 0.6242486094711094, 0.6180051063684325, 0.6117563647902275, 0.6054679711218319, 0.5992177312399156, 0.5929711334315779, 0.5867162625665888, 0.5804624887053608, 0.5741719100724418, 0.5679303266262363, 0.5616750873146096, 0.5554453065905528, 0.5492221828027851, 0.5430628994727851, 0.5368519406128311, 0.5306656508381785, 0.5244858068011203, 0.5183246444529966, 0.5121843684983112, 0.5060643199204745, 0.4999153596197982, 0.49384838847366924, 0.4878037807007452, 0.48174462358682546, 0.47575480200142684, 0.4698371909380129, 0.4638939038973584, 0.4579822860754385, 0.4521138543224719, 0.446268457361504, 0.44041064809222186, 0.4346454036254942, 0.42891629459788083, 0.423262688055218, 0.41760592591674833, 0.41197374635089695, 0.4064064586276044, 0.40088345734854514, 0.3953683086973986, 0.38994251686147746, 0.3846050353373968, 0.37926736003682804, 0.3739810045674393, 0.3686945627355504, 0.3635206175889654, 0.3584754621757328, 0.3533961396653612, 0.3483754272493798, 0.34334037509111026, 0.33844823095891746, 0.33363564196223305, 0.3288549896596071, 0.3241347199673637, 0.31949698983330704, 0.3148977427147176, 0.3103325577892388, 0.3058667278755709, 0.3014650392866985, 0.297157872116071, 0.2928834887095662, 0.2886692734842244, 0.28453340147194656, 0.2804666289575137, 0.27642630648682687, 0.2725049927873521, 0.2686428925144303, 0.26486045675943676, 0.2611476159670634, 0.25750427297764467, 0.25393313769637166, 0.25049546868420075, 0.24706078167756826, 0.2437025654310182, 0.2404162384160976, 0.23721161320217807, 0.23400781581644123, 0.2309653868590914, 0.22799514849367164, 0.22516862485375905, 0.2223357052783237, 0.21956595928046913, 0.21689054775597053, 0.21429190715237978, 0.2117718429427613, 0.20932638611586524, 0.20694383289084473, 0.2046534253252816, 0.20243870600308544, 0.20031987838380247, 0.1982538105491814, 0.19620083065227703, 0.19429565741254431, 0.19246287222842862, 0.1907624642090706, 0.18906732094451054, 0.18744819759405254, 0.18590455852434296, 0.18443586209896956, 0.1830111889350833, 0.18169455950895247, 0.18041359760401593, 0.17924428550259003, 0.17814379572772307, 0.1771110703558367, 0.17614785197343819, 0.17532086848956932, 0.17448495985922147, 0.17372025263837057, 0.17294934743310794, 0.17233366977169698, 0.17179018024254883, 0.1713008941661187, 0.17087516205497125, 0.17056762401502734, 0.17026023085519773, 0.16994673595199164, 0.1697766520223112, 0.1696650171928633, 0.16962321104265615, 0.16962514415662094, 0.16967965422114148, 0.16979566562794188, 0.16996683706522814, 0.17019318932180416, 0.17047182708961356, 0.17084611837584165, 0.17122307107924495, 0.17165279064332414, 0.17214858145099718, 0.1726777292422352, 0.1731936787170188, 0.17382800953669236, 0.17452457501607177, 0.17524133622911187, 0.1760001617647201, 0.17678606629137328, 0.17762720614599775, 0.17854837643284047, 0.17945843918309573, 0.18040631117254818, 0.18136011174678332, 0.1823829289373778, 0.18347510645838955, 0.184555194167604, 0.1856665813681427, 0.1868086388500693, 0.18797788429351978, 0.18913064835130747, 0.19035741661740682, 0.1916055657399716, 0.19292644437243933, 0.19420736979313327, 0.19549909130506904, 0.19682153073957204, 0.19816114470961002, 0.19946493571291185, 0.2008410498250798, 0.2022160704989767, 0.20361248240819968, 0.20501618933366125, 0.2064777468320954, 0.2078865436914576, 0.20924540938601074, 0.21067417253436826, 0.21210387939040534, 0.21354089518580932, 0.21496853205047556, 0.21639259322294419, 0.21781584469887075, 0.2192349471604606, 0.22069751686414554, 0.2220986648633084, 0.22350317630171293, 0.2248918636675737, 0.22627299295734052, 0.22761832376432312, 0.22898310568530372, 0.23037021399548135, 0.23170213057226619, 0.23302011791803998, 0.2343079969876853, 0.23559567678084106, 0.2368505864026008, 0.2381008911064128, 0.23932910594521417, 0.24054617336572726, 0.2417256449204421, 0.24283742062812924, 0.2439724020516617, 0.2450783903959162, 0.24620900928368303, 0.24724810737168215, 0.2482481474886964, 0.24923146363814963, 0.2501838947566322, 0.2510455748898752, 0.2519408151254799, 0.2528110251729799, 0.25363036650731785, 0.2544125606971483, 0.25514049654002713, 0.2558488468862789, 0.2565220679457797, 0.2571499519594534, 0.25773750336787365, 0.25828423811142015, 0.2587896705616361, 0.2592505556811111, 0.2596722844929036, 0.26005111907971923, 0.2604547201111759, 0.2607378401757739, 0.26099623794060134, 0.2611956900674786, 0.26135382609400337, 0.2614108278010978, 0.261491110677442, 0.26150403000535827, 0.26149244375814745, 0.2614322282821509, 0.26138688154662576, 0.2612213673233166, 0.26094174974639917, 0.26069428564249864, 0.2603969046523753, 0.2600838291583529, 0.2596828144724383, 0.259278460021538, 0.2587767139897794, 0.25822973235389746, 0.25756624846790543, 0.25693662188205857, 0.2563018937560063, 0.255566556780824, 0.25478431465633844, 0.25398462715724657, 0.2531049256368455, 0.25210926873236966, 0.2511482411794306, 0.25013800969423067, 0.24910402130671355, 0.24799402535229279, 0.2468545501145718, 0.24565074350714367, 0.24440258990563438, 0.24313890197127105, 0.2417993356295047, 0.2404207475274305, 0.2389974307325615, 0.23753287612105875, 0.23596016333370615, 0.2344224681668559, 0.23287016404562422, 0.23124158747037643, 0.22957250198393653, 0.22785530785789196, 0.22610831513013482, 0.2243077160699604, 0.22248561472319583, 0.22062539685145607, 0.2187509936716932, 0.21681439767416483, 0.21487961943264514, 0.2128710605689551, 0.2108319093831382, 0.20876816407134818, 0.20666861493351632, 0.20447687453170435, 0.20232855911745973, 0.2001492105035711, 0.1980108821392901, 0.1957640568208415, 0.19342466122185697, 0.19114003024226858, 0.1888291598836104, 0.18654849315186056, 0.1841818156271262, 0.1817275071606568, 0.1793311049397251, 0.17691283610153988, 0.17454306851188112, 0.1720763408816757, 0.1695937150339891, 0.1670998015452465, 0.16459316435096505, 0.1620285836113355, 0.15950473637085014, 0.15699751662397796, 0.15444555894168946, 0.15188492518457655, 0.14927610197515018, 0.1467061865347245, 0.1441743091896365, 0.14158395695544898, 0.13899084702838355, 0.1363765546745392, 0.13378309542105968, 0.13118854977608752, 0.12859402144754775, 0.12600060625076692, 0.12342319660067257, 0.1208335181534807, 0.11820847434265004, 0.11563512406592172, 0.11306653979717277, 0.11058039368282703, 0.10801550775946775, 0.10539256287555382, 0.10286281218712764, 0.10034306858666459, 0.09790449669894331, 0.09539955374438676, 0.09284676215420658, 0.09038562412847861, 0.08793946748624062, 0.08555178311250831, 0.08313367243598406, 0.08074088690204943, 0.07836435730093107, 0.07601025256977817, 0.07370135944747135, 0.071391421775088, 0.06904653842035902, 0.06679641593463187, 0.06456979846526742, 0.062392615451446566, 0.06021306649915043, 0.05811582941929678, 0.05598620036671568, 0.05388913340581173, 0.05176234211819748, 0.04973923328856456, 0.047752611432051284, 0.045789676360002085, 0.043858905446016096, 0.04204113443505717, 0.04016684797537424, 0.03831763533501923, 0.03652288995109343, 0.03472588505454951, 0.03301297329914233, 0.03133653965340621, 0.029780946610643542, 0.028168701014340807, 0.026587439767210345, 0.0250624697691105, 0.023579567767785012, 0.022179298099111542, 0.020775656807487896, 0.01940837436376315, 0.018094885842392192, 0.01682527490846937, 0.015605056142991309, 0.014422512612445475, 0.013293427974797701, 0.012198259624315444, 0.011147938672699576, 0.010154419101767426, 0.009192271208742062, 0.008363097972058892, 0.007480930327767681, 0.006649118991620945, 0.005891785674002127, 0.00515546396391935, 0.004477277816580592, 0.0038389460969245072, 0.0032496838091168024, 0.002731008804514416, 0.0022354593647977987, 0.0017620354918441315, 0.0013669350896014737, 0.001018110993475735, 0.0007659656014829634, 0.0005026742824082812, 0.0003771877742235814, 0.0001991111754073428, 7.34986190749565e-05, 2.7699746832810296e-05, 0.0, 5.357297577310874e-05, 0.00012277670221223848, 0.00024257915057290826, 0.00037231865881073254, 0.0005951739694195945, 0.0008984520937631814, 0.0012073293169649257, 0.0015627399752746907, 0.0020348754498286815, 0.002472437680504835, 0.0029715485626016797, 0.0035037213165548518, 0.004083208412032933, 0.004749507787977957, 0.005415611046826371, 0.0061644740180962655, 0.0069186984734193255, 0.007719752030715276, 0.00861339283416705, 0.009498751002192572, 0.010424841616346558, 0.011402147992330624, 0.012423002913386208, 0.0135223113775959, 0.01462285287747639, 0.015761646780616985, 0.016947431885852012, 0.018173812748700748, 0.01948320682493861, 0.020782865676020564, 0.022117702671823062, 0.023498444581533832, 0.024917630413039748, 0.026425063106136952, 0.02791235476009529, 0.029428534094879086, 0.03099405902829666, 0.032595976761372165, 0.034282239804655654, 0.035948363266079225, 0.03769364492711323, 0.03942699967879008, 0.041197510676399825, 0.0429689632997065, 0.04481458781207069, 0.04671499874264191, 0.048620601832202626, 0.05055797549661116, 0.052565913938559035, 0.05455954297743928, 0.056550010582565445, 0.058610726356138225, 0.060699455172106044, 0.06283775276923206, 0.06497814518291575, 0.06714350497951797, 0.06933905765486294, 0.07156093041756355, 0.07387667299838202, 0.07614094496932007, 0.07837211926001414, 0.08070028377835883, 0.08305157999121544, 0.08543300161088736, 0.08782853257811514, 0.0903173892933082, 0.092748480341224, 0.09520521314845516, 0.09767651480312577, 0.10018304408091629, 0.10272031867959659, 0.10527008089944426, 0.10784153116056701, 0.11038803946360903, 0.11300688836565351, 0.11566154810319024, 0.11831276976817862, 0.12098220085313918, 0.12368889323352879, 0.1263914880586247, 0.12913007375091173, 0.13186707153982283, 0.13462279202741823, 0.1373341740614238, 0.1401338521831507, 0.14300079891332915, 0.14582164938057854, 0.14865963449799663, 0.151448146541688, 0.1543277703573273, 0.1572198594400129, 0.16012468374959993, 0.16304247106753647, 0.16604335465735676, 0.1689787636500129, 0.17192601721323011, 0.17489640002201237, 0.17788297397478134, 0.1808614926516681, 0.18388255469932008, 0.1868642382581266, 0.18992002195584387, 0.1929867641567618, 0.19607776372304414, 0.19916599043246314, 0.2022504403352334, 0.20536652313664153, 0.20849481405515, 0.21165492052832968, 0.21480599705628337, 0.217937991419148, 0.2211213999258048, 0.224317088960795, 0.2275732266830886, 0.23078833284240735, 0.234027536858616, 0.23727307317405164, 0.24053461175487134, 0.24375124793886313, 0.2470520090556732, 0.25038153097143984, 0.25370500395193835, 0.25704239895489744, 0.2603571221043658, 0.26372765963278855, 0.26717049811187177, 0.2705589237138404, 0.2739641226767291, 0.27738418240993645, 0.280822971375864, 0.28421295076959335, 0.2876930809224784, 0.291186127070211, 0.2946963478691957, 0.2982164435084505, 0.30177701917327354, 0.30532369417475774, 0.3088873232200208, 0.31242939999495967, 0.31603226288121894, 0.3196411461508784, 0.32327607634873856, 0.3269265889455193, 0.3306051056760583, 0.33428660349391986, 0.33798745193131774, 0.3417039889585672, 0.3454386253501648, 0.3491409479340764, 0.35291877980095776, 0.35670968170927575, 0.3605200990370001, 0.36434728077894596, 0.36820459226548646, 0.3720650646366028, 0.37591762634462766, 0.3798192630615675, 0.3837386211928799, 0.3877303960968014, 0.3916794764645916, 0.3956577401127387, 0.39964936039564386, 0.40360675243338234, 0.4076490941240192, 0.41170982321739585, 0.41575058123667724, 0.41985381428230484, 0.42398047222988045, 0.42811734937031953, 0.4322724864383065, 0.4364958860805695, 0.4406821268066564, 0.44487914005748525, 0.4491101724635535, 0.45336193677017267, 0.45760853345954383, 0.4619046212411506, 0.4662067017485009, 0.4705422319870712, 0.47489600308666785, 0.4792469489627697, 0.48364013912505227, 0.4879990266188573, 0.49243335588112447, 0.4968822813578473, 0.5013297004882417, 0.5058112025248866, 0.5103286384003491, 0.5148373221177099, 0.5193625166120494, 0.5239410115008917, 0.5284944505927928, 0.5329981352250382, 0.5375964086381753, 0.5422082578720526, 0.5467987738984671, 0.5514423083303651, 0.5561231922370536, 0.5607867672352489, 0.5654635497392858, 0.5701532919714424, 0.5748556948470063, 0.5795722528685121, 0.5842986629019401, 0.5890366727323068, 0.5936937721945229, 0.5984651445945905, 0.603317801598892, 0.608089485325885, 0.612870577454569, 0.6175794228850645, 0.6223875438372023, 0.627231589998538, 0.6320410331701334, 0.6368548764376292, 0.6415971234126984, 0.6464276640930927, 0.6512805598286749, 0.6561048701596555, 0.6609287187613494, 0.6657442762108182, 0.6705666621115809, 0.675381049466508, 0.6801985835576853, 0.6850120790984012, 0.689764733205804, 0.6945752014297754, 0.6994066987717218, 0.7041942841568387, 0.7089734139264202, 0.7137451396896901, 0.7185047102256027, 0.7231862393494732, 0.7279316497116486, 0.7326605256877259, 0.7373576826891292, 0.7420538775839957, 0.7467144921383434, 0.7513741529487014, 0.7560125877734175, 0.7606742662180657, 0.7652625881752123, 0.7698126105102205, 0.7743603010472156, 0.7788837524044673, 0.7833800220790211, 0.7878518937451022, 0.7922491003601326, 0.7966702844935273, 0.8010587591951771, 0.8054468310180132, 0.8097631628214733, 0.8140082591190014, 0.8182610971074155, 0.8224757872919871, 0.8266513552254529, 0.8307867817690974, 0.8349205813106307, 0.8389675118038981, 0.8429732477494986, 0.8469363225759015, 0.850855287140741, 0.8546937378619287, 0.8585246233207242, 0.8623051879190808, 0.8660021177795022, 0.8696827830613623, 0.8733245180501443, 0.8768912019069485, 0.8804014848748365, 0.8838855465550622, 0.8872757233721742, 0.8905489782179614, 0.8938291537464645, 0.8970452185974107, 0.9002119339111504, 0.9032951104726141, 0.90632886222175, 0.9092768586020491, 0.9121575770137936, 0.9150111814812999, 0.9177483743462668, 0.9203515691082534, 0.9229581736688205, 0.9254894396606312, 0.9279978452019679, 0.9303689733496376, 0.9326760655140305, 0.9348942777585014, 0.9370353581619251, 0.9391062354626576, 0.9410879983377972, 0.9429809123344903, 0.9448013263225082, 0.9465382368330314, 0.9481298138109134, 0.9497041667037329, 0.9512050215002055, 0.9525966671532619, 0.9538981824921002, 0.9551650417630657, 0.9562772074095413, 0.9572543914498484, 0.9581933363118074, 0.9590385847572112, 0.9598318587597783, 0.960482537781544, 0.9610134077939125, 0.9614803072812708, 0.9618508201447585, 0.9621519701139587, 0.9623244896053335, 0.9624014160998846, 0.9623800658707562, 0.9622608555641448, 0.962011868700018, 0.9616990670232649, 0.9612692775755666, 0.960755542259858, 0.960139148119235, 0.9594549968123744, 0.9586286564704797, 0.9576323979657414, 0.9566126572904565, 0.955487520405119, 0.9543419625492869, 0.9529962256426642, 0.9514881158866343, 0.9499502736023786, 0.948308335837902, 0.9466103742847656, 0.9447548487824132, 0.9427856973417584, 0.9407301742281332, 0.9385729615282916, 0.9363261043049439, 0.9339642875250701, 0.9315027484288373, 0.928939645676217, 0.9262762373142803, 0.923501694422816, 0.9206397667297734, 0.9176436595624032, 0.9145862334422055, 0.9114277097949101, 0.9081615241558486, 0.9048041313011604, 0.9013807589372649, 0.8978218263280904, 0.8941673847476633, 0.8903499433657078, 0.8865149693967779, 0.8826129905254587, 0.8785807066798145, 0.8744552825650753, 0.8701898459662254, 0.8658871545056938, 0.8615707722543269, 0.8570738123305773, 0.8524912512079627, 0.8477465061420547, 0.8430047447477544, 0.8382048399216024, 0.8332856870223956, 0.828290048031982, 0.8232054628748292, 0.8180408037577819, 0.8128092537367572, 0.8074866161343666, 0.8020781845001441, 0.7966066834369165, 0.7910613771632804, 0.7854454597527316, 0.779756396150943, 0.7739250634108882, 0.7681074753505639, 0.7622190961692927, 0.7563217961264737, 0.7502903768647036, 0.7441616502747669, 0.7380133860044107, 0.7318046188724374, 0.7255095367077309, 0.7191886376969302, 0.7128027744375842, 0.7063715631969388, 0.6998871844342305, 0.6933995115258528, 0.6868087723002334, 0.6800952990468734, 0.6734269940277622, 0.666712942749205, 0.6600198158415902, 0.6532128258147112, 0.6463022075386139, 0.6394343748083656, 0.6325304220582308, 0.6256578956192057, 0.6186800155275425, 0.6116522517629317, 0.6046270561654256, 0.5975777409208813, 0.5904463213428551, 0.5833618418900234, 0.5763198328000922, 0.5691856439268622, 0.5620377404649916, 0.5548750794423201, 0.5477052707180798, 0.5405268074277141, 0.5333414869580808, 0.5261511191956472, 0.5188691760719104, 0.5116853551425665, 0.5045641976802273, 0.49736539881804787, 0.490170874558189, 0.4829751157313523, 0.4757956283808973, 0.46860070482169625, 0.4614450846686717, 0.4543012729858817, 0.44718054943493996, 0.4400653838075247, 0.432899640918524, 0.42583198937388145, 0.41878268017791986, 0.4117495185123473, 0.40474460523696026, 0.39778589820528504, 0.39083057976521546, 0.3839057975008582, 0.37698673890872214, 0.3701319879251218, 0.3633264991279035, 0.35654092727903103, 0.34979458765942745, 0.3430487116589018, 0.3363910889886042, 0.3297791598691599, 0.3232070292555608, 0.3166809070750273, 0.3102706518691096, 0.3038331430826985, 0.29744410969547636, 0.29111828490452163, 0.28484910171274747, 0.27856497216365134, 0.27242161411717, 0.2663470532595639, 0.260315591280705, 0.2543440854876704, 0.24841097236478998, 0.242566563349244, 0.2368521662578005, 0.23112639042354885, 0.2254700774686226, 0.21987113040963374, 0.21435773657271484, 0.20891820998750724, 0.20354756931491277, 0.1982499498960472, 0.19296912080300244, 0.18782722169338337, 0.1827934564963773, 0.1777927274678875, 0.17286862164852446, 0.16796485864288102, 0.1632035111004032, 0.15852148946659853, 0.15391209188444915, 0.1493807036614523, 0.14493099978961702, 0.14055794381860093, 0.13625727698619577, 0.13204727719539594, 0.12791874973319511, 0.1239284373434041, 0.11995750259874169, 0.11605071797216428, 0.11225501101871643, 0.1085442205512234, 0.1049451657119498, 0.1014011952649285, 0.09789240358313493, 0.0945282051785714, 0.09124747506342766, 0.08803755590992315, 0.08492601023143007, 0.08194924441372664, 0.07899782162967553, 0.07613277265301553, 0.07328836347700252, 0.0706031355034262, 0.06800492590237275, 0.06548208907234629, 0.0630411696935497, 0.06072163448002486, 0.05843916141174006, 0.056236630525436516, 0.054121255648828234, 0.052088052057226476, 0.05012719626296291, 0.04825761408244421, 0.04643646464049937, 0.044729666421239045, 0.04309956481149026, 0.0415899000519651, 0.040106240039645705, 0.03863124250465891, 0.0373107083205522, 0.036062033170700565, 0.03495564201407487, 0.03384032950125601, 0.03277169090385276, 0.0318071992704704, 0.030912974477482966, 0.030087089622158694, 0.02933046772633139, 0.0286170321082356, 0.02799658444369913, 0.027439723197215937, 0.02697403891601901, 0.026537878630528252, 0.026124374232288958, 0.02581637009178528, 0.02556575250618386, 0.025376112634862863, 0.025236603762128933, 0.02520861628629475, 0.02516962803610498, 0.025185887154715193, 0.025216101675777317, 0.0253427273913343, 0.02548416524171043, 0.02570953197865901, 0.02597829183714115, 0.026310499776153604, 0.026659980695988263, 0.027033066312690496, 0.027465510611551888, 0.027935188161887715, 0.02842696965785033, 0.02896885093941887, 0.029607539363268074, 0.030204742578819103, 0.030835298688492364, 0.03146050033061032, 0.03215676412141178, 0.03283731334711065, 0.03358870409813633, 0.03436044445379633, 0.03520655764642007, 0.03600838225469433, 0.03678115310524283, 0.037626818462885146, 0.038485948276714414, 0.03935904513900256, 0.040240827266252506, 0.041174411328984646, 0.042068346733308136, 0.0429712484239406, 0.043874873222617454, 0.044791150188095936, 0.0457236057024623, 0.04664318320219588, 0.04756348099468999, 0.0484671331650392, 0.04938572036971683, 0.05024570795214758, 0.05115909915623495, 0.052111901453418465, 0.05299543775868439, 0.0538684815956463, 0.054696378593234056, 0.055548077910319495, 0.056395805533288317, 0.05721097342075467, 0.058007616454805386, 0.058807429672576045, 0.05956018521154497, 0.06024486168020113, 0.06095979665986162, 0.06164805494759648, 0.062350030625847194, 0.06297662858414178, 0.0635601368366787, 0.06413244487789474, 0.0646737121071154, 0.06515607463467368, 0.06563513088400731, 0.06608279062789991, 0.06648837602600365, 0.06685643283902913, 0.06719247089495432, 0.06748186729918661, 0.06774789182435163, 0.06795436629642537, 0.06811994836794392, 0.06821874714725627, 0.06830259746013725, 0.06836691952975815, 0.06835619310961562, 0.06830017885079902, 0.06822098063767171, 0.068068813997493, 0.06782957513751281, 0.06758840829186792, 0.06729652950280413, 0.0669911587077497, 0.06659156596928038, 0.06609772199566273, 0.06560280231466487, 0.06505386888020112, 0.06447180099472262, 0.06381131134892555, 0.06312385493740119, 0.06235225967893731, 0.06152770375772515, 0.06064226471629203, 0.059711101576636345, 0.05867629575697131, 0.05764124642947913, 0.05654800121224424, 0.05537647928328174, 0.05416989501709026, 0.052921031170394206, 0.05159498727797079, 0.050211662167072756, 0.048810793953358925, 0.04730840858658076, 0.045755171780231085, 0.04414313909692314, 0.04247660262001004, 0.04075184365000089, 0.03897670732090566, 0.03713310566771937, 0.035250542625766136, 0.03331288762616471, 0.03127171261849422, 0.02923111157147326