0.017439149176332495, 0.01726337734195497, 0.017136880079414666, 0.017038730734024978, 0.016971935779446442, 0.01697912332815595, 0.016955747458104683, 0.016887722478599133, 0.016913199865290163, 0.016950671116472634, 0.016993039222672986, 0.017049963693805213, 0.017171799422465796, 0.017234773302250192, 0.01730653157087937, 0.01733009807792338, 0.017423898302571, 0.017484392290444902, 0.017589880174334844, 0.01769709145329896, 0.017778600042143555, 0.01789459639251031, 0.01808963361449845, 0.01820077429927802, 0.01831998550710903, 0.018421225495431143, 0.018560615958472713, 0.018684653970749386, 0.01884230353340681, 0.019007211507576945, 0.0191381005526366, 0.019325042696576054, 0.019517280760910555, 0.01971953333811153, 0.019930654521453515, 0.02014276226621413, 0.020375281331399122, 0.020606352402291427, 0.02086280291302049, 0.021130844766975174, 0.021365704033733363, 0.021664870372350886, 0.02204867763948638, 0.022361696907781774, 0.022691743777828968, 0.02302674103070693, 0.023392929100856896, 0.023737472252583845, 0.024142557050761147, 0.024562896773646283, 0.024997305692630232, 0.025450025753729913, 0.025942225813278375, 0.026425960178919995, 0.026928568198987205, 0.027378473140406593, 0.027928532797858677, 0.028508068106636603, 0.029088076305484586, 0.029685833586398085, 0.030326388964543944, 0.030958112759375975, 0.03154391676011692, 0.03222551134146863, 0.03292444227081546, 0.03367298522563256, 0.03440481577727781, 0.035150833826718034, 0.035926260361005415, 0.03675289238541264, 0.03756779431356264, 0.03840650751643347, 0.039232352362132884, 0.040123623255485276, 0.040993191371701605, 0.04193457324742272, 0.04289642119045031, 0.04385322076888715, 0.04486150873066403, 0.04597490563694319, 0.04701549783033504, 0.048083401817730576, 0.04914359334838834, 0.05027055889255605, 0.05137741386684353, 0.052561316563893845, 0.05376877592100818, 0.05505651855492911, 0.056306045341780964, 0.05751767225589879, 0.05883297761509882, 0.0601733935549035, 0.06158160304098943, 0.06296885730393036, 0.06436264648499197, 0.06581154887600912, 0.0672888263313765, 0.06884211672528091, 0.0703712365628171, 0.0718501210339183, 0.07345368437806105, 0.07508456624994793, 0.07680819355113565, 0.07848739415762168, 0.08019931069750856, 0.0819439067175153, 0.08372116625882439, 0.08548206605788343, 0.0873308724899914, 0.08923765527941199, 0.09114327919449587, 0.09308126880548098, 0.09504825621900026, 0.09705181547706034, 0.09908792664509633, 0.10115673217309436, 0.10325836385781131, 0.10533166123258618, 0.10750704568151985, 0.10968238187493877, 0.11192154400988517, 0.11418984035525595, 0.11656323964814005, 0.11888223437214093, 0.12122410783982271, 0.12361474778164686, 0.1260394918900728, 0.12850527852590707, 0.13099714108711763, 0.13346725035706178, 0.13603460037313903, 0.13863278410463456, 0.14124809221400245, 0.1439105485469163, 0.14665454865446334, 0.14937236655849323, 0.15212423417947926, 0.1548345857631735, 0.157663240899639, 0.16052263909422385, 0.16340938248779105, 0.16632578937330977, 0.16933505501627347, 0.1723032449963602, 0.17525066355792648, 0.17829221270844825, 0.1813632038403257, 0.18445833142010484, 0.1875886687945413, 0.19075137006899906, 0.19393885833903346, 0.19715510510254686, 0.20042088757186285, 0.20369126455560074, 0.2069907923719986, 0.21031898687212025, 0.21367536164010448, 0.21704717130042187, 0.22045998596923833, 0.22387605449451362, 0.22734337709524405, 0.23083461898202118, 0.2343232659645131, 0.23786487707917434, 0.24142631945558185, 0.2450111709118385, 0.24861715907689647, 0.2522825643107294, 0.25592518820625654, 0.2595569822405227, 0.2632480026961125, 0.26695822579578127, 0.2707432644095273, 0.2744835274058853, 0.27818876315917745, 0.2819771544686225, 0.28578151464138696, 0.2896101453395842, 0.2934439449486332, 0.2973102591409467, 0.301171241747253, 0.3050469667222933, 0.3089086314143367, 0.3128150207736467, 0.3167042072143969, 0.3206352028216569, 0.3245742919692324, 0.32851408312033276, 0.33246902881281165, 0.3364601242531934, 0.3404236001809537, 0.344394133869831, 0.3484251996004514, 0.35240056642688344, 0.3563170664131957, 0.36031491586649095, 0.36431421651933865, 0.36829856934236926, 0.3723008131176978, 0.3762806057158128, 0.380282030992417, 0.3842796098816561, 0.38828334922372454, 0.3922703586854694, 0.3962244480397772, 0.40020446127928977, 0.404176514083968, 0.4081960789235615, 0.41214340665393273, 0.4160193179254029, 0.4199604252221802, 0.42388899200462665, 0.4278902239329063, 0.4317810483247718, 0.4356447325683835, 0.43951710007953915, 0.4433760882863032, 0.4471837586148895, 0.4510171532839856, 0.4548526802089089, 0.45864485646063985, 0.4624177065831262, 0.4661649718439925, 0.4698968233538609, 0.47362356737012473, 0.47730703027415605, 0.48096697729132915, 0.4845357951007045, 0.48815390480430115, 0.49170481496079266, 0.49526622150718536, 0.4987941009113691, 0.5023056696308494, 0.5057633257329253, 0.5092118477690561, 0.5125984693270503, 0.5159514988950293, 0.5192490170600345, 0.5225347896473455, 0.5258110701707674, 0.5290175417684466, 0.5321865671181775, 0.5353188892948357, 0.5384097916517906, 0.5414008349933599, 0.544417628466639, 0.5473888106303924, 0.5503524326185151, 0.5532260722573474, 0.556010958840594, 0.5587992793526934, 0.5615383881387288, 0.5642417732079342, 0.5668790980005384, 0.5694505905032865, 0.5719890457704901, 0.5744751106531393, 0.5768994366776037, 0.5792800298361012, 0.5816234241208672, 0.5838918266802792, 0.5861053670140272, 0.5882230463936361, 0.5903297791709673, 0.5924630288468326, 0.5944399871812299, 0.596361711350427, 0.598221837686383, 0.6000304928471957, 0.6017314608978622, 0.603428113720142, 0.605061649787841, 0.6066561973771305, 0.6081592441550058, 0.6095888833631955, 0.6109668691362721, 0.6122679644147534, 0.6135177852399716, 0.6147014074447551, 0.6158220173610159, 0.6168718578425099, 0.6178757763788533, 0.6187887702580109, 0.619635374361109, 0.6203976130666667, 0.6211122872373075, 0.621695262412648, 0.6222803501202523, 0.6227928022246844, 0.6232206753792274, 0.6235902974480598, 0.623974944765634, 0.6241887479157149, 0.6243354831185515, 0.6243446257436421, 0.6243646733335498, 0.6243509502319265, 0.6242217886824525, 0.6240229633687793, 0.6237578741606031, 0.6234190000973016, 0.6229754168144438, 0.6225015392452748, 0.6219559381079012, 0.6213108916458553, 0.6206262574835671, 0.6199549849520191, 0.6191151473467492, 0.6182086849928917, 0.6171600828946439, 0.616129280939612, 0.6150359086330071, 0.613861924735887, 0.6126182390683635, 0.6113018229417408, 0.6099205945023609, 0.6084708855436296, 0.6069532003733972, 0.6053680450772602, 0.6037141787483117, 0.6019958403886212, 0.6001922228959959, 0.5983448276759028, 0.596431433812468, 0.5944860283276624, 0.592438582915789, 0.5903589105676742, 0.5881841553256957, 0.5859499882930685, 0.5836058987052091, 0.5812601853715387, 0.5788952081808435, 0.5764224568256221, 0.573892470241691, 0.5712619857527756, 0.5686246377493777, 0.5659642780163086, 0.5632074321466597, 0.5603964942605553, 0.5574778843581002, 0.5545677516669415, 0.5516516963006853, 0.5486266967421035, 0.5455519296154889, 0.5423563930672618, 0.5391935523710529, 0.5360371381796755, 0.532765732591684, 0.5294490644145198, 0.5260617661474688, 0.5226606036915119, 0.519232967395397, 0.5157427964336715, 0.5122119605365453, 0.5086152147671826, 0.5050094392757692, 0.5013523655419312, 0.4976713258394611, 0.49395308275495603, 0.4901849724157234, 0.48639810164456887, 0.48257545749555486, 0.4787221615045861, 0.4748375133161453, 0.4710034140420199, 0.46704993417643886, 0.4629983467361379, 0.4590094004544702, 0.45499477926841786, 0.45096987230791935, 0.4469062552241062, 0.4428638566792224, 0.43875453438968753, 0.43462919523929777, 0.430418679418871, 0.4262728323684544, 0.42217457212297915, 0.4179876949840292, 0.413790326360586, 0.4095641660006811, 0.40535116137784494, 0.4011348112188373, 0.39690514914080216, 0.39266959414770697, 0.38840305118663404, 0.3841625440019939, 0.3798779259329658, 0.37563622807647773, 0.37139120310863755, 0.3672093117997907, 0.3629544138262778, 0.35871868876578517, 0.354473342464279, 0.3502359490578965, 0.3459531437953867, 0.34174128582333685, 0.3375651671412021, 0.3333666380639669, 0.32918021174860396, 0.3250350276496895, 0.3208726358641266, 0.316648490559881, 0.31253101972918307, 0.30842795504145515, 0.3043478571051038, 0.30027732604735347, 0.29626284635813394, 0.2922275533314412, 0.2882162063055624, 0.28418422299953217, 0.2802293450820537, 0.2763529520680439, 0.27244092266317216, 0.2685586901872475, 0.2647140211665301, 0.26089279574477703, 0.25709532192098244, 0.25334094477651775, 0.24962005074139076, 0.24590194029876275, 0.24225444319795553, 0.23868486906207353, 0.23510119164098991, 0.23155618808723769, 0.22799795528667793, 0.2245388198320023, 0.22116282465448833, 0.21777422719883766, 0.2144278691203097, 0.21106306084979637, 0.20781070381357344, 0.20467420417281604, 0.2014945388134892, 0.198361746573282, 0.1952131316706091, 0.1921830804183689, 0.18918340943007522, 0.1862447821517888, 0.18335145428668875, 0.18050255282439323, 0.17770261310738078, 0.17492580247896816, 0.17222495203984828, 0.16957172448236138, 0.16698967587615138, 0.16443112498365145, 0.16196391069168975, 0.15950280399411554, 0.157095794584273, 0.15472012920034486, 0.15242422427478522, 0.1501916874787361, 0.148000383976297, 0.1458629184425074, 0.14380037615594538, 0.14176814170341376, 0.13971757385791506, 0.13780491373581577, 0.1359430726322511, 0.13421656277518687, 0.13244706880981122, 0.13073955996771655, 0.1290824595232495, 0.1274815977379114, 0.1258577818487577, 0.12437817502624034, 0.12292472831245092, 0.1215498514831303, 0.12022477390853273, 0.11897435826488728, 0.11774674585453902, 0.11655710476088725, 0.11543513861101982, 0.11436415843652172, 0.11341414795448412, 0.11243607593561192, 0.11150210642208262, 0.11063381836395329, 0.10977078183868197, 0.10901289831787503, 0.10830364801593952, 0.10770583504422401, 0.10708515429971469, 0.10644054611588866, 0.10593125248443555, 0.10546741270338593, 0.10508734760668423, 0.10470889279608499, 0.10435278156877237, 0.10407047479502572, 0.10383231497375996, 0.10364482591315587, 0.10349260319803809, 0.10340264723519069, 0.10333337695295823, 0.10330692275571704, 0.1032962021505443, 0.1033562451847716, 0.10346217991024356, 0.10359850653875174, 0.1037728723530949, 0.10394428934938826, 0.10419765576953716, 0.10454412820304274, 0.10485667499044636, 0.10520519605196418, 0.10555889880684365, 0.10598006341782218, 0.10646400464548753, 0.1069429524244018, 0.10745340276334894, 0.10801356926246014, 0.10858146443428839, 0.10916833851524757, 0.10979536617249229, 0.11044898835861613, 0.11116144646569627, 0.11186098687790806, 0.1125071571167617, 0.11326624003010455, 0.11404384230214167, 0.11485517341343192, 0.11566613067481157, 0.11651572442641234, 0.11735847716938144, 0.11821841808423951, 0.11907178309924456, 0.11996597765404207, 0.12088885298265885, 0.12180609937679769, 0.12273553346151354, 0.12362016626820516, 0.12457818158513419, 0.12557388272739656, 0.12653974997865153, 0.12751249775275594, 0.12853679378279018, 0.1295149696141193, 0.1304772236557533, 0.13147071090046458, 0.13246730853845204, 0.13345202421544128, 0.1344536704952558, 0.1354074478277676, 0.13641304539709523, 0.13741371937255484, 0.13845453272336902, 0.1394381752753184, 0.14044944860741673, 0.14142038507836321, 0.1423873186351706, 0.14330180049860922, 0.1442632281318173, 0.1452653877921599, 0.14619964261704743, 0.1471253647064651, 0.148006447654545, 0.14891631272562345, 0.14983356069835527, 0.15071283620366677, 0.1515783116899424, 0.15245191031587854, 0.15328441872618775, 0.1541054693209914, 0.15490667105063702, 0.15569126693277624, 0.1563900892057348, 0.15714750339219255, 0.15789071564103607, 0.15860090036586014, 0.15928816879203264, 0.15993642363051885, 0.16057881982109387, 0.16121561723358127, 0.16180561374110458, 0.16237131638294483, 0.16287726550799136, 0.1633974878632844, 0.16392691093347278, 0.16438720650590408, 0.16482168854351587, 0.16520711091298915, 0.16559140982544168, 0.16598924432079973, 0.16631101544598484, 0.16660617104158917, 0.16684611360065185, 0.1670898747301478, 0.16734760077515384, 0.16752597985802156, 0.16767655338112533, 0.16777599692753337, 0.1678722049335235, 0.16795881668008494, 0.16799093180772875, 0.16799319835022436, 0.16790399059158462, 0.16785331907612852, 0.16775794954602308, 0.16764049222245905, 0.16748877015546162, 0.167346865790606, 0.16712198206569637, 0.16689940906889977, 0.16660829515392386, 0.16628789798098045, 0.1658941226922586, 0.16551978635151243, 0.1650796516452326, 0.16464465605703213, 0.16417566105072076, 0.16372216676895449, 0.16318037277425473, 0.1625946734084221, 0.16199486792955223, 0.16136443963232075, 0.16073859896797388, 0.16004309160694824, 0.1593195544433785, 0.15856794878431857, 0.15778828747506415, 0.15696312232491877, 0.15612979056746343, 0.15519944850409448, 0.15431762602413526, 0.15340391593772415, 0.15254852436129332, 0.15156242812192633, 0.15049600979324954, 0.14946846723712554, 0.14841365332911788, 0.14734093311232274, 0.14623229151225278, 0.14511793418544708, 0.14395742282691915, 0.14277405437713772, 0.14158745981951606, 0.1403570799116308, 0.1390588351630889, 0.13779353707718411, 0.1365056060893838, 0.13522029614699332, 0.13388621035875264, 0.13250678856604797, 0.1311383869612449, 0.12975047161501826, 0.1283753087657793, 0.1269466188711887, 0.12548138787068994, 0.12402475831534703, 0.12255237155109322, 0.12110167484167475, 0.11959515877750651, 0.11802970714213117, 0.11650622650324476, 0.11496922934583066, 0.1134300511705792, 0.11186716570853894, 0.1102972952023669, 0.10871369193260313, 0.1071211933413919, 0.10552221644950727, 0.10391370574139373, 0.10228964620103158, 0.10066930958577953, 0.0990430014856764, 0.09747973778825937, 0.0958350383932175, 0.09417986657762757, 0.0925367241232199, 0.09089341292280237, 0.08922578596576451, 0.08758637290735628, 0.08592911731521503, 0.08429191898749315, 0.0826547430125653, 0.08098513478846944, 0.07935462983805983, 0.07776843880234284, 0.07613451205993345, 0.07448983638684768, 0.07286850508559138, 0.07125247023655895, 0.06962143577211173, 0.06802077887969911, 0.06641758237982215, 0.06483130011101927, 0.06325238198470078, 0.061735946090274704, 0.06016737486642587, 0.058634381660603016, 0.057088860290232156, 0.05555804614319225, 0.05400707667667361, 0.05251061077380533, 0.05101170965478138, 0.04954442385026298, 0.04809065153902495, 0.04666154852390058, 0.045235400684824685, 0.043844491869033816, 0.04244836018485895, 0.041070262971989624, 0.03969650773045359, 0.03835720175854162, 0.03704136041596399, 0.03573825701984271, 0.03445453363886842, 0.03320457308871257, 0.031958958009770645, 0.030678583678714857, 0.029482829872034138, 0.02830568141209046, 0.027186352859295083, 0.026043573697356014, 0.024939241976593883, 0.023840079683920982, 0.02276494620881379, 0.021652650955255134, 0.02063360404329425, 0.019684466298458023, 0.018701589697798438, 0.017743491382512844, 0.016829524474594508, 0.015918825440733513, 0.01498873532834271, 0.014135986396744968, 0.013306688234860175, 0.012513418061957991, 0.011730397955095275, 0.010977624286444498, 0.010244046393422015, 0.009535976329354502, 0.00889722693432552, 0.00823474700503774, 0.007521525659040538, 0.006924757757669079, 0.006350951700914569, 0.005875739084301875, 0.0053393105218962796, 0.004795917187728455, 0.004319605626751564, 0.0038685787007497916, 0.0034234982462880777, 0.003025228772818413, 0.0027086713645808787, 0.0023510011501206873, 0.002020554849523891, 0.0016870822221920902, 0.0014134223523030538, 0.0012199759268684744, 0.0009874341044884747, 0.0007818767814148968, 0.000525625952449968, 0.0003819081015051761, 0.000330852355980238, 0.00021990822738395766, 0.00013402104822726613, 3.235270878766703e-05, 0.0, 4.135812506132511e-05, 4.4569426514818445e-05, 7.156779097055812e-05, 8.145862595818137e-05, 0.00015928496251697141, 0.0002726217802557831, 0.0003877490206854847, 0.0005230719248454736, 0.0007167365692682889, 0.0008864583556461827, 0.0010791637695933898, 0.0012904413073734334, 0.0015217086438415206, 0.001805597229199972, 0.0020707602767199903, 0.002366462815094258, 0.0026695401627295856, 0.0029916426606879524, 0.003356472410703337, 0.0037111464298911078, 0.004110203579435247, 0.004496927896822699, 0.00490156989204621, 0.005281143069123151, 0.005724112615288799, 0.006220230755096287, 0.006683434977562371, 0.0071609281252433075, 0.0076887436501187215, 0.008188005730621426, 0.008650771551259514, 0.009184105652977788, 0.009727122810978046, 0.010324975737100641, 0.010880494395705473, 0.011511931108570404, 0.012080798730084497, 0.012663024004594686, 0.013252191382370616, 0.013858408792220256, 0.01451301373604622, 0.015133249394186015, 0.0157638886447927, 0.016426665148917975, 0.017072242058939056, 0.017675907584925123, 0.018344672107959106, 0.019017616571403655, 0.01976964362820182, 0.020440290645543924, 0.02110248434037564, 0.021788794676629756, 0.02247973607911533, 0.02321143230418392, 0.02390510642432993, 0.024635215026431307, 0.025333948271170005, 0.02603785919559084, 0.02676530577948555, 0.027474523655639564, 0.028178807989784442, 0.02889596809259152, 0.029614930618014217, 0.03042792025955017, 0.031137096229144443, 0.03182372503225085, 0.03254622254275604, 0.03327044118005546, 0.03405699130088387, 0.0347749728827631, 0.03548758560973309, 0.03621250428322174, 0.0369385555145077, 0.037729880632566444, 0.038448168703247146, 0.03916255246771345, 0.03988700150688045, 0.04061243891702127, 0.04129972171758433, 0.04203023297522437, 0.0428525288016007, 0.043565503935015, 0.04428094495532725, 0.04499109285764315, 0.04571020327483735, 0.046429463259304075, 0.04714849371592468, 0.047866994052735264, 0.04858648479464846, 0.04930307512301841, 0.05000996941518606, 0.050725707716364456, 0.05143990763345362, 0.05223144164020021, 0.052932876893156115, 0.0535797434573798, 0.05429443061925403, 0.05500823321374077, 0.055812373929200645, 0.05651344577918685, 0.057217584588270406, 0.057928018403118994, 0.05864228868993264, 0.05933910740768987, 0.06006296084493184, 0.0608239055578704, 0.06154760118286242, 0.062275623179163346, 0.06302014814378928, 0.06375510237363895, 0.06452304410860986, 0.06526440937368642, 0.06601239576451237, 0.0667721555209196, 0.06753249671467809, 0.06825590620324119, 0.06903553183468579, 0.06981973990312985, 0.07059330896306688, 0.07139028969520715, 0.0722398680040588, 0.07304219481614593, 0.07385383879672035, 0.0746453068469252, 0.0754802013703338, 0.07634292384609963, 0.07719312845216798, 0.07806995484848443, 0.07894034184642676, 0.07982338780452519, 0.08073170026603481, 0.08163959689115237, 0.08255497359109513, 0.08349305345186192, 0.08444591765514407, 0.08544027900272226, 0.08642075875710421, 0.08745216874302976, 0.08846405984910376, 0.0894961039831291, 0.09049762533579976, 0.09157676172274765, 0.09270345688511447, 0.09381510144791345, 0.09494757540018316, 0.09615909592544258, 0.09732726114729688, 0.0984718592902782, 0.09969718008998084, 0.10094536363630843, 0.10227301471087977, 0.10356157811172616, 0.10487265371101602, 0.10621756285754448, 0.10759030693330962, 0.10894041923814339, 0.11037622382065464, 0.11183981471728273, 0.11332829780501133, 0.11484454960564909, 0.11645062139474878, 0.11801695222132952, 0.11956421553162329, 0.12120432723564106, 0.12287543477802387, 0.12458351445866424, 0.12631810061980722, 0.12808959134789294, 0.1298911639747663, 0.13172757020624512, 0.13362914471474227, 0.13553315320518278, 0.13743857570103737, 0.13942389894004775, 0.14144596028835008, 0.14354566035743746, 0.14563797200933648, 0.14773082991174105, 0.1499101040222499, 0.15212842712574134, 0.15445993124904664, 0.156748809375718, 0.1590983225151472, 0.16147488590827694, 0.1638971074743637, 0.16637888380383725, 0.16889037188741435, 0.1713745867825789, 0.1739878176023492, 0.1766430648400892, 0.1793216638280559, 0.18206512609237055, 0.18486520221248345, 0.18769274509585784, 0.1905649037260058, 0.19350836312001873, 0.19646766346331157, 0.19950223293276176, 0.20255261427467705, 0.2056520462381895, 0.20882141955674358, 0.2120159576744604, 0.21519039027438677, 0.21849340859188945, 0.22184198620883716, 0.22523475642107296, 0.228675777987696, 0.23220178965705837, 0.2357311413315633, 0.23930960152693387, 0.24294754156232115, 0.24662248767543862, 0.2503642350032174, 0.25413532609580164, 0.25795624556121804, 0.2617723562367895, 0.26569873478083217, 0.2696516060209939, 0.2736720426082087, 0.2777373387512275, 0.28188619413776944, 0.2860368166894982, 0.290217309133808, 0.294464598999969, 0.2987576639001973, 0.3030577943638957, 0.3074466790797992, 0.31193629418686974, 0.3164038035626608, 0.3209174974143084, 0.32549257003055404, 0.3300949492960878, 0.3347216944837957, 0.33941678946149834, 0.3441547049432597, 0.34890341947167414, 0.353729430067048, 0.35864570765108694, 0.36354398254496395, 0.3684839560558046, 0.3734595789138959, 0.37848123337582645, 0.38348064572949986, 0.3885873931750953, 0.3937282695154904, 0.3989327908784105, 0.4041373472087306, 0.40936625433748636, 0.414641176595012, 0.419948992279543, 0.4252417902067296, 0.430619426734176, 0.43609008031467406, 0.4415156441836972, 0.44697230493594686, 0.45242053030445695, 0.45794121962524975, 0.4634387857212026, 0.46901677655067026, 0.474616475758718, 0.4802777697170734, 0.4859145576035742, 0.49157391811538553, 0.49725491441283187, 0.5029565865948937, 0.5086989643014739, 0.5144363686320991, 0.520180370965299, 0.5259558291339044, 0.5317470504082009, 0.5375459353577307, 0.5433662724129136, 0.5491548945030167, 0.5550038171885873, 0.5608601984844519, 0.5667215473774527, 0.572590790705585, 0.5784930249566979, 0.5843677997577503, 0.5902473207779929, 0.5960603644364141, 0.6019546625899361, 0.607851443926957, 0.6137388932439194, 0.6196225010869247, 0.6255276997612372, 0.631397754673667, 0.637222516444384, 0.6430864256680289, 0.64894065377886, 0.654786057652682, 0.6606179701115378, 0.6664199642528316, 0.6722282299764823, 0.6780209869973229, 0.6837990232414496, 0.6895576100434196, 0.6953030278394788, 0.7010230176603538, 0.7067226752677652, 0.7123552964752554, 0.7180164890823656, 0.7237124942774599, 0.7293121516879364, 0.7348870293631221, 0.7404234321793995, 0.7459460052926299, 0.7514371081175596, 0.756899187178277, 0.7623289033116686, 0.7676637291189773, 0.7730327373972551, 0.7783937450175632, 0.783679005806715, 0.7889250089774025, 0.7941254228996996, 0.7992903305527453, 0.8044124285801962, 0.809490664559797, 0.8145239799909998, 0.8194377747424325, 0.8243873581994714, 0.8292917070942698, 0.8341354575178836, 0.8389263505867874, 0.8437127530640403, 0.8483897114811465, 0.8529304139355848, 0.8575124016049915, 0.8620088743097047, 0.8664752255903386, 0.8708798805321547, 0.8752750062867123, 0.879548475081824, 0.8837076299461484, 0.8878669176865568, 0.8919611858917316, 0.8960004190420682, 0.8999617134811327, 0.9038271259794671, 0.9076592347861498, 0.9114221110464384, 0.9151047494542741, 0.9187289539085676, 0.9223080007214921, 0.9257855399157265, 0.9291920995027868, 0.9325286672745703, 0.9357907666527024, 0.9389412069599029, 0.9420611566263128, 0.9451043397070835, 0.9480668589203533, 0.9509557469097127, 0.9537384210268098, 0.9564740440078174, 0.9591290703694252, 0.9616998019181506, 0.964193459476456, 0.9665916459857021, 0.9689239083847273, 0.9711734273622038, 0.9733768178164347, 0.975455717835325, 0.9774341579517779, 0.9793525956425728, 0.9811877874535867, 0.9829324474555402, 0.9846011974336261, 0.9862082594686924, 0.9877050464267226, 0.9891182995840246, 0.9903548744676389, 0.9916117891024497, 0.9928385605367744, 0.993909106879656, 0.9948942748500955, 0.9957432085556547, 0.9965638177623926, 0.9973187745492165, 0.9979600614291066, 0.9985149492221485, 0.998976580793243, 0.9993599988666344, 0.9996535755244451, 0.9998649777568182, 0.9999902884179701, 1.0, 0.9999576686873183, 0.9998301148845457, 0.9996141319933496, 0.9993122878786574, 0.9988812784343597, 0.9984146423916842, 0.9978995895989261, 0.9972550131181518, 0.9965272247105472, 0.995690374697634, 0.9948007327470964, 0.9938661925795612, 0.9928054992137569, 0.991664846689192, 0.9904042877163476, 0.9891098115101381, 0.9877166745969723, 0.9862628515916284, 0.9847283701036986, 0.9831456135301502, 0.9814484107348085, 0.979646846325563, 0.9778010540676463, 0.9758784900049784, 0.9738484696197326, 0.9717788355579938, 0.9696786632601322, 0.9674522239829156, 0.9651543952761038, 0.9627473092822794, 0.9603135520495503, 0.9578082714301482, 0.9552325000039464, 0.9525872546083466, 0.9498700377305384, 0.9470892903330141, 0.9442103425501223, 0.9413012222010703, 0.9383256636161089, 0.9352971761319421, 0.9321909166322053, 0.9290243198026223, 0.9257947290829687, 0.9225052728693238, 0.9191920065462219, 0.9157815013841382, 0.912309198643741, 0.9087907441934537, 0.9052186457740439, 0.9016112930443864, 0.8979323601572863, 0.8942192404990608, 0.8904392371713541, 0.8866118355145582, 0.8826800152704404, 0.8787674491953582, 0.8747628887238202, 0.8707607694828884, 0.8667106625455566, 0.8626527548645869, 0.8585067427219321, 0.8543740074598751, 0.8501403233903218, 0.8458710647502381, 0.8415302091957124, 0.8371967402586705, 0.8327965025544088, 0.8283976920482847, 0.8239642179255812, 0.8195080178470657, 0.8150081533498752, 0.8104451523106916, 0.8058910160059087, 0.8013076513040178, 0.7966913073846862, 0.7920546107080384, 0.7874347873305003, 0.782743902193089, 0.7780330306945782, 0.773243651465596, 0.7685033714325273, 0.7637620792373097, 0.7589803327781703, 0.7541823676375585, 0.7493922018509389, 0.7445626655124299, 0.7396833643905214, 0.7348372128428466, 0.7299796664510076, 0.7251628208413814, 0.7202799866812867, 0.715378451770382, 0.7104888118267897, 0.7055953350098445, 0.7006289497315554, 0.695739550189968, 0.6908995611432842, 0.6859950960736206, 0.6810918036477527, 0.676122359917864, 0.6712329249221409, 0.6664119831703138, 0.6615158242963901, 0.6566266188937482, 0.6516891407213247, 0.6468233397124439, 0.6419392581366111, 0.6370902855953466, 0.632248644834078, 0.6274279489241246, 0.622603421157571, 0.6177750173736685, 0.6129773077121053, 0.6081926757667929, 0.6034397358780326, 0.5986823090509648, 0.5939631160228259, 0.58923829800915, 0.5845334974322776, 0.5798335611922524, 0.5751726030513405, 0.570551852405876, 0.56593108367191, 0.5613337839906932, 0.5567044632872657, 0.5521628040252552, 0.5476763572460324, 0.543175373454814, 0.5387001260600262, 0.5342757399071126, 0.5298506864097603, 0.525395002421072, 0.521035642963877, 0.5167025851689769, 0.5123669241019164, 0.5080927589462945, 0.5038876658551502, 0.49966323377034016, 0.49547002679547153, 0.4912769937174773, 0.487151595609043, 0.48307099341000564, 0.4790060588998112, 0.4749792159733346, 0.47097974266436515, 0.46701426878185764, 0.4630673844497139, 0.45917292548959815, 0.45536334025817926, 0.45153107117131347, 0.44773654447755745, 0.4439184190599109, 0.44020696703711665, 0.436597982722757, 0.43294674743713607, 0.429334448521052, 0.4257416677869984, 0.4222092275755466, 0.4186407032658721, 0.4151925305062765, 0.4117778042861499, 0.40843393695841046, 0.40508330559159345, 0.4017156041071735, 0.3984463782381744, 0.39521154252183827, 0.39207114076269434, 0.3888990208839719, 0.3857939611481211, 0.3826962130682172, 0.37963872805320986, 0.37657382888790597, 0.37360166514867965, 0.37062745921535467, 0.36773316764207414, 0.3648732547765497, 0.36210404697166043, 0.3593066351863704, 0.3565246883602831, 0.3538062763237648, 0.3511241565144441, 0.3484816929301611, 0.34587128234515724, 0.34324436397398334, 0.3407124131226982, 0.33821308076048134, 0.3357290351017952, 0.33329762099596966, 0.33089818744266886, 0.32853087606853504, 0.3261957622204118, 0.3239734025815134, 0.3216924918910901, 0.3193921581596019, 0.3171907631571472, 0.31502130966390135, 0.312927316952624, 0.31081542925825656, 0.30868983862840366, 0.3066504028267324, 0.3046405754660354, 0.30272490190352314, 0.30076536098341533, 0.298766489121564, 0.2968801080574813, 0.2950205422842549, 0.2932489079939312, 0.2914346940086226, 0.28955033662154345, 0.28780730438537655, 0.2860868586536867, 0.28439261705792024, 0.28271717772280147, 0.28106115981690066, 0.2794319030594598, 0.27782511057735765, 0.27624236142848513, 0.27467971745636993, 0.2731967754501652, 0.27167036880544765, 0.27016849527381637, 0.2686080427733187, 0.2671632162399517, 0.26581473868815225, 0.26439500650048803, 0.26299707919714016, 0.26155537666370976, 0.26020689482972725, 0.2588970558769749, 0.25757727939759345, 0.2562742660609917, 0.25503660864170363, 0.25375961919619994, 0.2524850707203141, 0.2512456296979438, 0.250021865074482, 0.24878863684547964, 0.24759746495623225, 0.2463785075575944, 0.2452170305595855, 0.2440650376084273, 0.24295574001779252, 0.24181829688226947, 0.24064988648098257, 0.2395394217416562, 0.2384367679031563, 0.23740485563720848, 0.23630950974695597, 0.23522859647113806, 0.23415395764437855, 0.2330890592046929, 0.2320524918986109, 0.23100266690901422, 0.22995475556015585, 0.22892292519607307, 0.22789821579931688, 0.22683452598589882, 0.22582811335839414, 0.22481587448108187, 0.22381630409277253, 0.22281890847644722, 0.2218971375098814, 0.22089450615366998, 0.21987158162795353, 0.21888347068301614, 0.2178984322779805, 0.2168705243145937, 0.2158961531272112, 0.2149456216903813, 0.213966815288794, 0.21298870408174136, 0.21199879333219504, 0.21102291031323192, 0.20998154663643032, 0.20901233103845981, 0.2080385164070907, 0.2071497757729295, 0.20615653455855518, 0.20512086357573864, 0.2041353152688232, 0.2031476394980509, 0.20217699910215173, 0.20118233354745116, 0.200216072006283, 0.19921464880267933, 0.19821300764015676, 0.1971598932506087, 0.19616284340173204, 0.19513165389682904, 0.19412967180238475, 0.1931217354090967, 0.19213787357469436, 0.19111501507858306, 0.19010080242787977, 0.1890690897478177, 0.18803428962838903, 0.18697521476112788, 0.18593638291317005, 0.18483502290806603, 0.18379403829078514, 0.18274513290247532, 0.18177984446572767, 0.18070499731108242, 0.17963914049768281, 0.17855953083580012, 0.17747823634924056, 0.17637210099162143, 0.17528918420902526, 0.17414274466515464, 0.17305930394293312, 0.17196841493440979, 0.17088628228504293, 0.1697798002689886, 0.16862944794791554, 0.16751733800454882, 0.16639810633242558, 0.16530725564239823, 0.16417075794493127, 0.16305317789737697, 0.16190618647096972, 0.16075677427772908, 0.15962759578779834, 0.15847016808989184, 0.15723256009819983, 0.15608209656206706, 0.15492542813810337, 0.15374729477007398, 0.15258166081825458, 0.1514365729027816, 0.1502566944410058, 0.14907354924275082, 0.14786458971632427, 0.146678421534163, 0.1455268436670735, 0.14432831873527843, 0.1431287432849952, 0.14192287505347115, 0.14072191091579953, 0.13949166804080082, 0.1382918175533871, 0.1370893396580857, 0.1359353528364819, 0.13472220739170404, 0.13353301586254154, 0.1323192587485976, 0.13110777240807578, 0.12987731667723731, 0.12867239431956864, 0.12748554144243696, 0.12627961316817554, 0.12502464485722453, 0.12382859111729258, 0.12263142131695018, 0.12141082620783183, 0.12021563498580333, 0.11901408317214662, 0.11781790778132271, 0.1166214229239596, 0.11542866041021735, 0.114232664195484, 0.11304328240717103, 0.11184973914980416, 0.1106586137594051, 0.10953499175276109, 0.10834140214342977, 0.10712321153805786, 0.10594717673027525, 0.10477582094101232, 0.10357071887265845, 0.10241388690610526, 0.10128790453464677, 0.10013363690245894, 0.09898461855060185, 0.0978637644638463, 0.09672282964264639, 0.095597644614298, 0.094469571759915, 0.09334896663532215, 0.0921710002554177, 0.09107341256919724, 0.08997084608654264, 0.08888246630195613, 0.08779842462092476, 0.08672975930127574, 0.08565461733314136, 0.08464189430125058, 0.08357276896695132, 0.08251379468305642, 0.0814507876312062, 0.08041339223319631, 0.07933415891311156, 0.07832109172184754, 0.07731418801618233, 0.07628939602380398, 0.0752992585826891, 0.07435718919207282, 0.07337437264424806, 0.0724009863312759, 0.07151066336146675, 0.07054712110461292, 0.06955538763267481, 0.06862431133690579, 0.06770376110075323, 0.06672541419001805, 0.06583445118656593, 0.06501839502673662, 0.06413259036359871, 0.06325827825592323, 0.062370833631063494, 0.061522287858678, 0.06070283722229546, 0.059871662850380244, 0.05905166561276573, 0.058258563212765097, 0.05745881600008041, 0.056639519633828656, 0.05586754840785011, 0.055105510919409996, 0.05435180665096833, 0.05361029407535153, 0.05290878911679349, 0.05218411975539695, 0.05147159313268881, 0.050711534030011635, 0.050030403017990895, 0.04935768899017856, 0.04869377061636714, 0.04803897822938085, 0.047454879587548626, 0.04681140957321825, 0.04620225773555721, 0.04558243012912788, 0.044976488678651436, 0.044298213717288745, 0.04372966119371837, 0.04317779003548041, 0.04262437133690262, 0.042080091601251424, 0.04154516568243849, 0.041019772866223984, 0.040495305444868526, 0.03999049644614848, 0.03949508324113864, 0.03904246881661287, 0.038562017672493815, 0.03806163074522132, 0.037608109257841686, 0.03716397757585952, 0.03676431034268378, 0.03633467754843381, 0.03586572662064146, 0.035465142018790315, 0.035072608004466564, 0.03466901872077528, 0.034295446820313095, 0.03402024806265494, 0.03365002748415187, 0.03329261817921581, 0.03292640158519374, 0.03259550222725086, 0.03230083265235456, 0.03198625423471038, 0.031682553653958834, 0.03138226237641152, 0.031099850265458466, 0.030754863170777882, 0.030499656426417013, 0.030249065895458487, 0.030040186137371305, 0.029795102728803525, 0.029568026397469575, 0.029336502591326273, 0.029112836043858895, 0.028923084571514986, 0.028711202866480042, 0.028453780760587483, 0.02826584169842436, 0.02808283556994057, 0.027929376605340783, 0.027753413593178552, 0.027576978132580636, 0.02741479025366964, 0.02725839851023174, 0.027083180360740082, 0.02694114608874116, 0.02683295532986085, 0.026695389591900136, 0.026563696236095374, 0.026388634201364624, 0.026274243982749086, 0.026228882884382833, 0.026111268842695157, 0.026000238383019143, 0.02588661968797116, 0.025788643240223345, 0.02566408376406438, 0.025579698893696712, 0.025497974517324537, 0.025434691617561116, 0.02535634575188167, 0.025292064652400977, 0.02521935515143415, 0.02515048892973502, 0.025039709009849684, 0.02498359728015661, 0.02492635965015526, 0.02487188679622193, 0.024818240059341762, 0.024784793329582753, 0.02473067528735709, 0.024727743800257784, 0.02467162792608298, 0.02462017918462462, 0.02453961166872468, 0.02450019532574066, 0.024441152622103335, 0.024407042724857986, 0.02437290336727721, 0.024305523606118033, 0.024275681905378873, 0.024293085105811036, 0.024253759294925268, 0.024215909108007975, 0.024177578191085534, 0.024142296704139556, 0.024078047428110167, 0.024047967992161037, 0.024016711190023247, 0.02405791420594879, 0.02401528110296729, 0.02393731324428835, 0.0239053709735249, 0.023873411259598788, 0.02379228058112546, 0.023766109453607253, 0.02377008037282167, 0.023733746027641608, 0.023696698837028303, 0.02368865214306927, 0.02364626039627563, 0.02356089958106397, 0.02352536019636941, 0.023487620573674352, 0.023510835151231646, 0.023461073873920744, 0.0233604380361605, 0.023320191294987185, 0.02327783626441346, 0.023231709102314507, 0.02318560939204767, 0.02315679347741583, 0.023104379179210502, 0.023021440937516378, 0.022971173803516036, 0.022918291762019555, 0.022920738319034177, 0.022855793302231607, 0.02276739984761532, 0.022707330911304616, 0.022646291738060945, 0.02259646890820819, 0.022531742769991422, 0.02247356467962641, 0.022406907828955394, 0.022339942150771556, 0.022265515394348883, 0.02219839666392601, 0.022070672124440242, 0.0220089053262931, 0.02194268440416546, 0.021860227988180603, 0.021788022637129423, 0.02173296384197175, 0.02165080909477385, 0.02156679108414708, 0.021472328097354717, 0.021386189794260733, 0.0213506874455836, 0.02125431832899125, 0.021159369857153696, 0.02100078857470636, 0.02091609738254439, 0.02090202171345828, 0.020802536189754174, 0.020704914411250976, 0.02061059365846073, 0.020515580709818713, 0.020405957661605974, 0.020315024801045568, 0.020223973427110437, 0.020136289453847957, 0.020044523223197566, 0.019977336551193842, 0.019882595290592733, 0.019789290294496508, 0.019618448769172084, 0.019537466035373735, 0.019461805368442803, 0.019373395005241743, 0.019283077904306292, 0.019185972279041875, 0.019093582878105444, 0.01901926085568959, 0.018922367133136556, 0.018825961997999695, 0.01869687935984388, 0.01860595412041111, 0.018575216274749427, 0.018474705841681892, 0.018377205757380416, 0.018300012966794822, 0.018205714841964905, 0.018062337368128678, 0.01798130848695699, 0.017900285210638828, 0.017845763335214065, 0.017762108335730744, 0.017657812445233463, 0.017581245918169484, 0.0175054724921045, 0.017502453619123882, 0.01741970068973164, 0.01731599266451068, 0.017246740060889557, 0.01718050976378923, 0.0170699196256643, 0.01701541178781847, 0.01697152479018607, 0.01691625638725445, 0.016862336394061605, 0.016860735453148624, 0.016803661317875997, 0.01669354654723705, 0.016653002055298304, 0.016613485083919455, 0.016638312815380866, 0.016593709642828646, 0.01646865607269252, 0.01644529448283603, 0.016421917639754337, 0.016486547950981173, 0.01645345293939727, 0.016405529250072354, 0.01638708986368483, 0.01637297251380013, 0.01636482577051961, 0.016358843249976975, 0.01630275132136195, 0.016311903078941408, 0.016322060997853445, 0.016401908784509377, 0.016406598480121715, 0.016350664259856817, 0.016375319887299913, 0.016401653488818082, 0.01643175153810467, 0.01646218873220049, 0.016560082578359222, 0.016587894078157358, 0.016622425719900167, 0.01659153848961353, 0.01664757352727741, 0.016694862521396344, 0.016756085423128543, 0.01681911917257789, 0.016975358361759302, 0.01703150174166793, 0.017041204182448127, 0.017119381280675024, 0.017201401777211415, 0.01732583023659842, 0.017410795194065833, 0.017431845196500543, 0.017537624874570175, 0.017645063141409376, 0.017843799334936006, 0.0179442519023395, 0.018045276763312804, 0.018161275761410006, 0.018283533301696065, 0.018350442509748995, 0.018492028781733064, 0.018639074384197266, 0.01878440650773203, 0.01893240675777351, 0.019130531675133847, 0.019278413726461836, 0.019395325110140638, 0.01955918908921869, 0.019726289648789506, 0.019926478952088565, 0.020096536442051807, 0.020275224399443695, 0.020454907294913217, 0.020639556493288566, 0.02082548975957268, 0.021019992082773126, 0.02121527622220542, 0.021418687460164555, 0.02162599355773583, 0.021938692626644163, 0.022140790759720873, 0.022266539762468753, 0.022497516903956048, 0.02273151099879941, 0.023029832165037397, 0.02326219646618027, 0.02346257880187833, 0.02371242030568234, 0.023965759073521928, 0.024287330839293558, 0.024539339307047606, 0.024856143347535664, 0.025114333188008087, 0.02538176229449592, 0.025655804184453738, 0.02593942075923091, 0.026180857559198443, 0.02648381072751597, 0.02678983234493332, 0.027172453008394278, 0.027475306736290624, 0.02780813798230436, 0.028121984648039423, 0.02844328480350699, 0.028732929599461086, 0.02907232735954857, 0.02943301136280601, 0.029777704756122153, 0.030127090693471744, 0.03050203635496106, 0.030857753778070283, 0.031283792514370475, 0.03164217155400088, 0.03200932088933968, 0.03240909056207528, 0.032788791740435495, 0.03314366832238678, 0.03354386520264017, 0.03394954035253979, 0.03438155374550905, 0.03479511740259939, 0.03526052725878519, 0.035680769046824816, 0.036109513321515484, 0.0365357674974996, 0.036981465877461234, 0.037538907930532044, 0.03798452152926313, 0.038442405555773704, 0.038880107763793983, 0.03936385090221047, 0.039881960967758014, 0.040378289081268275, 0.04088366169340902, 0.04141345551430213, 0.041933860787393966, 0.04251230763118359, 0.04304425339000144, 0.04361371445534172, 0.04416428994634001, 0.04472658942411467, 0.045282537309990906, 0.045868907607506906, 0.04649615008671237, 0.047097113147581894, 0.04770899075408252, 0.04839628855484047, 0.04902104778815957, 0.04964398699636037, 0.05029802033606772, 0.0509640354793798, 0.051585756886355236, 0.05228215607095393, 0.053063912546776386, 0.05376761345505777, 0.05448476597190427, 0.055223903853598225, 0.05596626154401608, 0.05670459595326763, 0.057476037108054275, 0.058259835215635734, 0.05906839345470288, 0.059875823313900386, 0.060721327984564394, 0.06155290091223948, 0.062399676546835495, 0.06325287525494853, 0.06413113381586374, 0.06507143535859103, 0.06597342181243848, 0.06689318841353036, 0.0678008001856493, 0.0687594455434823, 0.06977239647350691, 0.07075798440590776, 0.07176201797204185, 0.07283348259050942, 0.07386813908203259, 0.07492401666164877, 0.07600081454018781, 0.07709831554290857, 0.07819011371042944, 0.07933198085384262, 0.08057163280541735, 0.08174177389123793, 0.08293584663599678, 0.08410272751514565, 0.085350134906155, 0.08666512717836886, 0.08794749097567184, 0.08925345911458962, 0.09061275824727492, 0.09196211372667489, 0.0932510013402203, 0.09466173332302248, 0.09609279858358087, 0.09758866583702192, 0.09905692027889068, 0.10053070052676057, 0.10205121667612542, 0.10359596516350666, 0.10522491853208842, 0.10681192391828866, 0.1083875373578849, 0.11003733462678754, 0.11171368793961063, 0.11343271996062276, 0.11516128735844565, 0.11689737923254678, 0.11868591094598648, 0.12050228698940173, 0.12240471865632471, 0.12427076155761332, 0.12615164440152407, 0.1280845339622101, 0.13004870728621568, 0.13208985324082517, 0.13411135468126367, 0.13618300675439504, 0.13827115290810155, 0.14039433828642034, 0.14250512383508526, 0.14470393194465195, 0.14695231778758355, 0.1492134282209563, 0.1515083421834564, 0.15384253927249625, 0.15620508776578895, 0.15860769846430967, 0.16103941269563865, 0.16350666294728702, 0.16598862481890125, 0.16853017381593305, 0.17117845643768273, 0.17378120413309897, 0.1764236750478624, 0.17906362091711256, 0.18179022765948638, 0.18459395223279698, 0.18738942218015328, 0.19022451686882752, 0.19303438131328046, 0.19595673567045144, 0.19899900513761473, 0.20198301524821696, 0.205008647147725, 0.20803540940808374, 0.21114876036999297, 0.2142974410370197, 0.2174891214209953, 0.22071987372505894, 0.22399343026635293, 0.22730256032341734, 0.23062359121452, 0.2340162511888886, 0.23744755726787126, 0.24091786828201614, 0.24442750279094688, 0.24802751777184573, 0.25161018665423196, 0.2552357678017739, 0.2589232947307251, 0.26263160775439937, 0.2663010041535799, 0.2701061473592967, 0.2739494274017373, 0.277852249137577, 0.2817702694881109, 0.28576013163907227, 0.28975487942777, 0.293791817837273, 0.29790397148258524, 0.30202036586059827, 0.30614334475823707, 0.31035060460518543, 0.3145982098489056, 0.31894031130191264, 0.3232613539725175, 0.327609620454592, 0.3320180269394822, 0.33646738988394154, 0.34094682005475, 0.34547829001210445, 0.3500017497157519, 0.3546174679585952, 0.3592692808095216, 0.36400107784801417, 0.3687198447282122, 0.3734721090159144, 0.3782686599250941, 0.3831029069314747, 0.3879149825558327, 0.39283113105648104, 0.3978243749258936, 0.40280175324502576, 0.4078150798728503, 0.41285348487477475, 0.4179389282728809, 0.4230288280801628, 0.42818615509646524, 0.43337536225070883, 0.4386068229227223, 0.4438580140409832, 0.4491463795324157, 0.4544603889942639, 0.4598058626085819, 0.4652103526433461, 0.4706138048245822, 0.4760505953386043, 0.48151625361913, 0.487012112985396, 0.4925671959068053, 0.49811747416387886, 0.5036431418387265, 0.5092586562989462, 0.5148989029968901, 0.5205949359396308, 0.5262792470486385, 0.5319290576321573, 0.537670159095482, 0.5434313635897158, 0.5492263729589475, 0.5550250410765052, 0.5608470224524249, 0.5666842996392762, 0.5725404134751075, 0.5783814413325244, 0.5842774462982321, 0.590198895750059, 0.5961230012069544, 0.6020616854977783