0.042269574485675754, 0.041736409254767, 0.04121457425521505, 0.04070245211336553, 0.04022044522696166, 0.03972093188982659, 0.039190468187384114, 0.03870914886993107, 0.03823089078592814, 0.037780659012062005, 0.0373039299202246, 0.03691229214149705, 0.0364313197814445, 0.035957388987463375, 0.035460459138194254, 0.03500158316782913, 0.03456932780262909, 0.03411311969331081, 0.03366066884621887, 0.03320797733599571, 0.03276249773211004, 0.03236699259484684, 0.03192083345324995, 0.03147985730436925, 0.031038213770419786, 0.030607190547868382, 0.030198283981577607, 0.029772710817778106, 0.02935189972538114, 0.02894113391710141, 0.028528702442748313, 0.028171897797153116, 0.027762410905707198, 0.02736042142371141, 0.02702371674123586, 0.026628279941953117, 0.026260857427030267, 0.025882155435972155, 0.02551315501462018, 0.02514420456080677, 0.024794182142657512, 0.024533795864962623, 0.024188883389811993, 0.023856065453655144, 0.02358552266077817, 0.023268417713715163, 0.022995384806500818, 0.022699929141689945, 0.022417971533088107, 0.022156037097384163, 0.021898060992002692, 0.021657626072379595, 0.0214227203561515, 0.021199488917783265, 0.02099677002768422, 0.02079507254131037, 0.020617790760802487, 0.02043777803305922, 0.020270068972222107, 0.020141878110789668, 0.019995225952320315, 0.019866065140703635, 0.019746562073210586, 0.01964098547530288, 0.019631148919927083, 0.019543144135470262, 0.019488373453352272, 0.01943540662482156, 0.019401060742464674, 0.01934312836236669, 0.019350243294149326, 0.019427312045716197, 0.019458591962748985, 0.019508851578759527, 0.01957067980952081, 0.019659480669725067, 0.01985938479304423, 0.01997335902626869, 0.020111228227858075, 0.020221560862663013, 0.020412205401068525, 0.02061722515256889, 0.020848444367120734, 0.021099678692311944, 0.021400359764177434, 0.021688998598440458, 0.02201128838959888, 0.022344201668142334, 0.022700848602403113, 0.023152292670152824, 0.023547964587515492, 0.023964680736034822, 0.024417608836991532, 0.024897952396251272, 0.025369300781103173, 0.02590899462225311, 0.02649230005741351, 0.02708098989790659, 0.02769700842668676, 0.028329755977860895, 0.029002762533454542, 0.029739845477938974, 0.030464148192668287, 0.03121913677996623, 0.03202316987497636, 0.032837804263776256, 0.03365388232878491, 0.034537257852486826, 0.035451557550226886, 0.036449966826212876, 0.03742083766556593, 0.038417894120987416, 0.039460508250558655, 0.04053802433905222, 0.041570661112516824, 0.04272876400675299, 0.043978001069126686, 0.04519173188829661, 0.04644178060176889, 0.04773030374598335, 0.049053782789724235, 0.050452901276510025, 0.05184682005279452, 0.05328104010031258, 0.05473015896573722, 0.05624839172258466, 0.057767588527240205, 0.059369299207149735, 0.06100874210344512, 0.06269568247345607, 0.06441142736965143, 0.06621641503403616, 0.06800676012758974, 0.06984098512301772, 0.07165188162605832, 0.07358257882144324, 0.07562454734321968, 0.07762769314553913, 0.07967649472915513, 0.08171279167665797, 0.08386034155854555, 0.08603042086334146, 0.08826611831076837, 0.09054430888890486, 0.09290745653000276, 0.09526723964856144, 0.09768274321886644, 0.10013480206432532, 0.10263433038254163, 0.10516505625379258, 0.10776187103955386, 0.1104128008677734, 0.11310262103984361, 0.11587469978167318, 0.1186557380326088, 0.12148673323996549, 0.1243093727928568, 0.12724725971586512, 0.1302624189022145, 0.13328953340963362, 0.1363655156467945, 0.139490442328677, 0.14266438517220983, 0.14587831988117855, 0.1491516355940799, 0.1524736347051613, 0.15584625252370063, 0.1592657227880113, 0.16271609741166249, 0.16623608667280998, 0.16980422684607202, 0.1734043223321217, 0.17707130031010107, 0.18080409389263877, 0.18456424745137617, 0.18837341976430247, 0.1922406726857365, 0.1961466273667722, 0.20014196149822283, 0.20414146291695767, 0.20819225981372338, 0.21221385639631937, 0.21637588225606383, 0.22061419941143273, 0.22486330364264298, 0.22915989890056754, 0.23346201898436864, 0.23785840672217912, 0.24230668923783055, 0.2467915208573503, 0.2513215568142074, 0.2559549135536037, 0.2605677733062454, 0.2652106035759462, 0.26992140600424763, 0.2746780439057982, 0.2794545909494821, 0.28430469301947825, 0.2891959506178597, 0.29413194630843337, 0.2991102147979653, 0.30415042358346284, 0.3092096857335503, 0.31431126037119356, 0.31945456918153337, 0.32463902782748055, 0.3298113218890212, 0.3350829652467956, 0.34044190772078897, 0.3457797105772769, 0.35115631845003487, 0.35651828798216606, 0.3619770094826683, 0.36748395323481925, 0.3730078853538277, 0.37856564139157645, 0.38415123289846553, 0.38977568846205357, 0.39543922845021173, 0.40112580029211437, 0.406843380869154, 0.4125330794881326, 0.4183178705960472, 0.4241518328408071, 0.4299843981399544, 0.4358431275432554, 0.4416837388027135, 0.44759832407323824, 0.4535709165399296, 0.4595237835111048, 0.46549943425790735, 0.47148065530829286, 0.4775013623542806, 0.4834922160577139, 0.48955680303787497, 0.4956362430569557, 0.5017082478265775, 0.5078186563708462, 0.5139246812317045, 0.5200605990043613, 0.5262064610475751, 0.5323671795063303, 0.5385305310496924, 0.5447077188622566, 0.5508863326561181, 0.5570719543159663, 0.5632236252387636, 0.5694253954511653, 0.5756362022504533, 0.581839835818095, 0.5880440821606785, 0.5941952849708203, 0.600404576561919, 0.6066540371282209, 0.6128463816147519, 0.6190346367292168, 0.6251521889616846, 0.6313370253355408, 0.6375123582073884, 0.6436736222599719, 0.6498221876029667, 0.6559499157275189, 0.6620713418811799, 0.6681896088107652, 0.6742766807138675, 0.6803465828861947, 0.6863563295048201, 0.6923936405211268, 0.6983642146144807, 0.7043599318085464, 0.7103282324490954, 0.7162993616200009, 0.7222068478654401, 0.7280736850251694, 0.7339257878710022, 0.7397469293794515, 0.7455432806457597, 0.7512982422965773, 0.7569501632863557, 0.762644700978745, 0.7682988945727793, 0.7739465681347018, 0.7795134725753223, 0.7849795973046425, 0.790471317199055, 0.7959164646019226, 0.8013051975923907, 0.806656023234405, 0.8119409444202759, 0.8171938884573794, 0.822394583447054, 0.8275785508378837, 0.8326675742817543, 0.8377182498637409, 0.842698367996494, 0.8476238465750567, 0.8523951153015417, 0.8572195587737569, 0.8620015390584751, 0.8666941160411654, 0.8713224625801069, 0.8758620742460999, 0.880362301168917, 0.8847797110518152, 0.8891444568561709, 0.893438519846, 0.8977211556190167, 0.9018640022493116, 0.905913549480235, 0.9099187168386969, 0.9138502511110971, 0.9176943454970033, 0.9214769906412117, 0.9251511703967159, 0.9287816612427986, 0.9323309708904038, 0.9358547679446282, 0.939232492813138, 0.9424482475349368, 0.9456747980546785, 0.9488142404742981, 0.9519152070097773, 0.9548728228704464, 0.9577264295490868, 0.9605137389621444, 0.9632123319032, 0.9658178266999206, 0.9683372197742529, 0.9707091282874973, 0.9730527158652998, 0.9753006645404438, 0.9775345825845877, 0.979580257016195, 0.9814614340602912, 0.9833317866182647, 0.9851044107565291, 0.9867754050346871, 0.9883522173387271, 0.9898284317886774, 0.9912076360277089, 0.9924873925640304, 0.993692875867547, 0.99476968114388, 0.9957676249370031, 0.9966436996210694, 0.9974211043786709, 0.9980319926923722, 0.9986188778692752, 0.9990962807914514, 0.9994759109572001, 0.9997514094567544, 0.9999338035715687, 1.0, 0.9999720791768738, 0.9998307066827165, 0.9995648183155856, 0.9992207447866458, 0.9987726470652659, 0.9982388634392118, 0.9975808937661009, 0.9967894946995437, 0.9959304125452042, 0.9949671511752235, 0.9939454913609931, 0.9927691120052856, 0.9914466397701656, 0.9900746917279786, 0.9885995398805331, 0.9869925317586933, 0.985315961927331, 0.9835158777588311, 0.9816354914531029, 0.9796518214079349, 0.977618405308916, 0.9754239153725633, 0.9730769198970036, 0.9706937166368691, 0.9682101654562912, 0.9656398275211172, 0.9629564592758338, 0.9602068231226178, 0.9573258938266823, 0.9543509251643837, 0.9512642039758952, 0.948104900755595, 0.9448720679118429, 0.9415239206432754, 0.9380848709200417, 0.9344810031829955, 0.9308714883487876, 0.9272052473278506, 0.923406307280838, 0.9195189769774977, 0.9155133367988552, 0.911456106044964, 0.9073062918188194, 0.9030767639314743, 0.8987623278951528, 0.894355179864439, 0.8898759211610263, 0.8853150624210913, 0.8806739291322213, 0.875953832734501, 0.8711488019545403, 0.8662755941154303, 0.8613668954125384, 0.856339000466466, 0.8512405468759697, 0.8460416412070242, 0.840809056147154, 0.8355473275235417, 0.8301727754981181, 0.8247340724256689, 0.8191777329426148, 0.813620836404173, 0.8079854827264958, 0.8023042195205127, 0.7965614492638992, 0.7907788742886733, 0.7849156460033989, 0.7790134299161302, 0.7730389057091284, 0.7670128994198274, 0.7609440323510002, 0.7548182109022601, 0.7486017919777613, 0.7423889089886622, 0.7361293387169984, 0.7298157401623563, 0.7234691701723965, 0.7170787685163917, 0.710650164519841, 0.7041829474110743, 0.697729754829844, 0.6911840519199388, 0.6845786421264618, 0.6779766492723367, 0.6713449794228874, 0.6646342995270832, 0.6579544294232657, 0.6513012859869585, 0.6445608745296655, 0.6377996272069278, 0.6310008137063967, 0.6242045569553988, 0.6174053770863209, 0.61057397828123, 0.6037291829308282, 0.5968833967796854, 0.5900149280457092, 0.5831036428016646, 0.5762244198588373, 0.5693378498449018, 0.5624020285494422, 0.5555114427683046, 0.5486216283291621, 0.5417229960931044, 0.5348239399104292, 0.5279572072834681, 0.5210588686260451, 0.5141617652058914, 0.5072789510361044, 0.5004054245836095, 0.4934990368139772, 0.4866540407061311, 0.4798402924429515, 0.4730170600003524, 0.46620972924703397, 0.45940891494947816, 0.4526393069089553, 0.44594219548567293, 0.43920699664067303, 0.4324975519910984, 0.42572399550114587, 0.4190806818781211, 0.4124920949956509, 0.4058943325964677, 0.3993256830455884, 0.392758474864258, 0.38625594302256233, 0.37985048221069895, 0.37340446251999737, 0.36699676544982474, 0.3606010211835837, 0.35427613226701976, 0.3480144068745401, 0.3417667364138789, 0.33556219613224264, 0.32930534302919223, 0.3232019867536114, 0.3171790898423435, 0.3111532847942776, 0.3051734523315371, 0.2992880282339037, 0.29339761746085824, 0.2875137428181891, 0.2817337063696011, 0.276004419604802, 0.2703596368030745, 0.26473075656928935, 0.25912651520857266, 0.2536132750279204, 0.24815512234948695, 0.2427747500478021, 0.2374266032475244, 0.23213727961522615, 0.22690736531759212, 0.22173743270045687, 0.21658440617437488, 0.21154161014044937, 0.20662887437073432, 0.20169628461059644, 0.19682848499091748, 0.19195655817514712, 0.1872275943717331, 0.1825709995632328, 0.17796433681738147, 0.17342120029673289, 0.1689185015604168, 0.16450699758363424, 0.16024282425127237, 0.1559487504378842, 0.15172421226963564, 0.14752174704906473, 0.1434417027780321, 0.13940621942859294, 0.1354619406665133, 0.13158328536998512, 0.12778334018944004, 0.12403534962915141, 0.1204018873952745, 0.11678254294223198, 0.11323328587445494, 0.10973741284001921, 0.10632939243857764, 0.10296410980747517, 0.09969551581177431, 0.09649332804456781, 0.0933630100378559, 0.09029293485888733, 0.08732221111246888, 0.08438110632374372, 0.08150814553004648, 0.07871013606023752, 0.07597115473188722, 0.07327571033056478, 0.07067354599274621, 0.06813620393346127, 0.06568336725021695, 0.0632721723902968, 0.060962269159542656, 0.058675795266044745, 0.056455204615594, 0.05429420250038062, 0.052203577627741235, 0.050152462984671034, 0.048190399254743325, 0.04628873302232483, 0.044446959530728, 0.04266455707648231, 0.04100643647325225, 0.03933286762738164, 0.03771158560669081, 0.03616080461209578, 0.03466870788812016, 0.033194346760864975, 0.031821847941176575, 0.030517555881810293, 0.0292499825709775, 0.02803574312615077, 0.026875931003250052, 0.025765947715884478, 0.024674477294905517, 0.023670342008757814, 0.022714070192773616, 0.021817870254843143, 0.020954121437012644, 0.02012273166556934, 0.019353893455559452, 0.018629651931297193, 0.017931169209194044, 0.017296415001140764, 0.01675589356020848, 0.01619689157816232, 0.015681113842634768, 0.015189273616104924, 0.014758941380359922, 0.014345727598177921, 0.013995110131442967, 0.01368037039366269, 0.01348075336692666, 0.01322538213461503, 0.013038962886596235, 0.012854312975736908, 0.012706581820170733, 0.012510547544490403, 0.012442533842756493, 0.012416751381022127, 0.012401575257555558, 0.012413484784819693, 0.012507981592635256, 0.012564359619407637, 0.012664765024466527, 0.012773084528578576, 0.012907402613236743, 0.013080917034054593, 0.013261415488993098, 0.01342850831188426, 0.01365822051628865, 0.013906320170356026, 0.014257370028719208, 0.014528799374339678, 0.0148044357539514, 0.01511754119117631, 0.015447331708391928, 0.015736233021308037, 0.01610293817771315, 0.01652333797496051, 0.01690406076909937, 0.017296107774006333, 0.017756700856912135, 0.01816121138869955, 0.01857391780881541, 0.019001232496281578, 0.01943762333372047, 0.019907419438788408, 0.020355442792894984, 0.020832617255425283, 0.021291412264004137, 0.021756565768828836, 0.02227599908830556, 0.022744252027656696, 0.023236552751392813, 0.023712918111409048, 0.02419363814635958, 0.02471200385782379, 0.02519342256578166, 0.025666797156505473, 0.026154100131806256, 0.026641326520089503, 0.027100294620866477, 0.027588168074698268, 0.028102855921138006, 0.02857817727711804, 0.029050257315972303, 0.029547544908234583, 0.03000760529884494, 0.030506127911932832, 0.030953487237433668, 0.031398497877755754, 0.03188752652783514, 0.03231925934881379, 0.032730709234173816, 0.03315953569515382, 0.033583363551350505, 0.03405975317998576, 0.03446446096616483, 0.03485310176527962, 0.03525188151976013, 0.035645015296604084, 0.036062885749860364, 0.036439333467990574, 0.03688326886602427, 0.03723951561892794, 0.037593628160762484, 0.03788648708977676, 0.03824101089265123, 0.038633195881942986, 0.0389663265236731, 0.039294137045113774, 0.03967629040589844, 0.03998496562423066, 0.040269129255600875, 0.04057459714375565, 0.04087511878912842, 0.04119961934200593, 0.04148615951409108, 0.04183275764389699, 0.04210392404204149, 0.04237481288475084, 0.04259035637781522, 0.04286614093501446, 0.043142851100471294, 0.04340916487699473, 0.04367185131612952, 0.04392213419379961, 0.044179697065051385, 0.04448872087596207, 0.044733721304707666, 0.044979710458722025, 0.045270414322893485, 0.04551321312382719, 0.045709026687876325, 0.04596603435991663, 0.04622406503194909, 0.0465436359453891, 0.04679771861023608, 0.047079649173822666, 0.04734314657803672, 0.04761419930104186, 0.04788016582259516, 0.04816827820297187, 0.048474642484177204, 0.04877648179008474, 0.04908716397955019, 0.049423476081045595, 0.049751099396799066, 0.05010444756838999, 0.05045302132915005, 0.05081450057335391, 0.05117111466255034, 0.051561988627214915, 0.05196250202362111, 0.05238109198540125, 0.05281418468972047, 0.05327709780702308, 0.053739688924597066, 0.054221770837042896, 0.054720164157812, 0.05523772661125608, 0.05574971711329348, 0.05631098808421047, 0.05693763553601494, 0.057533972213344005, 0.05815469381707874, 0.05879309612949544, 0.059465242963830475, 0.06015407246894284, 0.060879625560298675, 0.06163187768447815, 0.062400730498927304, 0.0632101901328701, 0.06409725400948955, 0.06495843762404876, 0.06585267271465965, 0.06676225487265935, 0.06772635611928209, 0.06866584387577916, 0.06970514642136512, 0.0707761885563563, 0.07192561537999943, 0.07305791587845606, 0.07421519814286513, 0.0754251961018555, 0.07667353292296863, 0.07797189121081329, 0.0792978350400756, 0.08071591480159311, 0.08211852760656292, 0.08356651275658857, 0.0850310093726679, 0.08657414638136952, 0.08815093003357832, 0.08978513794456221, 0.091464452798139, 0.09316954473970855, 0.09494359388254256, 0.09677449920803889, 0.09863985084277935, 0.10055329894097777, 0.10255546952931459, 0.1045619193284494, 0.10655690209775992, 0.10867597014979073, 0.11083868403468265, 0.11305743066978048, 0.11532649721634443, 0.11768297630380462, 0.12005022889777228, 0.1224882476964759, 0.12496253254217164, 0.1274927194255263, 0.1300807732586472, 0.13272298202621916, 0.1354234720766757, 0.1381785231720389, 0.14099043247213247, 0.1438320610867883, 0.1467615288583802, 0.1496958084224802, 0.15274348698614956, 0.15584467177472613, 0.1590145879680923, 0.16222290492044839, 0.1655164298203935, 0.16883363678203353, 0.17220920103680795, 0.17564129672873888, 0.1791337636703617, 0.1826753169616939, 0.1862852373744556, 0.18995270524607422, 0.1936977011889057, 0.19747765178014604, 0.20130885706948837, 0.2052065145003564, 0.20916175005445475, 0.2131143431811301, 0.21719162726605445, 0.2213314827634433, 0.22551478147998447, 0.2297523954781723, 0.23400975737880766, 0.23836023590845054, 0.24279011226462563, 0.24724148158161693, 0.25174659354377593, 0.2563615113228964, 0.26096604976514026, 0.2655792056816768, 0.27030061922759696, 0.2750735362140188, 0.2798720437407709, 0.2847497698989335, 0.28967426876815544, 0.29464905025483723, 0.2996715523816525, 0.30474677959478624, 0.3098626337058423, 0.3150195627680597, 0.3202285288839848, 0.3254824104237427, 0.3307750912852732, 0.33611746977099644, 0.34153326794082245, 0.34695604042635886, 0.35242157550497166, 0.357872470259575, 0.36342752406823864, 0.36899904215474233, 0.37462895096208143, 0.3802929408780753, 0.38597045728104523, 0.39170339710839636, 0.39748196019072135, 0.40327462331062475, 0.40909791428526154, 0.4149564290022591, 0.4208376622562859, 0.4267452934969472, 0.4326821512767267, 0.43864501591805755, 0.4445764431522866, 0.4505951632770624, 0.45666065738443795, 0.4627142229845366, 0.46878731702374443, 0.47487522031699103, 0.4809845438747164, 0.4870625634136717, 0.49320863642106855, 0.4993656750045191, 0.5054982977794944, 0.5116790457302254, 0.5179060882976068, 0.5240936137148087, 0.5302880717791023, 0.5364500338236828, 0.5426594037603027, 0.5488697238185893, 0.5550799673100083, 0.5612890478669159, 0.5674921897828141, 0.573695937984133, 0.5798493124648578, 0.5860477250283918, 0.5922361535983177, 0.5984045677342907, 0.6045712836561705, 0.6107117465536633, 0.6168519545484954, 0.622975734386375, 0.629092920009031, 0.6351791822831729, 0.6411716956754618, 0.6472276456047339, 0.6532575368290894, 0.6593115016798784, 0.6652804259334437, 0.6712071944410142, 0.6771251668124156, 0.6830135458305728, 0.688829189874714, 0.6946596655253331, 0.7005305122518964, 0.7062783112698163, 0.7119922584112949, 0.7175833262785132, 0.7232353562054588, 0.7288561881811713, 0.7344178070162465, 0.7399342547048708, 0.7454389174788305, 0.7508571584264243, 0.75617407907671, 0.761504156394998, 0.766781410938186, 0.77195573349613, 0.7771304492701426, 0.7822482441720056, 0.7873045400091331, 0.7923007070122031, 0.7972667991478397, 0.802136194107124, 0.806937226763973, 0.8116841364000961, 0.8163671015678082, 0.820984964540705, 0.8255365682244951, 0.8299825800297685, 0.8344030372092089, 0.838751651318265, 0.8430094193190764, 0.8472141520674219, 0.8513307543950042, 0.8553855488016839, 0.8593627169689172, 0.8632342980768157, 0.8670575601109081, 0.8707940533609645, 0.8744548288818447, 0.8780328483501092, 0.8815748019242778, 0.8849795628709167, 0.8882696667069379, 0.8915136621646801, 0.8946718441374457, 0.897768954890477, 0.9007501612459431, 0.9036521287800878, 0.9064584904733325, 0.9091769782919301, 0.9117321615319626, 0.9142816957740136, 0.9167548067499703, 0.9191126677245484, 0.9213765765873895, 0.923520705184238, 0.9255987974626365, 0.9275712843294678, 0.9294573234796335, 0.9312459737512085, 0.9329498289113397, 0.9345416763029943, 0.9360745803260745, 0.9374670812767082, 0.9387640621341075, 0.9399158745248617, 0.9410263898839506, 0.9421080045016693, 0.9430099308489813, 0.9438160002591273, 0.9445038122116033, 0.9451192503026917, 0.9455451770768986, 0.9459746974517181, 0.9463001638111206, 0.9466058275215333, 0.9467144256702844, 0.9467126578161416, 0.9466274066040216, 0.9464434979976617, 0.9460882404238143, 0.945716339596523, 0.9452982613436948, 0.9447148858655586, 0.9440335491526527, 0.9432290027550506, 0.9423556056113018, 0.9413780712297835, 0.9403084999715337, 0.9391791289895254, 0.9379093330912063, 0.9365448255466362, 0.9350276934862942, 0.9334819589450748, 0.9318882675869229, 0.930143106473982, 0.9283053758952655, 0.926348250599563, 0.9243302060615104, 0.9222322449800188, 0.9200280884976227, 0.9177335787056153, 0.9153657793628565, 0.9128906234580065, 0.9102300376807827, 0.9075934281669062, 0.9048653831171138, 0.9020765040938103, 0.899166387768615, 0.8961653780415464, 0.8930861921509192, 0.8899234894907938, 0.8866347830398669, 0.883313991992817, 0.8799597345685868, 0.8764691066616379, 0.8729015887406111, 0.8692745425603624, 0.8655541907084254, 0.8617027387846458, 0.8578448169481001, 0.8539125808203835, 0.8499674801018646, 0.8458833662241503, 0.8416616895066857, 0.8374541275846724, 0.8331777830808278, 0.8288887599482553, 0.8244726114509858, 0.819938982132845, 0.8154087614350874, 0.8108163815638988, 0.8061834079691288, 0.8014688575458992, 0.7966888108733454, 0.7918639406627456, 0.7869848452274112, 0.7820547694356709, 0.7770712713445699, 0.7719924722013021, 0.766916427979369, 0.7617907992012659, 0.7566228169409196, 0.7514026179333949, 0.7461238046410983, 0.7408189244810198, 0.7354723736177775, 0.7300767532924315, 0.7246530516802095, 0.7192594158843756, 0.7137544822405266, 0.7082194437495248, 0.7026335604189488, 0.6970443425937998, 0.6914144222080523, 0.6857722290047408, 0.6801040915508024, 0.6743860467671661, 0.668673702872149, 0.6629384410636735, 0.6571819420045354, 0.6514058567358174, 0.6456227174389405, 0.6398109274424854, 0.6339758723626105, 0.6281383493379907, 0.6222890673114599, 0.616375008187654, 0.6105136562740521, 0.6046801813131488, 0.5987953101218866, 0.5929060341067363, 0.5870120076448238, 0.5811185492591235, 0.5752013083011472, 0.5693119728955264, 0.5634240057647263, 0.5575717158532374, 0.5516870596587107, 0.5457520648550974, 0.5398916499739121, 0.5340382246761927, 0.5281970992280495, 0.5223621555648139, 0.5165356156137226, 0.51072668866102, 0.5049325081002364, 0.49915631347305855, 0.49339561847911734, 0.4876611859165112, 0.48193884165372286, 0.47623844289504524, 0.4705429777876552, 0.4648922529260087, 0.45927498536680894, 0.453673097603623, 0.44809855389687503, 0.44257609482435706, 0.4370565446338003, 0.43153800401030223, 0.4260870395811536, 0.4206679490883253, 0.41521455956875475, 0.4098709727254225, 0.40465866265901274, 0.3993665418359136, 0.39411430095905503, 0.38883886003823576, 0.3836760968643137, 0.3786022524842421, 0.37351018681568204, 0.36846114991613593, 0.3633993733087701, 0.35844529455196333, 0.3535401304643685, 0.34866946098679613, 0.3438428694663447, 0.33906304262790576, 0.3343269374320038, 0.32963930144044773, 0.32499699253603237, 0.3204028472004946, 0.31583750319896214, 0.31134408984016354, 0.3069395273013737, 0.3025394678660241, 0.2981918645924444, 0.29389336810796396, 0.28965199338632425, 0.2854164492082697, 0.2812875505693692, 0.2772096872399378, 0.27319078678313286, 0.2692159799635075, 0.26528349586000755, 0.26141695577289614, 0.2576038425237047, 0.2538318590794384, 0.25012844664400585, 0.24652070338929633, 0.24292010349219123, 0.2393764327023995, 0.23585328054744417, 0.2324279107801552, 0.22910089544180412, 0.22577967400643262, 0.2225160226146968, 0.21925518449443274, 0.21611292634605755, 0.21302272134673003, 0.20998866287385035, 0.20700877181512045, 0.2040540919846746, 0.20118655975308125, 0.19840816994064103, 0.19564182539047817, 0.19293067586306617, 0.19024906179218734, 0.18765087518443502, 0.18510394407370837, 0.182612061859292, 0.18017295913521544, 0.1778355747018567, 0.17549533726536962, 0.1731464340348898, 0.1709235125365054, 0.1687506786526004, 0.16666598894213816, 0.1645880826873857, 0.16251279657950182, 0.1605439339774183, 0.15862286487068067, 0.15678212239084935, 0.15495187371454247, 0.15321233764485045, 0.15147399366716577, 0.14978567796663303, 0.1480864377466711, 0.14650292513261035, 0.14502147416614888, 0.14351798699760274, 0.14206083719360643, 0.1406127372026525, 0.1392501055345208, 0.13796724458074988, 0.13668240396013842, 0.13544014833138016, 0.13419775393802916, 0.13304325023381922, 0.1318917766056851, 0.13081626894740617, 0.12977533282338036, 0.12876867403670783, 0.12779593948268644, 0.12689126515126278, 0.1259807421928903, 0.12505381408637758, 0.12421790915891248, 0.12341200822973857, 0.12271750950615887, 0.12195997878700292, 0.12119019884083093, 0.1205036047402938, 0.11984527740690958, 0.11924353975581742, 0.11863576131566046, 0.11803374117931091, 0.11748284628440502, 0.116956275545064, 0.11644413315163867, 0.11596494060091887, 0.11547804900596761, 0.11504457445431916, 0.11462936828779521, 0.1142900831881368, 0.11390244740287646, 0.11347648803232471, 0.11313482548046631, 0.11280760398328876, 0.11253789672768234, 0.1122323309280831, 0.11196188750761112, 0.11168305121915345, 0.11141850550069118, 0.11110351451589326, 0.11087232323190768, 0.11069592711058758, 0.11047333214078076, 0.11025992668655779, 0.109976617553343, 0.10978874666829903, 0.10967389795150648, 0.10948107611296172, 0.10929384772235293, 0.10902949810519745, 0.10886111746530631, 0.10878564263664425, 0.10860187037251325, 0.10842136440488061, 0.1081830834304154, 0.10801360596385451, 0.10787193726425279, 0.10769192664234116, 0.10750967280898482, 0.10731536927686532, 0.10712764587676293, 0.10687870963231386, 0.10668780995831026, 0.10648770979343528, 0.10632736757751333, 0.10610222549944437, 0.10585738651943646, 0.10561926205544951, 0.10537216984118411, 0.10510650684524804, 0.104841094844188, 0.1046137693979506, 0.10431972823584659, 0.10401659767725402, 0.10371447053496367, 0.1033893875295453, 0.10305171538760521, 0.1027045631669242, 0.10234507779726912, 0.10197262090762862, 0.10158659911327698, 0.1011682806408764, 0.1007558130098319, 0.10032722158102488, 0.0999058464107995, 0.09944115000982998, 0.09898263244732607, 0.09848346094332709, 0.09796903136768673, 0.09747697945499763, 0.09692563233044005, 0.09640333542566562, 0.09581661040911903, 0.09521644309809002, 0.09456013073288144, 0.09393581540840912, 0.09334246369829727, 0.09267545290371762, 0.09199263342214649, 0.09131708754863777, 0.09059809170182413, 0.08983230058025776, 0.08908492884049839, 0.08831900916785032, 0.087592629265021, 0.0867820309516173, 0.08601963475120541, 0.08516969077634562, 0.0843070959359156, 0.08342743366817061, 0.08253779329746191, 0.08165517366272974, 0.0807328075661553, 0.07979621682948419, 0.0789032147084575, 0.07792982837360345, 0.07689378023450646, 0.07590276129450886, 0.07489614943119864, 0.07393949846056651, 0.07289379440165306, 0.07190209543248664, 0.07082495689469442, 0.069739612050216, 0.06865819144825963, 0.06755318822649842, 0.06643752415427075, 0.06531477463396086, 0.06418262073756827, 0.06306828761046385, 0.06191383596044587, 0.06080255548682358, 0.05962619171867823, 0.05844503022591851, 0.05727337805360354, 0.05608019643810988, 0.05489359488883007, 0.05369036318227708, 0.05248349064294866, 0.05129307050479346, 0.050076765346276635, 0.048925763246142985, 0.047697208021227996, 0.04647091698240292, 0.04521396974382452, 0.04399589180392431, 0.04280894875170499, 0.04158784664777468, 0.04036962371214779, 0.039192753978603966, 0.03797642593150261, 0.03676077705416669, 0.03555760216263924, 0.03436073997723574, 0.03324332590105533, 0.03205120200276486, 0.030829089838929145, 0.029665911976518945, 0.02851234256299549, 0.027372580858229755, 0.026239508887111376, 0.025168989894036112, 0.024053444450888722, 0.02295377498725717, 0.02188848847057292, 0.0208193297776842, 0.019771907716331086, 0.018738878220172818, 0.017725000387899648, 0.016705314413845682, 0.015734495102107567, 0.014844859522934331, 0.013905817446029591, 0.012991332699391017, 0.012114511198825024, 0.011248740646044572, 0.010420489805242834, 0.009607025587073147, 0.008821770176204181, 0.008034304078363043, 0.0073108921758443775, 0.0066373948076539815, 0.005968304457481377, 0.005330310310559185, 0.004705949980759039, 0.0041346241874952745, 0.003646499099866542, 0.003134250252860802, 0.0026589927839687825, 0.0022175915729424796, 0.001818322685249436, 0.0014047444433416777, 0.001089612102445912, 0.0008112432480024354, 0.0006034716962155373, 0.00039778247520834013, 0.00022845765445476715, 0.00010783603979158264, 3.0209746379194088e-05, 0.0, 1.0252470255758266e-05, 6.240016047721356e-05, 0.00016490585230032013, 0.00031419440062463634, 0.0005364653626700021, 0.0007783309179779012, 0.0010360711527575906, 0.0013836460636527284, 0.001798906799057792, 0.0022440011057578285, 0.002741208748891062, 0.0032475048823052913, 0.0038562735325792315, 0.004561960293570464, 0.005268851411728337, 0.006031577602974595, 0.006816063394313318, 0.007696228271950305, 0.008651685679126515, 0.009640647843859578, 0.010687462385300113, 0.011807173904967726, 0.012969339760915804, 0.014167994533120063, 0.015453732757194525, 0.016798941063799238, 0.01818596201696384, 0.019653950210949116, 0.021252778041915638, 0.02283226166350773, 0.02447679410507227, 0.026122678496719967, 0.02790518998359335, 0.029785435384812608, 0.031686623789391875, 0.0336522374542476, 0.035622429593606904, 0.03772492111809197, 0.039919809232431346, 0.04214198627241564, 0.044428546450671756, 0.04676154229765044, 0.04917983751553836, 0.05168210738324194, 0.054226121665868834, 0.0568357805232241, 0.05952204024375204, 0.06226173330941744, 0.06504595131513737, 0.06792098676098873, 0.07086093253359457, 0.07383312144544658, 0.07690716548068291, 0.08004435883004307, 0.08324492711273611, 0.0865090337288978, 0.08987132683934339, 0.09325840444630051, 0.09671293397452785, 0.10023072484529472, 0.10381359231586797, 0.10740663494747861, 0.11112546140815932, 0.11490337467692073, 0.11874428686410647, 0.12264602752175328, 0.1266630701302539, 0.13067930891643198, 0.13475724186848825, 0.13890006301628546, 0.14310495709120347, 0.14734218912647765, 0.1516729687087884, 0.15604952363391525, 0.16049849985353887, 0.16500439886184912, 0.1695268453359639, 0.17415046872943618, 0.17883296215350344, 0.1835625485018641, 0.18834542214025088, 0.19321212018307418, 0.19809649236814378, 0.20301460524028983, 0.20800820094647582, 0.213052830371964, 0.21809875126978906, 0.22324965354381884, 0.2284722169122932, 0.2337119566619115, 0.23899853215331182, 0.24431850067933533, 0.2496981668709411, 0.25509986987235117, 0.260569273698269, 0.2660798063934795, 0.27162537484841104, 0.27721687771670916, 0.2828380205685552, 0.2885073720864588, 0.29421336973719736, 0.2999697708452241, 0.30574480852857727, 0.311554795496574, 0.3173986846642744, 0.3232754039751154, 0.32918567657437153, 0.33512452070626836, 0.3410693167582006, 0.34706915486736467, 0.3530949040493534, 0.359132832861607, 0.3652089618673238, 0.371294441224754, 0.37741533103350605, 0.3835555401460347, 0.3897559080991569, 0.39592649709598626, 0.4020847872272513, 0.4082950647024226, 0.414519353738987, 0.42076011963159965, 0.4270084357417391, 0.43324738715697936, 0.4395182343642846, 0.44579604910343423, 0.452023341352938, 0.45831879372446527, 0.46462183995921297, 0.4709162536735902, 0.47720979316564816, 0.4835014875248809, 0.48979030939690976, 0.4960406380894777, 0.5023248037612348, 0.5086007943999493, 0.5149167762917216, 0.5211673822804436, 0.5273587109626048, 0.5335975181664265, 0.5398221178702286, 0.546009619099735, 0.5522052927382786, 0.5583967226899524, 0.5645519601116802, 0.570687130844684, 0.5767682733567029, 0.5828637122042309, 0.5889352818577445, 0.5949780763898149, 0.6009931580063509, 0.6069902910407878, 0.6129451017557762, 0.6188765549165007, 0.6247678675081553, 0.6306263107213917, 0.6363959494918653, 0.6421913715471966, 0.6480066875471114, 0.6537133788264914, 0.6593814042202931, 0.6649619823784494, 0.6705541407822275, 0.6761059720980108, 0.6816048193720003, 0.6870560496953564, 0.6924130658449792, 0.6977713601031948, 0.7030614753747788, 0.7083135354463946, 0.7135094890141862, 0.7186540140752254, 0.7237346869606819, 0.7287516348932439, 0.7337155071653085, 0.7386188804388611, 0.7434335342551849, 0.748216486902383, 0.7529290473712822, 0.7575820324024705, 0.7621681750493816, 0.766732123310047, 0.7711763957114649, 0.7755593385586819, 0.779868113712294, 0.7841079622391363, 0.7882613005329941, 0.7923617376032078, 0.7963415060614331, 0.8003001384171641, 0.8041807717021743, 0.8080155649593462, 0.8117343378036218, 0.8153733558583337, 0.818935589540928, 0.8224180132775643, 0.8258034244416893, 0.8291257961127828, 0.8323958856741597, 0.8355473250550758, 0.8386160223885979, 0.8415592814802699, 0.8444651789327028, 0.8472743750781112, 0.8500057734303474, 0.852648193651812, 0.8551940046951106, 0.8576583039137796, 0.8600521194406533, 0.8623326127655276, 0.8645231150426774, 0.8666086011117902, 0.8686195389213834, 0.8705601077692916, 0.8723836182542448, 0.8740955822758205, 0.8757380720364389, 0.8772870194280985, 0.8787494727338998, 0.8801097579811278, 0.8813544634836674, 0.8825297438366485, 0.8836095878470677, 0.8846539799047489, 0.8855353367234958, 0.8862555206418488, 0.8869609643164947, 0.8875695667834067, 0.8880851827007679, 0.8885002925243694, 0.8888612206386215, 0.8890792306145082, 0.8892039583521852, 0.8892279916682411, 0.8891667068971221, 0.8889569256129296, 0.888714695377408, 0.8883756253042044, 0.8879275720939316, 0.8873981620926802, 0.8867928947595697, 0.8860698873166278, 0.8852534126036089, 0.8843457366461945, 0.8833434507847873, 0.8822582636109867, 0.8810713119598157, 0.8797938282275458, 0.8783880602534464, 0.8769356469078858, 0.8753882841064297, 0.873754518284322, 0.872030852725405, 0.8702508368590398, 0.8683457001051751, 0.8663204104423562, 0.8642489679460355, 0.8620911040541603, 0.8598567996184446, 0.8575276129503252, 0.8551515428519806, 0.8526520879898697, 0.8500730788269119, 0.8473805267216672, 0.8446484908746974, 0.8418513218496816, 0.8389590712342593, 0.8359899273352154, 0.8328847770387414, 0.8297721048321264, 0.8266437090898973, 0.8233695870845922, 0.820024240693916, 0.8165885477193529, 0.8131059455643515, 0.8095191877598583, 0.8059028659793935, 0.8022172803379675, 0.7985056834826201, 0.7946805731017146, 0.7907927932212525, 0.7868433871258407, 0.7828334268433754, 0.7787294688939519, 0.7746060916549905, 0.7703890531192512, 0.7661532569050441, 0.7618592919530919, 0.7575470422577816, 0.7531369850443368, 0.7486704395938588, 0.7441602885195719, 0.7396013760490968, 0.7350077758277433, 0.7303537776043014, 0.7256085178057246, 0.7208737697068218, 0.7160949109450515, 0.7113008849170831, 0.7064353436122779, 0.7014812443569601, 0.696548203284957, 0.6915773966275521, 0.6866124283866317, 0.6815661250599642, 0.6764532771455344, 0.6713525338167632, 0.6662222353692401, 0.6610676578174446, 0.6558826808753265, 0.6506859170185776, 0.6454518389663702, 0.6401970140668055, 0.6348973902272078, 0.6296084905334143, 0.6243016147668823, 0.6189783657311446, 0.6136403200123054, 0.6082890303118982, 0.6029260275251024, 0.5975782752413112, 0.5921931428717555, 0.5868022056637283, 0.5814158098732713, 0.5760158928470063, 0.5705399410571788, 0.5651476698268325, 0.5597521578853825, 0.5544225113116317, 0.5490174648882552, 0.5436201015757819, 0.5382276785130007, 0.5328434868929358, 0.5274050372571617, 0.52204879464547, 0.5166770450104992, 0.511341735081329, 0.5060165484848279, 0.5007559790013525, 0.49544961239329227, 0.49013961253534083, 0.48487351790879235, 0.479626672224043, 0.47439675289263117, 0.46919277782332997, 0.46402806933028307, 0.45886909784280566, 0.4537364492450041, 0.4486221117973896, 0.4435464847123566, 0.4384398824608593, 0.43343100355355474, 0.42845000137594186, 0.4235457085120476, 0.4186190937746554, 0.4137256474457047, 0.4088701970069793, 0.4040515378060994, 0.3992360705548507, 0.3944981735313799, 0.38981426695212307, 0.3851507231933473, 0.3805280047893338, 0.37597249627544194, 0.3714309759678639, 0.36691805322362114, 0.36246916142460395, 0.35806558892432605, 0.35366083217369965, 0.34935614970518714, 0.3451127272421, 0.34089685111665, 0.33672888173084453, 0.33263508669271696, 0.3285621138016537, 0.32456988060606834, 0.3205970175440392, 0.3166783973435101, 0.312774249985659, 0.3089698686531653, 0.30517639333847857, 0.3014833242971531, 0.29784176118759403, 0.29424528229465213, 0.29071012711559063, 0.28723567386379184, 0.283807157645899, 0.2804338087286423, 0.2771270435325349, 0.2738641220426186, 0.27064744201933083, 0.2675004713449966, 0.2644105494435028, 0.2614434209890934, 0.2584601655945297, 0.2555002173256113, 0.25264441318351083, 0.2498472863350223, 0.24711066892663913, 0.24443069193540826, 0.2417513072459545, 0.2391961720435806, 0.23669641813988448, 0.2342760605699849, 0.23188514688933395, 0.22951550018260974, 0.22724441877358173, 0.22502884553148206, 0.2229162479419501, 0.22080623946954306, 0.21874023762789457, 0.2167487932240093, 0.2148143210933284, 0.21294017919164215, 0.2111183329970553, 0.20938548103369753, 0.2076716581402025, 0.20595153549828282, 0.20435974411285188, 0.2028203733269874, 0.20137873490015437, 0.19993798652831138, 0.19853708867647638, 0.19720631305688344, 0.195927805890392, 0.19471193836336298, 0.1935349621477749, 0.19238557440321538, 0.19131336175658942, 0.19028970005722726, 0.18927410237110734, 0.18835110020926324, 0.18748011955685503, 0.18664544415847725, 0.1858553563913595, 0.1851148748004409, 0.1844119182839188, 0.18372513883746758, 0.18311191421091255, 0.1825393517481691, 0.18206517509575101, 0.18156516577724777, 0.18107847594742538, 0.18066589092303387, 0.18029195868684922, 0.17995769325597827, 0.17965840898994917, 0.1793681510068164, 0.17914404640500178, 0.1789529732085007, 0.178794267938766, 0.17866723082534422, 0.1786002179088181, 0.17853061157435157, 0.17849202181092444, 0.17846522119607372, 0.17848782964118634, 0.17854822315695343, 0.17862232567079137, 0.1787221442957809, 0.17877942027098917, 0.1789362037898311, 0.17913377444767745, 0.17932529363425737, 0.17953604778041177, 0.1797925603137896, 0.1800360637198118, 0.1802834572288196, 0.1805646196500092, 0.18086130878679366, 0.1811562428055816, 0.18148328777252734, 0.18182034208943196, 0.18217046404155482, 0.18253067591690733, 0.18289832924109634, 0.18327644305874846, 0.1836383720157462, 0.18403351566552048, 0.18443305561861648, 0.18485084798614781, 0.18525524632087736, 0.18572997270945982, 0.18613110268696234, 0.18653729599972163, 0.1868962164756452, 0.18731474642501217, 0.18774592891434316, 0.1881579995499213, 0.18856732311855606, 0.1889674969097271, 0.18936918878004275, 0.1897468565119077, 0.1901383090959595, 0.1905212082505713, 0.1909075994460475, 0.19126973414299248, 0.19159651837363534, 0.19194127989460782, 0.19227313586976436, 0.19261333606894548, 0.19291490957001806, 0.19318306778735778, 0.19345956400822797, 0.19371999330337752, 0.19396923169429006, 0.19419510004287183, 0.19435983262000509, 0.1945555864542005, 0.19473014456578952, 0.1949341531330505, 0.19505907256522992, 0.195117510547655, 0.19520922704470475, 0.19527759960441235, 0.19535867505753107, 0.19537480228603674, 0.1953522715100563, 0.19532522702284477, 0.19527369864381974, 0.19526812896930812, 0.19515729604683515, 0.1949555246608749, 0.1948087270309648, 0.1946342959107196, 0.19444104583626942, 0.1942093752365728, 0.19392795082464834, 0.1936428311107389, 0.1933279006888787, 0.19300121635220285, 0.19262399050366238, 0.19228304212603106, 0.191838921092864, 0.19136877015922388, 0.19084273999639248, 0.1903220110789881, 0.18979704161283753, 0.18921342038321806, 0.18860099800980684, 0.18792117947642237, 0.18725479405739565, 0.18657457360348018, 0.18584191768275335, 0.1850783951507091, 0.18428212193418853, 0.18345692708899444, 0.18258065293191203, 0.18169585655154405, 0.1807789433276042, 0.17991196305600765, 0.1789211874099669, 0.1778945163060276, 0.1768508688715445, 0.17577917159213116, 0.17466289114953545, 0.17353671444895505, 0.17244669416508834, 0.1712537948678109, 0.17003558778968897, 0.16876629961726444, 0.16749982818658732, 0.1662404785236509, 0.16491494287721697, 0.16356426264250049, 0.16220475828487851, 0.1608016684567794, 0.1593835327090691, 0.15793105119867779, 0.15645507597070848, 0.1549775186211619, 0.15345215163750106, 0.15197590458241014, 0.15039811341700157, 0.14880280764051498, 0.1472351168999591, 0.14559820214937486, 0.14392574193704516, 0.14225993192126526, 0.14057693460453116, 0.13891139307156902, 0.13719004931980927, 0.13547039487962684, 0.1337177149227225, 0.13195154018377392, 0.13015019554936472, 0.12836031197526662, 0.12658914199998808, 0.12476767890277898, 0.12293524970402289, 0.12113589435091353, 0.11927730626700066, 0.11748070782235395, 0.11559943500943431, 0.11371552001121779, 0.11185245862286038, 0.10995999669177348, 0.10807894013459071, 0.10618228112864105, 0.10428524771675976, 0.1023952991699338, 0.10049726997181574, 0.09858743050957942, 0.09669326807313391, 0.09480024263650255, 0.0929890339310576, 0.09109027808241144, 0.08922662676898326, 0.08734027046791717, 0.08546375148089813, 0.08357542773371633, 0.081721981028428, 0.07990709370689869, 0.0780695693752764, 0.07624452383307181, 0.07442521778477841, 0.07262771978209125, 0.07086955005839748, 0.06909736547343949, 0.06733481287243014, 0.06559800480007386, 0.0638790435850406, 0.06226054786200891, 0.06056938880638313, 0.05883954862484855, 0.057206566753525444, 0.05559552577170517, 0.054047352476452204, 0.052477939450009635, 0.05095553776555912, 0.04943826149494431, 0.04795044391760963, 0.04647628378515846, 0.04505118795923174, 0.04365464713919228, 0.04229135547638739, 0.04096000747258109, 0.03970692587005103, 0.03843634104271619, 0.03714470815048395, 0.035956258505366136, 0.03480275982275191, 0.03370710082769563, 0.03262393717893185, 0.03156554622469987, 0.03056367826749368, 0.02960195423227217, 0.028730394873331587, 0.027845533370665313, 0.027033583404064906, 0.02623703658989065, 0.025488653128315816, 0.024746935416228195, 0.024101166260730462, 0.023504122814573262, 0.02295271900514006, 0.022449873518897916, 0.022018145012307547, 0.02161187325977324, 0.02126121316226681, 0.020958964496632416, 0.020709967472412973, 0.020512921073538304, 0.020372215361013874, 0.02028622896732087, 0.020255507168187727, 0.020280593343283748, 0.020338392564818765, 0.020479696422743353, 0.020677082847998844, 0.020931260615430214, 0.021242905301806985, 0.021598116076754825, 0.02202843307854668, 0.022504512910460923, 0.023054087440755176, 0.023662734426308066, 0.02435477749454867, 0.025080597134546405, 0.025861460310068828, 0.026713185611451654, 0.027627509105936008, 0.028590261898271328, 0.02963272104577916, 0.030730738969139686, 0.03190019591371816, 0.033132870043683385, 0.0344091627214878, 0.035771957241954665, 0.037207012543204576, 0.038695440146086814, 0.04024837555043425, 0.041878806040811435, 0.04355989170379851, 0.04527050602856313, 0.047088015510827454, 0.04896944812069246, 0.05095328175367741, 0.05295857447021671, 0.055008849659515906, 0.05715033452810107, 0.05935705830420507, 0.06159083790840673, 0.06393282353986454, 0.06633962025952837, 0.06880757669455013, 0.07133899231730285, 0.07398484703658624, 0.07663691490311837, 0.07933354851280387, 0.08212065429082636, 0.08497195523991101, 0.08782534072760502, 0.09081193736320203, 0.09386013081431223, 0.09696619937610312, 0.10013235752782382, 0.10335312751716404, 0.1066400175106813, 0.11003006005495922, 0.11343030918555536, 0.1168921431194247, 0.12042221002597524, 0.12400441679283356, 0.1276594544168684, 0.13135956143293528, 0.13511908818501536, 0.13889541740622868, 0.14277667451888296, 0.14669444721899919, 0.15068695409229912, 0.15473221716414745, 0.1588098701297195