0.05144281001951222, 0.050776483944355556, 0.050040936041963954, 0.04942841235810009, 0.04880529756100707, 0.04821677928677397, 0.04763527587393007, 0.04701188526747782, 0.046447335478520556, 0.04584387074928987, 0.04528725280898688, 0.044729466400393506, 0.04436193973278106, 0.04377828084217986, 0.043193823066996435, 0.04263073447849264, 0.04207487619058384, 0.041569548180839196, 0.04102023505467953, 0.04022851306732861, 0.03972532017261166, 0.03921430328725121, 0.03895436442364311, 0.03839949053940916, 0.03781118771996158, 0.037282336696795336, 0.03675995130406812, 0.036199590724979636, 0.03569485214582647, 0.03512718981725659, 0.03463759725538101, 0.03414804720326965, 0.03372551482547049, 0.03322996789950084, 0.03260795871988197, 0.03214106310685893, 0.031672817118692985, 0.03126689711253151, 0.030791410751261156, 0.03039108207471426, 0.02991766530407615, 0.0294540810895814, 0.02888604222495863, 0.02845570946320174, 0.028028071538230837, 0.02760387777875326, 0.027183797149764894, 0.026783135177514062, 0.026371144542947866, 0.026109106715116362, 0.02569236148030803, 0.025184133845826226, 0.02481028033005937, 0.024443898949823423, 0.024007938997673048, 0.023666774337379536, 0.023516781816892793, 0.023159934748873096, 0.02281870111001569, 0.022477479273960644, 0.022166776575950356, 0.021684672876719643, 0.021421702404979134, 0.021160065953816865, 0.020948745695871584, 0.020687142298350537, 0.02055040559550328, 0.020288770579532284, 0.020041811934542186, 0.019628777517679, 0.01943234412836139, 0.019452307668410572, 0.019236247083982735, 0.019037378373187048, 0.018637917028982195, 0.018498509602717192, 0.018564238394747707, 0.01840626812654572, 0.018264883554520543, 0.01796661955888656, 0.017878458437126238, 0.017938979807880027, 0.01784423905213574, 0.01776474840300905, 0.01753102302789338, 0.017502492039378176, 0.017541415995774724, 0.017516052996344563, 0.017501394002748277, 0.017472145645098684, 0.017483451421040276, 0.01743904895438732, 0.017480232364864828, 0.017529212226918434, 0.017627405551361327, 0.017689652023661972, 0.017849118229187343, 0.01792629287825207, 0.01802149181562416, 0.018248293190761905, 0.018363925968079103, 0.018436689580626883, 0.018606147575149435, 0.0187929906896569, 0.018846086783095545, 0.019085733466895988, 0.019370159232468175, 0.01962217647276106, 0.01988617063938658, 0.020239870010375978, 0.02051951636459027, 0.02068077476545445, 0.021012707634946292, 0.021354191804613464, 0.021764966228429015, 0.022120713866124173, 0.02243655223750589, 0.02282991299419644, 0.023235684508589167, 0.02379782389431198, 0.024211839817116672, 0.024673476324121108, 0.025127192911562894, 0.025602717577198158, 0.02606244080333462, 0.0265838219031416, 0.026994023254153458, 0.027566459288961814, 0.028148693906301935, 0.028748912850942873, 0.029352206857542196, 0.029997329015618152, 0.030622217200488765, 0.03126208546735777, 0.03205311989235142, 0.03270609616491172, 0.033293732388370814, 0.03400265584150464, 0.034727572931328034, 0.03554559352670365, 0.03629239933993399, 0.03690476136072162, 0.03771037925323924, 0.03852596840444374, 0.03942574408328184, 0.04025389343929144, 0.04109052915269379, 0.04195111812855464, 0.042826795142870105, 0.04368068153265915, 0.04459086197246472, 0.045465929203609444, 0.0464077111033233, 0.047359806854957665, 0.048414625538271014, 0.04937707196651929, 0.050278956315909375, 0.0512839993464875, 0.052300419616553635, 0.053365176728466884, 0.054400208377677096, 0.055368184677581506, 0.05644088014308775, 0.05752236583790842, 0.05876747597421949, 0.059848093796800325, 0.06083309385769995, 0.06196380108602979, 0.06310441952361044, 0.0643873431738214, 0.0655310417508011, 0.06655962185463876, 0.06775343066604828, 0.06895486472513955, 0.07034421615493817, 0.07153838423253106, 0.07264382366066756, 0.07388582754192341, 0.0751369559595244, 0.07630861038613902, 0.0775881262143362, 0.07902525745059664, 0.08029197377123934, 0.08157122557827948, 0.08290613258423467, 0.08420193859607537, 0.0853224404006544, 0.08666530443885406, 0.08800772560212064, 0.08934292501649654, 0.09068701386500722, 0.09214566867531739, 0.09347683405168768, 0.09481558217569044, 0.09621634354091642, 0.09756113942964369, 0.09889248897028463, 0.1002562547682971, 0.10162537681842287, 0.10282630841607822, 0.10422590130426539, 0.10582875098745712, 0.10718994442537172, 0.10855801490872646, 0.10992813600596686, 0.11130707288505749, 0.11256080220495214, 0.11396214452380117, 0.11535809885799135, 0.11688501811648878, 0.11825379516379475, 0.11938645031491482, 0.12079024156224183, 0.12218157245719205, 0.1236166561247873, 0.12497907590817836, 0.12630168143460713, 0.12765497595209294, 0.12899987297137597, 0.13043958558574523, 0.13175532114870114, 0.13310200727929763, 0.13440843600254426, 0.13571294889326602, 0.1369409714319633, 0.13824793003155586, 0.13964523358832304, 0.14092149378391472, 0.14219383907585229, 0.14338762021928278, 0.14465820550658154, 0.14601328317955067, 0.14724925419343268, 0.1484788796655312, 0.14970843210491114, 0.15092127662236782, 0.15214725687557495, 0.15333855028791057, 0.15452041516348838, 0.15547126737019454, 0.15665941312862458, 0.15783049451795844, 0.15896991446531158, 0.160087249195454, 0.16119052540374612, 0.16226464978339655, 0.16334816983121472, 0.1643787994639684, 0.16539151335869487, 0.16638618516475587, 0.1673626505296413, 0.16830600259691217, 0.1692472928670518, 0.17013945662220883, 0.1710448949739459, 0.17192863060236604, 0.17278700560491253, 0.1736278048720535, 0.1746010444729027, 0.17537821037733267, 0.17614181291535613, 0.17683896347959832, 0.17757785493998096, 0.1782523132133582, 0.17895552594840847, 0.17963470742110269, 0.1803484882194814, 0.1809715438438569, 0.1815291087617938, 0.18211432583404538, 0.18267437684608193, 0.1833046439849161, 0.1838015959431958, 0.18414201844416672, 0.18461425261020484, 0.1850565176002104, 0.18567504547508307, 0.18603219307527258, 0.18630549718863343, 0.18663421896365004, 0.18693876187089203, 0.18717068538003293, 0.1874310811443983, 0.18777324022018924, 0.18796252535930172, 0.1881293519467803, 0.1882764745415057, 0.18839526780017696, 0.18848570320140443, 0.18855496676396336, 0.18859816665528997, 0.18851190615994604, 0.18851476953542654, 0.18858398177004598, 0.1885089982227695, 0.18840776263820785, 0.18828731527114434, 0.1881317590045262, 0.18778410518057229, 0.18759601199735432, 0.18737161784517095, 0.18706063963833616, 0.18677362315324209, 0.1865683186425697, 0.18619576855797063, 0.18579625267893846, 0.18545072050232314, 0.18498719295071983, 0.18451242579020508, 0.1840023686898104, 0.18346956186656102, 0.18287303970208257, 0.18229838531671472, 0.18159076645551053, 0.18097698866389356, 0.1803310034317373, 0.1797861335991851, 0.17906172952849655, 0.17828570039662522, 0.17752024729089583, 0.17673029730470793, 0.17591219125512467, 0.1750737977509933, 0.1741336227086848, 0.17325601062141865, 0.17234979556085292, 0.17143415964520048, 0.1704707423911959, 0.16947829490426713, 0.16846512819192788, 0.16742736280351433, 0.1664941841030472, 0.16539236868340015, 0.16412747082523207, 0.1630116686219664, 0.16187053040683322, 0.16082620938662687, 0.15962141388433695, 0.15825326625875544, 0.15703424402631852, 0.15579018472777362, 0.15449639097474785, 0.15320856848725095, 0.1519376291229624, 0.15059860696309502, 0.14924030715325148, 0.14801407421997476, 0.1465998607449151, 0.1451654644964943, 0.14373365374378086, 0.14229083065739118, 0.140722661642784, 0.13927131863743009, 0.13770624413440044, 0.13623160655749436, 0.13473516438424069, 0.1332736342226878, 0.13173115402871985, 0.13028826717131797, 0.12870334045374857, 0.12711191783629922, 0.12551378802581792, 0.12390882561028044, 0.12232640196311838, 0.12070398517277608, 0.11907645370878189, 0.11744371967165611, 0.11580577801788719, 0.11409650704581492, 0.1124567954121519, 0.11080856496100722, 0.10910479360938936, 0.10744790000928342, 0.10591080509519557, 0.10422094086836195, 0.1025315629972076, 0.10086837549841299, 0.09917668160077703, 0.09733993886178934, 0.09567089295238648, 0.09399564321034556, 0.09236697005262721, 0.09067661527550952, 0.08906014545055478, 0.0873618269360553, 0.08566927813883725, 0.08398989783512256, 0.08230815439412775, 0.0807432283886682, 0.07906068981401723, 0.07739120678020847, 0.07555028406242681, 0.07392841985274119, 0.07235196684037423, 0.07072834535229329, 0.06911091795008904, 0.06760708088749783, 0.06599080171745733, 0.06445509705099305, 0.06285905490265174, 0.06128087932648893, 0.059760496978573815, 0.058211506078902735, 0.056629994830011056, 0.055124956208437714, 0.05363516582128539, 0.05225642558772317, 0.05078567657869011, 0.049292154201786106, 0.047869265962119, 0.04646453299885168, 0.04511858162332916, 0.043745632008309866, 0.04247470595519995, 0.041133778774692334, 0.03981860335227351, 0.038609581413111514, 0.0373343242261724, 0.035882337850466114, 0.03469074044781048, 0.03351540850221064, 0.03237961583545087, 0.031237587009094406, 0.030145909142553162, 0.029042863956056323, 0.0279640420954098, 0.02710119319507231, 0.02604822667042858, 0.024972953999554598, 0.02399946350380055, 0.023057334851741825, 0.022054428273548882, 0.021186110371491356, 0.02060102937895178, 0.01975257464999392, 0.018945873008966933, 0.017962584627150547, 0.017262907288663747, 0.01681730938086513, 0.016141945956275664, 0.01550734089079609, 0.01474336029162635, 0.01420889992989477, 0.01389449484583877, 0.01339437839228169, 0.012935482015510799, 0.012542768216515307, 0.012160869411680911, 0.011753534749453284, 0.011460924786010114, 0.01120430010355693, 0.010880875681119642, 0.010709809504703436, 0.01060634889101158, 0.010493381200042557, 0.01044480579139861, 0.010398683120632921, 0.010390378693746205, 0.010501094563380744, 0.01055909469485342, 0.01057207871460291, 0.010727340478802843, 0.010920207362158632, 0.011217335428493664, 0.011478402872250392, 0.011925496802245143, 0.012253489350460008, 0.012631848180355107, 0.01294165037122343, 0.013432042300696487, 0.013999714154853524, 0.014566625105027957, 0.015176419290962506, 0.015781155024913108, 0.016482384920651294, 0.017197764107535863, 0.017982366748104214, 0.018806062479951074, 0.019820111065603004, 0.020704350715066298, 0.021589662169848096, 0.022576835505295437, 0.02360858360565892, 0.024805983925606605, 0.025910757248058587, 0.026889697366672363, 0.028116995434938962, 0.029382915710442284, 0.030684327026320804, 0.03202953383964356, 0.03356906203397295, 0.03497489539555399, 0.03643002813246095, 0.03793719951530389, 0.03948776088314594, 0.041118424772988243, 0.042758140706626396, 0.04444545245695308, 0.04601409289224015, 0.047815248139930544, 0.04965262075898853, 0.05152700513327945, 0.05343909514450334, 0.05556967988491928, 0.05753611831202669, 0.05952619079159768, 0.06159355354463711, 0.06370679995494355, 0.06582849992546799, 0.06803625728803496, 0.0702860520324452, 0.07257769681346332, 0.07491101216004348, 0.07739246619219411, 0.07979512282903814, 0.08207576955707992, 0.08459308214528949, 0.08714610603133922, 0.08991924192775964, 0.0925219636164067, 0.09519046224314306, 0.09788446487558053, 0.10062465795181162, 0.10324446449496841, 0.106094778093412, 0.10900476605230815, 0.11192022476194374, 0.11487204148994506, 0.11787140863634983, 0.12089498056161431, 0.1238786485812514, 0.12698656190968527, 0.13012731076370246, 0.13344481622898832, 0.13663452187185685, 0.13988840237687955, 0.14315861976803224, 0.14647041337103225, 0.1496499816277139, 0.153063951266858, 0.156716720029272, 0.1601632019584684, 0.16365178004633557, 0.16715543427014012, 0.17072773579320638, 0.17419744303391896, 0.1778609328702515, 0.18155224750880247, 0.1854410054127108, 0.18916787526233272, 0.19276034180287738, 0.19658476611179224, 0.2004357018697075, 0.20433195022467407, 0.20823473326069805, 0.21233150637102838, 0.2162703983945952, 0.22024705401317848, 0.22425637598716158, 0.22830488704710541, 0.23238705308094282, 0.23650181861078415, 0.24064821494451666, 0.24484373787303274, 0.2490484688927903, 0.25313630059796693, 0.2574191634828235, 0.2617223281461661, 0.2661014110829456, 0.2704394818780181, 0.2748204330028533, 0.27920492141981135, 0.28361442828522826, 0.2881772340158331, 0.2926192338682189, 0.29688260633011726, 0.3014116160146159, 0.30595707158299623, 0.3105047449806667, 0.31508629059209375, 0.3198353639848447, 0.3244316763821612, 0.3290537410169021, 0.3335166165328538, 0.33821027753294713, 0.34307080333380624, 0.3477703748902134, 0.3524921071294199, 0.35713950482038803, 0.36191503895287436, 0.3668776850792655, 0.37165993973861194, 0.3764661444486263, 0.3812543629420079, 0.38610924877609376, 0.39085668980657834, 0.39576172752201855, 0.40067573592885347, 0.4056725379249343, 0.4105959348266965, 0.41545579088271933, 0.42041577022193927, 0.4253840148703106, 0.4303091344833854, 0.43530062431874783, 0.4404667175520956, 0.44544802991959187, 0.45044481026826244, 0.4552645989361162, 0.4603128569860155, 0.4654101823027762, 0.4704554483690456, 0.4755055866515724, 0.4805715283463649, 0.48562965731278557, 0.49072222935609483, 0.49578634542297506, 0.5008564221475512, 0.5060090479159566, 0.5110793839202543, 0.5161838706657523, 0.5212665357697964, 0.5263566678164903, 0.5312727963308526, 0.5363968902068045, 0.5416361138437293, 0.5467328431844677, 0.5518308931014209, 0.55692214385185, 0.5620214999106897, 0.5670239470245663, 0.5721321696462303, 0.5772324942072402, 0.5823949612266612, 0.587471087222968, 0.5924331887677663, 0.5975152332442764, 0.6025861500583547, 0.6078190536995554, 0.6128466034330219, 0.6178659147488919, 0.6228912388843485, 0.627912588265469, 0.6329288203684317, 0.6379388658637988, 0.6427357926123515, 0.6477565508161226, 0.652756726072372, 0.6577408064476471, 0.6627016198425146, 0.6678499435331126, 0.6727482205284611, 0.6776401955944109, 0.6823036933741653, 0.687206460655437, 0.6922664431495125, 0.6971010241747876, 0.7019236910997727, 0.7064942530446541, 0.7113198824690319, 0.7163301665813961, 0.7210725141996227, 0.7256270680931126, 0.7303602196961952, 0.7350665172439211, 0.7397389840899642, 0.7443935152899999, 0.7489700775301669, 0.7535782509420764, 0.7581571654628931, 0.7628027697829618, 0.767311967327986, 0.7717317287724822, 0.7762020339361084, 0.7806438408363179, 0.785185626701131, 0.7895534209744502, 0.7938108328467748, 0.7981441150367095, 0.8024475739809482, 0.8065625508091488, 0.8108247381155632, 0.8152157425962013, 0.8193765697553108, 0.8235077972221859, 0.8275974280873821, 0.831667993951465, 0.8356687847494843, 0.8396772271418635, 0.8436490868819672, 0.8475655449628876, 0.8514652490516808, 0.8553039273631113, 0.8591281677085458, 0.8629115204198613, 0.8667420355995794, 0.870431796321045, 0.8740370794267043, 0.877658511900642, 0.8812385944046377, 0.8847767992172264, 0.8882726019973585, 0.8917107732691886, 0.8951220755782886, 0.8984886039559934, 0.9015893333531921, 0.9048930396348679, 0.9081935597347723, 0.911374961751318, 0.9145036107324318, 0.9174990954094341, 0.9205338076664932, 0.9235307124220672, 0.9264515091214773, 0.9293185677275606, 0.9321506019425262, 0.9349087246517033, 0.937625818606885, 0.9402782947978169, 0.9428790081412136, 0.9455085277955894, 0.9479944595730537, 0.9504835646688404, 0.9528653076804179, 0.9551995724291185, 0.957330562835264, 0.9595854590945233, 0.9617547375567166, 0.9638933284150947, 0.9659709158102587, 0.9681164762697241, 0.9700565186990806, 0.971873500678176, 0.9737150236442654, 0.9754975700967965, 0.977242942668216, 0.9789039592640075, 0.980388771509347, 0.9819471608719484, 0.9834395508156445, 0.9849510671686444, 0.9863023132594403, 0.9874355519283793, 0.9886866372407406, 0.9898682101705352, 0.9909959005949376, 0.9920392112456184, 0.9930309022273771, 0.9939401230753581, 0.994784613022754, 0.9955571713066537, 0.9962735422232791, 0.9971346987174351, 0.9976950159724925, 0.9982024197572038, 0.9986368644756727, 0.999035974737806, 0.9993252226973942, 0.9996130834701765, 0.9998378024956566, 0.9998556190007166, 0.9999712017202554, 1.0, 0.9999742440554292, 0.9998773894402453, 0.9996882493467693, 0.9994545219295156, 0.9992684845496005, 0.9988807092650455, 0.9984310612913143, 0.9979155490714342, 0.9973417270472829, 0.9967712194689837, 0.9960631298103814, 0.9952956269080777, 0.9942548251477257, 0.9933937557086042, 0.9925259788622666, 0.9915121299367287, 0.9904317355270246, 0.989410422007758, 0.9881828814029913, 0.986864391980065, 0.9855248150289347, 0.9841245973147267, 0.9824982016220527, 0.98099749894151, 0.9795003852631862, 0.97785188109738, 0.976140245698179, 0.9743513542391804, 0.9725170435128334, 0.9707712255227375, 0.9687939371334504, 0.9667640819131603, 0.9646516162037037, 0.9625186021453898, 0.9603666497971839, 0.958117536559655, 0.9558147933590042, 0.9532486290686721, 0.9508646693453318, 0.9484554924597786, 0.9459368475639729, 0.9433581973694675, 0.9407023355323226, 0.9380094702743234, 0.9352772935289537, 0.9324678490758728, 0.9296039549074538, 0.9266313196660566, 0.9236680709891325, 0.9206681714652538, 0.917593747396784, 0.9144676900736649, 0.9113902202248098, 0.9081511037941656, 0.9049348046553902, 0.9016006041318907, 0.8982268859602874, 0.8945889810719131, 0.8911636579881593, 0.8878399923937195, 0.8842913701123207, 0.8807021156306504, 0.876980625937902, 0.8733227733405194, 0.8695871801260858, 0.8658454404963377, 0.8620595855962925, 0.8582935203593656, 0.8544156316790996, 0.8505820023325351, 0.8466212994149699, 0.8426299027786699, 0.8384350520473709, 0.8344044314459882, 0.8305140939066792, 0.826382599193622, 0.8222246460987673, 0.8178601239875897, 0.8136723654082924, 0.8094191329282971, 0.8051647748467359, 0.8008761869131822, 0.7965515162011311, 0.792200290039877, 0.7878785995407955, 0.7834628704833729, 0.7790241315652735, 0.774669924130302, 0.7701743703934696, 0.7654658865297065, 0.7609667437758518, 0.7564422325631123, 0.7519787341013677, 0.7473980871525073, 0.7427577672669691, 0.7381524210139832, 0.7335306778671208, 0.7290187353260958, 0.724351856661943, 0.7197010500519321, 0.7150194523371023, 0.710322273867281, 0.7056330341715725, 0.7009388499200695, 0.696254773540509, 0.6915499422050267, 0.6867135249642482, 0.6820196253599536, 0.6773165269319391, 0.6726867087814977, 0.6679596433207161, 0.6630743088677875, 0.6583676636940126, 0.653653456208885, 0.6489190055360875, 0.6441974758406749, 0.639587225533139, 0.6348476062635257, 0.630115061952229, 0.6254490404461523, 0.6207250551212536, 0.6158956499133997, 0.611211228690886, 0.6065328828296147, 0.6017883210096071, 0.5971351261936425, 0.5926786804985589, 0.5880140419740576, 0.583368893112497, 0.5786879826435354, 0.5740886039356209, 0.5694982559976082, 0.5649331784414923, 0.560385285888357, 0.5559177729552652, 0.551398388504391, 0.5468281938871774, 0.5423637568885273, 0.5379183419015882, 0.5334192837746903, 0.5290238271551823, 0.5246127315790048, 0.5202577666471674, 0.5159210909032362, 0.5115526946665048, 0.5072634086579106, 0.5030745044654187, 0.4988155215848095, 0.4945835604033253, 0.4902983746333939, 0.48613261457738116, 0.4821713875803106, 0.47803274759923253, 0.4739308828184382, 0.4697109079080523, 0.465700897274166, 0.4618907784924485, 0.4579140859092486, 0.45397617103663757, 0.44988163484345756, 0.44604451069549184, 0.4423811002404412, 0.43857995463494287, 0.4348162284987965, 0.4310567411433162, 0.4273718275450605, 0.4237002841293116, 0.42008932582719044, 0.4165131548498836, 0.41285824129636794, 0.40936742931033365, 0.40597251428937775, 0.402534046277808, 0.3991314640946582, 0.3956696632144158, 0.3923524075654002, 0.3892031031226689, 0.38593356330693057, 0.3827056897905836, 0.3793832096054239, 0.37625525760628825, 0.3731717997026891, 0.37011032233635105, 0.36708469652460374, 0.3641470318400963, 0.36118839392825325, 0.3583547007987446, 0.35546607626419335, 0.35262249795640155, 0.34970188146058545, 0.34696161021296845, 0.3443495151767688, 0.34167054398554686, 0.33903377911259214, 0.3363505298452607, 0.3338080631048442, 0.33141563553691133, 0.3289312039310416, 0.3264898730775276, 0.32396593613781477, 0.3216246374560355, 0.31928445965675456, 0.3170162604913962, 0.31478129927138354, 0.31276770358355965, 0.310577158311139, 0.30833989813909374, 0.3062502058856319, 0.3041982690693763, 0.3022279551528381, 0.30024516557904596, 0.29833123400446826, 0.29642297671568607, 0.29455459460675354, 0.29257820557940545, 0.29080586043754536, 0.28923209147408374, 0.2874977498456264, 0.28580331687623484, 0.2840448167889495, 0.28244026586840354, 0.28074201487144435, 0.27921595921991166, 0.2777142292840469, 0.27627454236218774, 0.27481948155108465, 0.2733637424403688, 0.2719700765661782, 0.2706038024812137, 0.2692946031333285, 0.2679800855488091, 0.26665466039862695, 0.2654040957227526, 0.2641802647636535, 0.26302728814407733, 0.2618512482571169, 0.26077036888842914, 0.25964333192441896, 0.258547836503661, 0.2574055431979991, 0.25637960568009477, 0.25551008336475556, 0.25451514116085155, 0.2535509670618683, 0.2524653377395176, 0.25157750775111687, 0.25072632036297804, 0.24987272775898, 0.24903845189068205, 0.24818280918424923, 0.24739154151128842, 0.24671946954822918, 0.24594763048163795, 0.24519770161153137, 0.24442090481379414, 0.24371796850775748, 0.24306825145429933, 0.24239310015688464, 0.24173553159427089, 0.24101387050809256, 0.2403994001606937, 0.2398986941586425, 0.23929275810075973, 0.23870324748911034, 0.2381218215562195, 0.23756318885666095, 0.23688906666029294, 0.23637236384279162, 0.2358601373821645, 0.2353159381874656, 0.23481818489352635, 0.2343676511926248, 0.23387084874670716, 0.23338019732166515, 0.23289180265774742, 0.23241322317679566, 0.23192877832916023, 0.23146162218051394, 0.23099837093775313, 0.2306417109742065, 0.23017238158736356, 0.22962354494935683, 0.2291816720758852, 0.22874127808350914, 0.22827996421321312, 0.22784429236623058, 0.2275879860871018, 0.22712767889966887, 0.22667621176585476, 0.2261877391397317, 0.22575453328280695, 0.22526783077458026, 0.2248439880080864, 0.22441691207229456, 0.22399360404117166, 0.22355807703689884, 0.2232106188195559, 0.2227553456911906, 0.22230059164677773, 0.22167241568356766, 0.2212373316381311, 0.2209996492680163, 0.22051421803321583, 0.21981241725802908, 0.2193542978971547, 0.21888212044685199, 0.2185105734070391, 0.2179978348251614, 0.21735417013960037, 0.2168449259681817, 0.21632176585876292, 0.21599852709857628, 0.21542213573643362, 0.21460984001543906, 0.21406067621036862, 0.21349506301397836, 0.21304613759482263, 0.21243303659596477, 0.21181652597351294, 0.2111881694541644, 0.21055175016376518, 0.20983317459969386, 0.209188333849491, 0.20868424666524418, 0.20799266955515217, 0.2072963877348888, 0.20657588666483176, 0.2058692644587751, 0.20511712254788664, 0.20439702842127372, 0.20366494668971866, 0.2029170182384318, 0.20216090947489948, 0.20142891806115154, 0.20064277581947296, 0.1998459151747522, 0.19886517094423883, 0.19806778184445026, 0.19728958024508722, 0.196445750477442, 0.19558519321562454, 0.194682787673427, 0.19379382297750722, 0.19289570489345864, 0.1919734386335367, 0.19103629210019185, 0.19005529288343473, 0.18909339249652435, 0.18811615235785442, 0.18712412014565633, 0.18611778013918553, 0.1852520076280902, 0.18419876220671044, 0.18299025533333152, 0.18194614917412483, 0.18088733366511495, 0.17977018865867134, 0.17868900824486852, 0.17760673552110504, 0.1764928274346797, 0.17536533747412122, 0.17436079927855833, 0.1731903189964037, 0.1720997648682035, 0.170908552784491, 0.1697160749515007, 0.1684071287156476, 0.16722308903390445, 0.1661275643535698, 0.16490961701864726, 0.16368686800765553, 0.16244771236058983, 0.16121515018731844, 0.15992429850113005, 0.1586844581416428, 0.15743464876783114, 0.15606493106085592, 0.15481027804843733, 0.1534707544196599, 0.15219621417421267, 0.1509052087429757, 0.14966556873922368, 0.14833802342071586, 0.14698747687250507, 0.14564588425638128, 0.14429647778124882, 0.14304659930836555, 0.14167012798150316, 0.1403452539927157, 0.13896220219597966, 0.13758162093793566, 0.1361882182355294, 0.13481279879436806, 0.1334412712417561, 0.132065650117284, 0.13069018495475615, 0.1291493286704659, 0.1277949494336321, 0.12649759041911385, 0.12511791538184266, 0.12373549082614645, 0.12232154480713822, 0.12093924380245433, 0.11965366313349751, 0.11825445913601845, 0.11685977269222993, 0.1154878699322617, 0.11409958645293469, 0.11259529625053236, 0.11123292173075526, 0.10986889296033343, 0.10854094422502777, 0.10717176632866891, 0.10573579475392604, 0.10438206102410363, 0.10302838155825825, 0.10169044911238687, 0.10033788267367945, 0.09913231066872615, 0.09776940190518531, 0.09641933563758515, 0.09500427568937551, 0.09368792383526033, 0.09244473611992604, 0.09113425258071577, 0.0898350403981817, 0.08849905447474106, 0.08722777417552285, 0.08589835988137316, 0.08465188367035391, 0.08341038923148372, 0.0820496969588443, 0.08083645061017208, 0.07986253741610624, 0.0786213504386888, 0.07739703697409511, 0.0760492653354255, 0.07487467743997629, 0.07368554520895376, 0.07252956801699069, 0.07138136458617604, 0.0702160162513629, 0.0690890006393923, 0.06799996247186552, 0.06688715176342037, 0.06578607733452276, 0.06488100966579873, 0.06378133659850924, 0.062480502711845194, 0.06145431807036042, 0.06043648782142539, 0.059597080430061775, 0.058577211134292456, 0.05760338310247247, 0.0566201451351131, 0.055657319540220275, 0.054578108086527195, 0.05367119925999028, 0.05273837899650791, 0.051858476998259226, 0.05098857919882208, 0.050192010322653836, 0.04933655967684768, 0.04842692540958797, 0.04761174236509997, 0.0468084447022708, 0.046039710221053964, 0.04525916040195137, 0.04447864800535323, 0.04372968171472214, 0.0429950628050737, 0.042469970820252355, 0.04174020990736974, 0.04101807231513736, 0.040341256581434504, 0.03968678376396946, 0.03896913530180966, 0.038367334251668404, 0.03778799276758688, 0.037215518940922364, 0.0366586544136601, 0.03602177079477831, 0.03550815999809465, 0.035019451507318645, 0.03452511943040615, 0.03404321333442039, 0.033673468353888, 0.033205138575827055, 0.03267138011969496, 0.032251510144346685, 0.03184502609033846, 0.03150364864987993, 0.03111809659788661, 0.03083030160470953, 0.03046793202594111, 0.03012637247656544, 0.02973115620534599, 0.029437846630504718, 0.029151372850710146, 0.028887296027045487, 0.028636834344547467, 0.02830434546668752, 0.028093090096444822, 0.02795981083607152, 0.027756629082560436, 0.027566752858047057, 0.02746732951143182, 0.027294053073845283, 0.027182258942777822, 0.02703736258047484, 0.026947633027626212, 0.026833889290428764, 0.026738727051569922, 0.026657368470440403, 0.026596646103415226, 0.026422620607716017, 0.026408211148475823, 0.02640052812995792, 0.026300699328328785, 0.0263201989482077, 0.026363961213672155, 0.026386091739343528, 0.026413552336564065, 0.026505733766806597, 0.026537973557947278, 0.0266942025801015, 0.026731814454405714, 0.02678539907607947, 0.02667361997285203, 0.026778585976301162, 0.027081153154324918, 0.027167457886500556, 0.027268444389415298, 0.02714021647446148, 0.0272977776786187, 0.02767744542863633, 0.027803278053067527, 0.02794143029306229, 0.02794007236027514, 0.028118836485415955, 0.028441957562554694, 0.028604874136827135, 0.028777501163900432, 0.02892951216905454, 0.029122631769484802, 0.029347049582060667, 0.029547565509824927, 0.029754184100117823, 0.029811840611314252, 0.030048385121083446, 0.03043141655664167, 0.030641085280152348, 0.03085631730776165, 0.031058039091404508, 0.03128471447515696, 0.03138530896776032, 0.03163311161513709, 0.03187554592048265, 0.03209122594882518, 0.032327634564197454, 0.03259591713303035, 0.03281842817378753, 0.03303909962221173, 0.03343082140410664, 0.03362608540799709, 0.03381821491985259, 0.03402921392939291, 0.034244723538010065, 0.03432391080224843, 0.03456292867228356, 0.034729444086184516, 0.03496452447423228, 0.03519014894269229, 0.035410725692025656, 0.03561905010072626, 0.035967073486029656, 0.036142402009388286, 0.03631928906705398, 0.036610786736022506, 0.036773629526462286, 0.03670281812136278, 0.036904995003583574, 0.03709604951554934, 0.03742002850708362, 0.03757250970177207, 0.03760219540621632, 0.037766359929775624, 0.03792080374190964, 0.03810632636185674, 0.03823720363060976, 0.038416668504957785, 0.03852729480964078, 0.0386341779564821, 0.03873674058503369, 0.038834460998982384, 0.038805517348887486, 0.03890752968823378, 0.038996610304152225, 0.03913222620564693, 0.03918980856328072, 0.039401203117834516, 0.039422274782242715, 0.03944428542498888, 0.039432760127834046, 0.03945685671385022, 0.03950210696519131, 0.03951310116968804, 0.039519694097807256, 0.03937408001946125, 0.03938842333368688, 0.03949489016595419, 0.03946744346620565, 0.03943284664615158, 0.039368762742312005, 0.0393218792710406, 0.03914823996245791, 0.039098091119510445, 0.03903230627573373, 0.03894451336533111, 0.03885122279267831, 0.038928373194580715, 0.03878572715073191, 0.038641367445947324, 0.03843555206118653, 0.03829260105452421, 0.03810915035680758, 0.0379554511020178, 0.03779226625699026, 0.03752785279208324, 0.03735787631796763, 0.03723630111834568, 0.03703108965835564, 0.03681696283895741, 0.03670444133389347, 0.03645912220384743, 0.0362079546059266, 0.035958025891514284, 0.035704354094410674, 0.03531036512428451, 0.03506494571797748, 0.034990695890664586, 0.03469743033999411, 0.03440329497358059, 0.034041265878590535, 0.03375138317757467, 0.03347683320268356, 0.03317072743217127, 0.03285920973904236, 0.03252378938769893, 0.03220350059224412, 0.031791995225507165, 0.031469275803715155, 0.031135487314137986, 0.030868705127008417, 0.030505494416661547, 0.03020039684611366, 0.02982050365262986, 0.0294397858585908, 0.02890335769492152, 0.028539279898063003, 0.028315390812186324, 0.027912106257964496, 0.02750864123214851, 0.027130360035185003, 0.026722221467197698, 0.02624823555583672, 0.025848767216507505, 0.025445232999040848, 0.02501218624092744, 0.024604655497121108, 0.02415203879171921, 0.023740843285139198, 0.023323696957106843, 0.023015357244007526, 0.022574114778843114, 0.021984645399216837, 0.02156721852049738, 0.021143273716883657, 0.02083884282532908, 0.02038896775723873, 0.019923933827775613, 0.019482573269101737, 0.01904293080001587, 0.01857557197407019, 0.018143062456866716, 0.017655485838140122, 0.017230424112399303, 0.016802925497302577, 0.016520792737534404, 0.016071890871668302, 0.015494693772364235, 0.015077879004120786, 0.014660001191935263, 0.014322597919670393, 0.013894221607007231, 0.013386496939404425, 0.01297911105146827, 0.01257192300732566, 0.012209653430900726, 0.011799008751126517, 0.011315442812376725, 0.010923261987195046, 0.010531245993959262, 0.010114379366738558, 0.009728051008746453, 0.00943066134301991, 0.00903527386793131, 0.008646908523496935, 0.008335306142914707, 0.007951791477197195, 0.007527424324457371, 0.007171055050876603, 0.006847008843336813, 0.006500507160771805, 0.00616196920909114, 0.005812798796622797, 0.005491925881476769, 0.005273087044905212, 0.00495302567235486, 0.0046448694793965834, 0.004230250132877654, 0.003958802046600623, 0.0038747364219317263, 0.0035876077163754937, 0.00331533645542326, 0.0030054129433127468, 0.002766430473812254, 0.0025882422760027408, 0.0023611585817847353, 0.0021458982994343625, 0.0018095504969938047, 0.0016331829838658798, 0.0015959514107681814, 0.0014093150164842807, 0.001234887007723049, 0.0011494481347588497, 0.0009884228135679, 0.0007729668073387409, 0.0006507944487109492, 0.0005385546833327844, 0.0003626512277973102, 0.00027945710230183496, 0.00041897020228651697, 0.0003204616656415746, 0.00024107093777433233, 2.5128136601312358e-05, 0.0, 0.0001329107595359455, 0.00010373267258193138, 9.119921366469843e-05, 9.45063180169203e-05, 0.00011296948564445413, 0.0002342658895977461, 0.0002702430887560383, 0.00032486849672317737, 0.00023530567000221714, 0.0003447314550042995, 0.0005235725523259961, 0.0006395689761834641, 0.0007672640686833716, 0.0009912976679896017, 0.0011318953386254803, 0.0013921251703068462, 0.0015524533429212804, 0.0017341447424192402, 0.0019102139347851772, 0.00213432651276296, 0.002316288612844596, 0.0025806405912890966, 0.002857328385075577, 0.003128046923024185, 0.0034319907494455813, 0.0038578443426254584, 0.0041712865118654985, 0.004503028862668673, 0.004940680182515064, 0.005296022212542384, 0.005639863394590055, 0.006041483902077414, 0.006460805804495934, 0.007022321870736945, 0.007459723163176468, 0.007791793302983075, 0.008290917836192497, 0.008803782654065253, 0.009282670987944523, 0.009829344172107367, 0.010405778708854261, 0.010973394346480616, 0.011554411905024868, 0.012215314894448595, 0.012815626190367843, 0.013408137307355957, 0.014047293377271688, 0.014702411609806825, 0.015491173523221989, 0.016163374352594573, 0.016924392858266808, 0.017632571946268067, 0.018365406434789327, 0.019095954871470783, 0.019877919986451963, 0.02077190909978621, 0.021581889528670472, 0.022416126848506215, 0.02317422851856032, 0.02406638212716182, 0.024893481533348832, 0.025827692977089783, 0.026773500074068566, 0.027941326079031277, 0.02888620433178556, 0.029908171649647302, 0.0308966937072603, 0.03191174521964384, 0.032937435960409114, 0.03400403858946245, 0.03501608683924866, 0.03613720095645051, 0.03727557961694302, 0.03845720175164212, 0.03962757742008806, 0.04088359162255382, 0.04208454304683238, 0.04330878525971327, 0.044379377545040295, 0.045671312768070176, 0.04721461157594649, 0.04850221927235139, 0.049817895322843836, 0.05103568249515139, 0.05242065673171895, 0.053824301919816075, 0.0552470722046317, 0.05668939696135478, 0.05823625983967423, 0.059708194729766004, 0.06116513190706932, 0.06269274871209865, 0.06424293794393546, 0.06584890629233703, 0.06744040034615821, 0.06909346288454868, 0.07072977274806876, 0.07239273017381714, 0.07410773001273169, 0.07581975720242397, 0.07740091046768592, 0.07918705903738285, 0.0809909136912447, 0.08290912144690006, 0.08473931129310025, 0.08658068411335303, 0.08846451235524234, 0.09037341547814066, 0.09239212104891711, 0.09434093017597761, 0.09626853019265177, 0.09828386624929104, 0.10032561321360702, 0.10244529828347704, 0.10453350945886232, 0.10654088445946462, 0.10870168397548428, 0.11088518517675196, 0.1130111646307279, 0.11525226771008172, 0.11771931244137233, 0.11997556231000267, 0.12226557110115202, 0.12459227695973078, 0.1269472227832571, 0.1292974383915253, 0.13172062649134797, 0.13417288600562258, 0.13656223480341123, 0.13908413715476206, 0.141688711898265, 0.14425160188674277, 0.14684306536319705, 0.14947427281178358, 0.15212190006109863, 0.15486531464558353, 0.15756380218758492, 0.16029568213263365, 0.1630604723784006, 0.16585776144102732, 0.16872029679542414, 0.1715774108453428, 0.17446799982148956, 0.17728863634412764, 0.1802578764929855, 0.18333820923949878, 0.18635034155095825, 0.18939479528711808, 0.19239412162761554, 0.19551234387437427, 0.19872050130790617, 0.20188615757894768, 0.20508368308208053, 0.2081474920245098, 0.21142937327625447, 0.2148438808051168, 0.21815769243969657, 0.2215023748646747, 0.22481549295611197, 0.22823003825852212, 0.23165373819336038, 0.23512621552301347, 0.23862617271341702, 0.2421688397242473, 0.2457233745319108, 0.2494178499753287, 0.2530178513400888, 0.25665396072951724, 0.26027021162771635, 0.2639831604016823, 0.26778206361301204, 0.27154945466260766, 0.2753540626504176, 0.27918744287877123, 0.2830533693700073, 0.2868887687387077, 0.29082605714945536, 0.294879085216699, 0.2988602418916954, 0.30287391915090117, 0.30684217837930833, 0.31092857341943625, 0.3151294337133257, 0.31925715202162236, 0.32341612031322287, 0.3275725239725746, 0.3317960753982756, 0.33608011793586784, 0.340353969646256, 0.34465646623744994, 0.348832595163061, 0.3532102440946919, 0.35772761640657713, 0.36212742674571996, 0.3665538050194817, 0.371046728757809, 0.37551971909407256, 0.3798657070118363, 0.38441233526730784, 0.38897622614073596, 0.3935579222872554, 0.39815784401711807, 0.40274320381874973, 0.4073845830560286, 0.41204295555220033, 0.4168289319478275, 0.4215081065066772, 0.42626985467524503, 0.4309881659490744, 0.43573174817379307, 0.4403485136524275, 0.4451578255312427, 0.4500831883974089, 0.4549057650089491, 0.4597473340652344, 0.46464009653142, 0.46951280771302545, 0.4743706636315341, 0.4792829483317002, 0.48420948274284, 0.4891973411465313, 0.49414414564967124, 0.4990836460635771, 0.5040616608551547, 0.5090510497880331, 0.5141098231047416, 0.5191120590013732, 0.5239684170344848, 0.5290138818984403, 0.5340602748930444, 0.5390599338981393, 0.5441145504960085, 0.5493146257590773, 0.554347615503488, 0.5593875745922687, 0.5643156410483756, 0.5693808929936527, 0.574391581381001, 0.5794570468027628, 0.5845161863612833, 0.5895764650568922, 0.5946222290072689, 0.5998312033735991, 0.6048434004073374, 0.6098584840726244, 0.6146576857203432, 0.6197006508074792, 0.6247733212067437, 0.6297820712686161, 0.6347791511001127, 0.6398781406767705, 0.6448361465300992, 0.6496697509115966, 0.654627654215276, 0.6595692378544359, 0.6644315276424353, 0.6693469299226548, 0.6744615714006804, 0.6793061451839275, 0.684141326263419, 0.688733331966178, 0.6935728136610797, 0.6985714913359496, 0.7033306814197262, 0.7080721462252204, 0.7126508286368982, 0.717370129661923, 0.7221104479122854, 0.726762042569067, 0.7313854455445618, 0.7359834983272613, 0.7405475314106719, 0.7449890987394299, 0.749502786617382, 0.7539789718144656, 0.7584579317405978, 0.7628533839004408, 0.7671061691507913, 0.7714423009457425, 0.7757348885019556, 0.7799766299089966, 0.7841830902529688, 0.7884373177276021, 0.7925435953838886, 0.7966103143185571, 0.8005774893789609, 0.8045691017501962, 0.8086394875468312, 0.8125221591377931, 0.8163643065412, 0.8200943588857851, 0.8238592812091058, 0.8275565453844713, 0.8312243746315419, 0.8348401571134484, 0.8383847921457809, 0.841896652545463, 0.8453238436863091, 0.8487283306566972, 0.8520747110282181, 0.8554030397239608, 0.8586268622062078, 0.8616390888101789, 0.8647673040779098, 0.8678280412941414, 0.8709614671983907, 0.8738707278761223, 0.8766881392235665, 0.8794830073834459, 0.8822151669026053, 0.884924346678273, 0.8875238164112131, 0.8899761255932237, 0.8924601004435224, 0.894874750247214, 0.8971205433245422, 0.8994083236455612, 0.9015652015583907, 0.9037089223844744, 0.905774586095335, 0.9079099487769094, 0.909802742485977, 0.9116383251572765, 0.9133923203101317, 0.915076900542037, 0.916540377963458, 0.9181024882224084, 0.919727537583832, 0.9211110097673756, 0.9224228440159564, 0.9235885943826544, 0.9247638161969016, 0.9257908936733077, 0.9268182722813105, 0.927763183544235, 0.9286260299547489, 0.9294071338518077, 0.9300993931889354, 0.9307186393016874, 0.9312563155507964, 0.9317824467591164, 0.9321485742073836, 0.9324006252340361, 0.9326162807029234, 0.9327515859580398, 0.9328027356428038, 0.9327774280607698, 0.932741071272051, 0.9325450229362527, 0.9322718456419751, 0.9319871198753766, 0.9315495664781167, 0.9310223025523344, 0.9304356989609105, 0.9297715889805562, 0.9289632515108626, 0.9281510082315934, 0.9272783094028353, 0.9262985161223114, 0.9252380106122983, 0.9239608581757286, 0.9227565415450839, 0.921530544827931, 0.920143432062968, 0.9186746876032439, 0.9170991525278506, 0.9154721276516112, 0.9138078496060996, 0.9120132288779591, 0.910141160073972, 0.9082691944617022, 0.906233470131891, 0.9040116810143456, 0.9018460018913381, 0.8995573639493032, 0.8972404734945442, 0.8948439874625578, 0.8923543648944954, 0.8898039854972435, 0.8873861041715725, 0.88465611824988, 0.8818629530894129, 0.8790096055944386, 0.8760877425368032, 0.8729138091303089, 0.8698863507049056, 0.8667834667138513, 0.8637942055286038, 0.8605211989298163, 0.8570368170744014, 0.8536614523765814, 0.8502167352150172, 0.8468326281974726, 0.843236665079591, 0.8394829439674606, 0.8357827113533752, 0.8320187753386029, 0.8282437304292645, 0.8243492016834701, 0.8202243237252012, 0.8162372781874997, 0.8121843854538837, 0.8082442901056448, 0.804043652523722, 0.7997563106156441, 0.795460809474989, 0.7911140916451814, 0.7867279861490665, 0.7822798617345023, 0.7777174285181352, 0.7731822315698088, 0.7685968244113892, 0.7640398239506002, 0.7593483779135725, 0.7545783612703547, 0.7498086481102305, 0.7449964836657201, 0.7400326241511683, 0.7351527381858682, 0.7303488070643167, 0.7253647683459631, 0.7203460057590773, 0.7153558445003336, 0.7102622015092139, 0.705154597038471, 0.7000021675000051, 0.6948228143443117, 0.6894257902283942, 0.6842182734447623, 0.6789931646770536, 0.6737136180220469, 0.6684035024580975, 0.6629543624989875, 0.6576025620729671, 0.6522671469033381, 0.6468489783552344, 0.6414069299227999, 0.6361450534381174, 0.6306349811952744, 0.6250182242851895, 0.6195058340800494, 0.6139804563099569, 0.6084430699474239, 0.6028946658068499, 0.5972700539575921, 0.5917109970643034, 0.5861402389791958, 0.5807248166644029, 0.575114349901244, 0.5694581676097067, 0.5638579911258188, 0.5582574766329521, 0.5527014333648681, 0.5470967589223367, 0.5413309351003119, 0.5357563025679793, 0.5301777123157485, 0.524633875345563, 0.5190484300316918, 0.5135879519561548, 0.5079957519348135, 0.5024166473819844, 0.4966633934598977, 0.49113516769188176, 0.48562535398572654, 0.48010470103339403, 0.47459250022593114, 0.4691014430656478, 0.46360963615734135, 0.45827869630623724, 0.4527971532986622, 0.447340202795124, 0.44172399224988823, 0.43633960603070443, 0.43095509506816004, 0.4256034810958382, 0.42026899542464674, 0.41500107902362404, 0.40969960033131547, 0.4044813470529636, 0.3992221464240125, 0.39399247767144874, 0.388862602173366, 0.3836843670447682, 0.3784636136730551, 0.373364450833056, 0.3682955414153571, 0.36330169374249177, 0.35828974431123095, 0.35334931040472484, 0.34840249200628787, 0.34349310357830987, 0.3385586915948042, 0.3337323088335666, 0.32891446021884396, 0.32416060249730494, 0.31944099115881625, 0.3147932779590342, 0.31014009672374365, 0.3053712692476243, 0.3008156578651942, 0.2962910553190738, 0.2919719630338513, 0.28749236782610493, 0.28299182000510664, 0.27861090232891594, 0.27427121818753336, 0.2700320566767058, 0.265768727651286, 0.2614666252809784, 0.2573054928296644, 0.2531852378667029, 0.24900720615430935, 0.2449830963802983, 0.2410107180175935, 0.23706004986436516, 0.23314959373620248, 0.22924342887836333, 0.22542049252121932, 0.22187696407619442, 0.2181054185900278, 0.21438924254120345, 0.210554299086188, 0.20696694249583977, 0.20351368093611974, 0.1999994882977511, 0.1965334708607343, 0.19310785982471473, 0.1897379110377305, 0.18638882973764867, 0.18311507840159058, 0.17988595442752411, 0.1765874155163462, 0.17346180254811883, 0.1703484831720217, 0.16730300766475284, 0.16429561677308616, 0.16151462005126793, 0.15856185254857047, 0.1556265071661492, 0.15277784956548637, 0.14997571754517833, 0.1472525251808708, 0.1445372509429084, 0.14179854981939544, 0.13918414086488753, 0.1366106048593945, 0.13394905254902376, 0.13147295817012516, 0.1290041438265916, 0.12659812152662991, 0.12422507438702793, 0.12209897824767897, 0.11976684139918999, 0.11740774353054047, 0.11517664339571151, 0.11298523746915674, 0.11088803663204899, 0.10876710817891634, 0.10657305339360298, 0.10454720942240277, 0.10255376034284236, 0.10055221708546484, 0.09862848976803687, 0.09677870582376508, 0.09490913539766815, 0.09307197607925376, 0.09125577324787686, 0.08948353237385193, 0.08784101408005514, 0.08611667418253921, 0.08442747608572085, 0.08273536976079353, 0.08111734601511965, 0.07951774754524524, 0.07795924845566028, 0.07634713415398756, 0.0748527695147188, 0.07337982125010585, 0.07204227350644672, 0.07059762867615556, 0.06905550207894855, 0.06768061281503725, 0.0663240167950579, 0.06493787224944486, 0.06362371586673314, 0.06236159833404504, 0.061073452585313, 0.05980278654409626, 0.05852716654777423