0.06621394922169414, 0.06578857522873266, 0.06532603799738933, 0.0649136501477298, 0.06450200129798084, 0.06410750555325308, 0.06369489644811838, 0.0633229182835438, 0.06290785506044899, 0.062495979248609716, 0.06205789248599991, 0.06165473546245704, 0.06120647240937365, 0.06080974850956944, 0.06041074817554104, 0.06006148939056722, 0.05965239436356476, 0.05920971232254774, 0.05880800197957087, 0.05840557020034338, 0.058079065851692944, 0.05766601041055892, 0.057199110399329484, 0.056800952774082016, 0.05640267285479111, 0.05601884268827022, 0.055618791449950696, 0.055246594203883885, 0.05484508122350701, 0.054446011108353155, 0.054001615341755856, 0.05361279757871499, 0.05324797939381114, 0.052854663031343785, 0.05246240617278205, 0.05204227404184302, 0.05165581229279429, 0.05122953837509407, 0.05084721546823987, 0.050462622811046846, 0.05012175056785647, 0.04972835255154271, 0.04936140968711386, 0.048968160447451364, 0.04857792270516027, 0.048136739368590226, 0.047758704511141385, 0.04740490318252404, 0.04702287804263691, 0.046642215884873724, 0.04630014721149969, 0.045917574158812924, 0.045495106052184965, 0.04512476451587532, 0.04475496896558775, 0.04441892543265012, 0.04404642544951256, 0.043666350716565445, 0.043300507745495674, 0.042936526521295815, 0.0425557594193255, 0.042197729974887806, 0.0418300751249344, 0.04147490053456135, 0.041120100050851184, 0.04076379436841535, 0.04041054622378873, 0.04003738937484362, 0.03968842707493079, 0.03933934657760062, 0.03903177118486014, 0.0386780394501848, 0.03831898856228783, 0.037972057632379284, 0.037627342832649235, 0.03731787267705584, 0.03697328123763646, 0.03657063449327444, 0.03624150262971972, 0.035912296936983924, 0.03559362886158666, 0.03526376608999473, 0.03495375111797325, 0.03462413328733477, 0.034297008443908365, 0.033978513249077545, 0.03365540549335533, 0.03329776351737337, 0.03298461513263664, 0.03267188291890067, 0.032399073550972816, 0.0320828791272165, 0.03179473022819978, 0.03148172612943109, 0.031173064639975632, 0.03087256351125379, 0.030571156734874143, 0.03026729423149598, 0.029973925111132792, 0.029683513277536204, 0.029431076700258865, 0.02914179218471674, 0.02878478683951744, 0.028513555529849438, 0.028242247191518032, 0.02798979499437642, 0.027716937151648944, 0.02748108124126797, 0.027207595712878917, 0.02693812093130686, 0.026614576324793176, 0.0263598613086111, 0.026128122405730904, 0.02587135053980353, 0.025616738306820035, 0.025335434323260138, 0.025089054238164654, 0.024828978136430337, 0.024586270790144308, 0.024344081977352428, 0.02414203024782413, 0.023896902381774096, 0.02370294571705393, 0.023458974539944045, 0.02322112778944239, 0.02294760639743818, 0.02272591538893726, 0.022502676525955757, 0.022286700958823808, 0.022073118237537753, 0.02187024639780143, 0.02166054751102524, 0.021453837749549273, 0.021250084153386705, 0.021049257378161487, 0.02085753242890057, 0.0206616995308844, 0.020477339226459928, 0.020286801017825155, 0.020099801973568664, 0.01996376461621368, 0.019777488313198328, 0.019499951282224738, 0.019337278215536026, 0.019174176933521116, 0.01900487414752516, 0.018842933487171514, 0.018766102269123102, 0.018594505891647163, 0.01842866115416833, 0.018261941965286747, 0.018107158716588603, 0.017962847589880006, 0.017815580278758736, 0.017672477988397647, 0.017498165643452353, 0.017367161126084114, 0.017260468848293437, 0.017129867008850008, 0.017002358855776004, 0.01681998595649998, 0.016705751182200582, 0.01664075939208772, 0.016519931911949483, 0.016402296624383403, 0.016252630707827634, 0.01614558185716006, 0.016089135928265903, 0.01597802184049599, 0.015871096072375614, 0.015768123582257054, 0.015668894572656158, 0.015546350243249895, 0.015457464980359869, 0.015370312967860818, 0.01529531339828627, 0.015210560645187651, 0.015151074966200133, 0.015068473578986387, 0.014989613482083714, 0.014885342408733298, 0.014817006700360109, 0.014795690576275701, 0.014724776093040085, 0.014726323857601045, 0.014654978105894221, 0.014591135157313036, 0.014492668677154088, 0.014446799975369089, 0.014451582680936699, 0.014405731954446365, 0.014365309953581254, 0.014338069766331814, 0.014305985165353237, 0.014272251658292755, 0.014249664796371847, 0.01423055912862309, 0.014251911573667104, 0.014234413940399144, 0.014217777398970741, 0.014210370945852289, 0.014206948350122494, 0.014232047571087618, 0.01423270319545641, 0.014273209859028444, 0.014278503594439981, 0.014289855364393403, 0.01440390098430275, 0.014413617881623085, 0.014408724833634633, 0.014440886170575817, 0.014479841017654276, 0.01456633946930269, 0.014611979416178448, 0.014687981447167951, 0.014745335412173766, 0.014810379734033308, 0.014865942728362655, 0.014946662109874331, 0.015082162897940003, 0.015166743757603804, 0.01525891991004331, 0.015401601996705053, 0.015502082435367473, 0.01561344211853504, 0.015730691828724306, 0.015855790618499132, 0.016075149148599758, 0.016203839535602615, 0.01630087790218616, 0.016457697890129033, 0.016622241553256874, 0.016814933062472674, 0.01699164345630941, 0.017240784565537327, 0.01742587500742207, 0.017622538454488152, 0.017786758615332923, 0.01801034844416242, 0.01830566533104565, 0.018536501514456287, 0.018778722995517645, 0.019040204034657966, 0.019303059797255155, 0.019614052511816728, 0.019893845953106757, 0.020186292528805588, 0.020499276578260353, 0.02081492402063845, 0.021132466134189263, 0.021473674233381642, 0.021826191367114802, 0.022227235377284753, 0.022597743378531137, 0.022985943267002817, 0.02338287288015301, 0.023793315736219803, 0.02430814207617489, 0.024733926785242506, 0.025110035616745328, 0.025580855045725666, 0.026065183442515436, 0.026608622747291182, 0.027114633342211477, 0.027659919971909284, 0.02819598222570025, 0.02874962533654186, 0.029287569503986838, 0.029880010119279845, 0.030502240167241897, 0.03112375006452074, 0.03176192806752201, 0.032408682572315994, 0.03308179933139811, 0.033811002183425594, 0.03451309141986968, 0.035234834168998044, 0.036013452356701864, 0.03676988754444207, 0.03755444027909286, 0.03835376032607611, 0.03917508534265663, 0.04004933666148323, 0.04091055823918168, 0.04171896481398723, 0.04263701636886182, 0.04357416986968009, 0.04457648021404771, 0.0455478078696173, 0.04656934439041757, 0.04758410873539393, 0.048624067411604376, 0.049627207233032475, 0.050725439470405816, 0.051911668011275655, 0.05304586525318154, 0.05420685180242089, 0.05537813273192295, 0.05659495489223009, 0.0578110111239922, 0.059083727667838815, 0.0603816241805688, 0.06175690009540901, 0.06310017330778102, 0.06442549898995716, 0.06583402801029684, 0.06726962978593082, 0.06874727849974223, 0.0702366911807155, 0.07175337865060936, 0.0733020698180147, 0.07488065194166124, 0.07650807464677868, 0.07814512028298926, 0.07985546666995147, 0.08155138733080255, 0.08328196739592789, 0.08504088235630938, 0.0868412469143913, 0.08868810454148336, 0.09055514762887176, 0.09245713793573926, 0.09440443269907484, 0.09637511189585006, 0.09830913881239035, 0.10036038657096376, 0.10244336564118244, 0.10464763492141971, 0.10678481785297662, 0.10888619513724204, 0.11110983338535094, 0.11336761429385227, 0.11571380502794663, 0.11803461252373579, 0.12040851772141446, 0.12280474695417025, 0.12524043111742852, 0.127670020527183, 0.13019017401654218, 0.13275743694899125, 0.13535020939428086, 0.13798106649026173, 0.14063991965492184, 0.1433489809112692, 0.1461251896279562, 0.1489073029896688, 0.1517298142145264, 0.1546216796561904, 0.15752138899314722, 0.16044045932815595, 0.16342704597544505, 0.1664540976264888, 0.1694472478531888, 0.17256478175281448, 0.17581589965607095, 0.17899465859526625, 0.18221651295029506, 0.18547497664126245, 0.18878298285541628, 0.19214330793718243, 0.19553382239209494, 0.19896661010111916, 0.20241872344386935, 0.2059383216249406, 0.20950867624688202, 0.21310783047340318, 0.2167480143267949, 0.22039193275436755, 0.22411861315663478, 0.22785295490600901, 0.23166108819842562, 0.23550650124479441, 0.23939782483100758, 0.24331777011444555, 0.24730941652819136, 0.25130253986510503, 0.255336307694987, 0.2593732610800202, 0.2634922594636969, 0.26766970756260566, 0.271861675649488, 0.276092587630943, 0.28037875172354526, 0.28468475781242975, 0.28906090339953927, 0.29344084343052435, 0.29783189294311585, 0.3022949264241784, 0.30679508952387213, 0.31130513609546817, 0.31588182574302176, 0.3204991931668316, 0.32514387077330004, 0.32982297523990334, 0.3345940846740608, 0.3393338018597336, 0.3440502781886023, 0.3488701469866204, 0.3537217213394025, 0.3586253864479391, 0.3635368699454437, 0.3684926702239644, 0.37346587164383993, 0.3784705915242216, 0.3834731012068909, 0.3885430773197949, 0.3936738345941988, 0.3987946657530993, 0.4039442691987348, 0.40910746699842937, 0.41431432320093464, 0.419530488979314, 0.4247905441965332, 0.43007433522466554, 0.4353379741880187, 0.4406732554967177, 0.44601177061697184, 0.45138846544832867, 0.45678349768257853, 0.4622131862243686, 0.46764207508916317, 0.4731307003089242, 0.4785905971184995, 0.484070058324258, 0.4895309124520321, 0.49505132106858246, 0.5005925355025914, 0.5061407234526952, 0.5117025395747798, 0.5172792925170793, 0.5228658071112905, 0.5284409907971627, 0.5340523595642287, 0.5396721759703902, 0.5452770225726328, 0.5509145342153814, 0.5565426052310374, 0.5621914093193549, 0.567843191300688, 0.5735159816452451, 0.5791695929120328, 0.5848191455456124, 0.5904769532892808, 0.5961347882747574, 0.6017897189998804, 0.6074452527341931, 0.6130670297244777, 0.6187200700098807, 0.6243667763112928, 0.6299837121219038, 0.6356184825547183, 0.6412702844056967, 0.6468813360771942, 0.6524827188778238, 0.6580383310469909, 0.6636219161003315, 0.669213661903584, 0.6747644929600133, 0.680300526267814, 0.6857628887825105, 0.6912736442223889, 0.6967984678051952, 0.7022620709020635, 0.7077053771426375, 0.7130881400027488, 0.7184928838829882, 0.7239321057782676, 0.72927763735725, 0.7345996182509292, 0.7397892883334577, 0.7450739605431677, 0.7503707700597595, 0.755582670083372, 0.7607630031431453, 0.7658633482902252, 0.7709838981425132, 0.776092311922055, 0.7811352848644807, 0.7861415290631633, 0.7911039687825923, 0.7960348930861493, 0.8008309676375287, 0.8056935012743502, 0.8105091491073637, 0.8152653554452995, 0.8199882321135112, 0.8246978960970074, 0.8293192833243223, 0.8338935212091535, 0.8383867507269664, 0.8428684817848683, 0.8472760224178371, 0.8516571235424815, 0.8559842474236122, 0.8602610190187703, 0.8644780793942994, 0.8686521011010644, 0.8727560163950537, 0.8768037646888454, 0.8807986270220052, 0.8847309507421102, 0.8885654837434488, 0.8923848377552733, 0.8961416716536471, 0.8998354109169829, 0.9034654507974474, 0.9069608817631045, 0.9104704999909181, 0.9139105300213463, 0.9172829268391584, 0.9205831048559663, 0.9238483905022399, 0.9270037278602083, 0.9300902911845104, 0.9330929075651465, 0.9360416433917034, 0.9388876844349926, 0.9416963883522603, 0.9444305091728717, 0.9471186531911399, 0.949698921610696, 0.9522092841313083, 0.9546403123013465, 0.9569962723807035, 0.9592103790775636, 0.961422669383555, 0.9635667286037642, 0.9656161426161991, 0.9675854938425422, 0.9694952331928378, 0.9713011690934578, 0.9730026912978184, 0.9746521207181976, 0.976219715119487, 0.977707348405415, 0.9791104250809906, 0.9804084483909539, 0.9816495477896038, 0.982806618316365, 0.9839705835742206, 0.9849480025588401, 0.9858009043459416, 0.9866252023881042, 0.9873664209666491, 0.9880243094296562, 0.9885986487849042, 0.9890313734071253, 0.9894453985031687, 0.9897721521020678, 0.9900595423449835, 0.9902068101509481, 0.9902250143339442, 0.9902107659406524, 0.990110230646125, 0.989967156310787, 0.9896895632015276, 0.989314628864669, 0.988873079447627, 0.9883478008936851, 0.9877327427499539, 0.9870412639346462, 0.986286896286842, 0.9854259516860426, 0.9844831569426221, 0.9834007676527371, 0.9823020277435034, 0.9811166334702074, 0.979849687024188, 0.9784994261841792, 0.9770375907094007, 0.9755263772387381, 0.974000422407266, 0.9723155431554343, 0.9705532360933582, 0.9686972167146904, 0.966782943263583, 0.9647725920855106, 0.9627062293186796, 0.9605623828250826, 0.9583066103718371, 0.9560143345250389, 0.9537149835196681, 0.9512601027955787, 0.9487337657087613, 0.9460660672055012, 0.9434068787109626, 0.9407169715851172, 0.9379051242392696, 0.9350216579041057, 0.9320716514796031, 0.9290533680628864, 0.9259840917743097, 0.9228294275075767, 0.919570445667725, 0.9162913363972544, 0.9129463681534642, 0.9094931946832407, 0.9060251753833927, 0.902502362020364, 0.8989041717477025, 0.8952441758027997, 0.8915256676538414, 0.8877454540337562, 0.8838720210009126, 0.8799812391119565, 0.8760326885865922, 0.8721021914676373, 0.8680328766641574, 0.8638685967296672, 0.859706750667735, 0.855494306760691, 0.8512179499914115, 0.8469095980280842, 0.8426008283414731, 0.8381918057736872, 0.8337399974939689, 0.8291780415326022, 0.8246518760216407, 0.8200693547019205, 0.8154583518465591, 0.8108056633564319, 0.8061438224590087, 0.8014083814858179, 0.7965919774199953, 0.7917924731882622, 0.7869572549798024, 0.7821250598731758, 0.777218255891688, 0.7722843571251782, 0.7673200820635677, 0.762328995541089, 0.7572998053492425, 0.7522600025873735, 0.7471960467702745, 0.7421091708024653, 0.7370006019073492, 0.7319087693811569, 0.7267557728200406, 0.7215310152666633, 0.7163540856610001, 0.7111599297362446, 0.7059458370127913, 0.7007219932132273, 0.6955406884607449, 0.6902846227609118, 0.685021146764972, 0.6797470052252169, 0.6744719015575559, 0.6690968045349777, 0.6638249070124617, 0.6585447857158485, 0.6533367887404888, 0.6480356070324602, 0.6427026998230931, 0.6374093395693146, 0.6321173767326661, 0.6267867107962442, 0.6215064700595165, 0.6162186293068741, 0.6109466768618899, 0.6056798415696443, 0.6004278703530512, 0.5951745988060323, 0.5898856904503307, 0.5846590882292834, 0.5794422180062461, 0.5743358304186794, 0.5691303959729573, 0.5638722803039067, 0.5587158417944728, 0.5535760813910415, 0.548427298175277, 0.5433277613855015, 0.5382881234082474, 0.5332217429210179, 0.5281787153659815, 0.5231929326025109, 0.5181948760228957, 0.5131707115319132, 0.5082352438687645, 0.5033254633872053, 0.4984919758188373, 0.49363024898054075, 0.48873992808908184, 0.4839489736218902, 0.47918700755921667, 0.47445090249727134, 0.46975040817449387, 0.46507741559825927, 0.46044162080275036, 0.4558389963882416, 0.451253859561676, 0.4467221849982501, 0.44226032824322337, 0.4377944326364904, 0.4333668676864777, 0.4290008548557386, 0.4246485180964443, 0.42030000282169333, 0.4160346977948417, 0.41180888537480353, 0.4075942164067289, 0.4034527861285843, 0.39933643234814376, 0.39527665637816595, 0.39125702395794126, 0.38728240951399984, 0.3833446988239296, 0.3795052090451844, 0.3756457926152156, 0.3718329323090508, 0.3680397480250037, 0.36432338759838545, 0.3606644950656369, 0.35703694244655876, 0.3534556215737763, 0.3499123707551923, 0.34642487194571864, 0.3429358978014244, 0.3395466946463391, 0.33620117391414694, 0.3329163696068829, 0.3296575506275627, 0.32644671175594064, 0.32327964108689455, 0.3201589311289327, 0.31710328347693784, 0.3140732076167409, 0.3110907441194191, 0.308155757854542, 0.3052681071083056, 0.30242764296225993, 0.29963420871792956, 0.29689384054878054, 0.2941931782941218, 0.2915393722403061, 0.2888949728950483, 0.2863388522173216, 0.2838102228502553, 0.28134429022177887, 0.2789214968328967, 0.27655020067285957, 0.2742128548692686, 0.27191715434839, 0.26966736555046666, 0.2674608798842441, 0.26527684645185245, 0.26315900692492733, 0.26108060666435534, 0.25904593547317273, 0.25705239618498776, 0.25512461407850173, 0.25320962238843303, 0.2513737017112096, 0.2495372399232391, 0.24774373554542503, 0.2459469063119636, 0.24424267569812522, 0.24257238243939339, 0.24094445656639563, 0.23935362367915378, 0.23782844738307646, 0.23630699072030215, 0.23481271650878266, 0.23336692426813327, 0.23195672313828594, 0.23058773635030658, 0.22924619589551554, 0.22795125207291317, 0.22667589330100277, 0.22543414984535973, 0.22423975720875464, 0.2230612271627796, 0.22183641464344256, 0.22073153366464357, 0.21965290608608534, 0.21863346649986012, 0.21760268912888606, 0.21656015761861605, 0.21558881739997596, 0.21464164406673059, 0.21373076412088862, 0.2128294798057723, 0.21198929542325473, 0.2111305839790595, 0.2102968131771788, 0.20950160106043378, 0.2087133470578379, 0.2078718662012161, 0.2071388756886812, 0.20642304625002744, 0.20573860273412406, 0.20505448038618967, 0.2044515259079692, 0.20379297924427014, 0.20309208261489844, 0.20247964232511215, 0.2018813149770695, 0.20128836268411135, 0.2007178750585579, 0.2002091717988464, 0.1996562991257286, 0.19911743757663203, 0.19853587253046828, 0.1980294096678333, 0.19756634772114834, 0.1970715981971573, 0.19658632089770356, 0.19604573321889954, 0.1955854028580562, 0.19520948822706294, 0.19474641300999176, 0.19429130396450667, 0.1937853837398199, 0.1933508650607255, 0.19292261469591032, 0.19249151725485905, 0.19206211108465845, 0.1916298557908003, 0.19120312076098436, 0.19079725349813373, 0.19036788804751642, 0.18993904504831308, 0.18948738735248216, 0.1890606784435545, 0.18870173601924745, 0.18826073650415107, 0.18782040290747737, 0.1873053619118502, 0.18687295567502824, 0.18650669730293357, 0.18605256394423714, 0.18559590552281147, 0.18506356910299213, 0.18460864525887596, 0.18422342791373567, 0.18374081852925134, 0.18325360582992975, 0.18272589496425068, 0.18223171123829487, 0.1817371230146136, 0.1812242348210857, 0.18070252067648374, 0.18012407802700484, 0.1795896602854232, 0.17903238532978175, 0.178474303545406, 0.17790323397772626, 0.17731720580680319, 0.17672067614029702, 0.17615464028149688, 0.1755268156579105, 0.17488853303965743, 0.17420428104900126, 0.17354843719292448, 0.17288532696484174, 0.17220174951192513, 0.17150501127833034, 0.17078675749228547, 0.17006448198621577, 0.16935312374774095, 0.16859991699963067, 0.1678341689263641, 0.16709905892546392, 0.16630207640272568, 0.16547990108488805, 0.16466279014605878, 0.16383318554694504, 0.16297221193789058, 0.16211919661792068, 0.1612664144762046, 0.16038308656207884, 0.15948632670266036, 0.15859257120239661, 0.15766658351445864, 0.15671133525483597, 0.15576183388192086, 0.15479840666406006, 0.15379423316815943, 0.15280652220426358, 0.15178497601897387, 0.1507694673946151, 0.14973829695458457, 0.14871670792452768, 0.14765236512129312, 0.14660185901015446, 0.1455082134422375, 0.14440337692573887, 0.1432935122039754, 0.1421654279271796, 0.140954136302578, 0.1398134831534785, 0.13865795079026566, 0.13755433321195848, 0.13636257913857586, 0.13516147387891322, 0.1339510146550488, 0.13273123363350503, 0.13144018342466088, 0.13020982178648907, 0.12895453468880816, 0.12770133886590038, 0.12643617256758355, 0.12519897929540805, 0.12390687114250043, 0.12259654391944419, 0.12129021202827, 0.11997589910399648, 0.11864567409756188, 0.11731745386604439, 0.11601900138013788, 0.11467159769923971, 0.11331963352266278, 0.11194252351148608, 0.11058433885191035, 0.10921457942437003, 0.10784676921512835, 0.10647391591837008, 0.10516255951309075, 0.10377243653080624, 0.10234495050197362, 0.10095907559333532, 0.09957073258602239, 0.09818640032836917, 0.09679318570371248, 0.09534085153320891, 0.09395274038823247, 0.09256069502841613, 0.09122749377310974, 0.08982199493652115, 0.08840787773525399, 0.08700726652417407, 0.08560811488968934, 0.08420450608677854, 0.0828099235798096, 0.08138013520526587, 0.07999462680318724, 0.07860976827206939, 0.07730891174302765, 0.07591687240085362, 0.07452582669576062, 0.07314886751307527, 0.07177862325165918, 0.0703820819548605, 0.069029670005395, 0.06765967172232865, 0.06632086533479105, 0.06498678342727085, 0.06362081574746173, 0.06230264741187305, 0.06104256125453133, 0.05972708724378369, 0.05842053123015196, 0.05710662008071543, 0.055820783521950995, 0.05458920946711263, 0.05331559998323644, 0.05205411888072922, 0.05074896205942784, 0.04951884492808519, 0.048306102040308385, 0.04709369003467613, 0.04589189069645781, 0.0447610546551327, 0.04357409850369782, 0.042400208963583215, 0.041243647364567586, 0.04010187809820277, 0.03894592594768349, 0.037837322654096506, 0.036673656363584564, 0.03560025673714874, 0.03453672891694104, 0.033539693970288116, 0.03249120817277486, 0.0314227944436521, 0.030409326487900384, 0.029409396840857298, 0.028452370820921502, 0.027477099590743986, 0.026483016921578027, 0.02554493203966345, 0.024621374581040915, 0.02371891080911905, 0.022824681913052723, 0.022000057828834886, 0.02113096837829173, 0.0202811577060078, 0.019419356457852442, 0.018611267377939132, 0.017840696038381572, 0.017063765269795313, 0.01630498963794688, 0.015624211148747754, 0.014893872586531296, 0.014102102952902939, 0.0134241722104913, 0.01281349948876801, 0.012160442783165833, 0.011526328693129962, 0.010840651410657012, 0.010252657191721115, 0.009707997871324018, 0.00914554458137393, 0.008599873406372768, 0.00805245325049376, 0.007542899135835977, 0.00711333017083315, 0.006627661680460727, 0.006161812706517969, 0.005715380265560696, 0.005287997494969881, 0.0048772624970539425, 0.004487264150192667, 0.004115276249392369, 0.0037569211326393182, 0.0034207628433663754, 0.0030789622047076477, 0.002779701719670612, 0.002495930872211727, 0.00225454648489689, 0.0019984129566236832, 0.0017179533975190215, 0.0015008302653559615, 0.001297918348862504, 0.0011568636468517353, 0.000976639786828329, 0.0008155730865884197, 0.0006688945064433, 0.0005386954667803475, 0.00035847851202790436, 0.0002685644768445151, 0.00027722970496020337, 0.0002000910041414915, 0.00013998595067593177, 1.7791094591282526e-05, 0.0, 1.8032098642678243e-05, 1.9308358799189804e-05, 3.327899012484112e-05, 0.00012389566549653096, 0.00015475581265677628, 0.0001684055634963148, 0.00023448592796229128, 0.0003132512534180092, 0.0003981774341677117, 0.0005021364107420374, 0.0006505607757717708, 0.0007728723049550179, 0.000907930294332305, 0.001003540274593599, 0.0011691026496988884, 0.0013451162109714557, 0.0015271682390568522, 0.001717656801662068, 0.0018834193268701942, 0.002094671157208214, 0.0023473089858226594, 0.0025667244658333518, 0.0027945373522504403, 0.0030387530621689266, 0.00328152137677221, 0.0035158102706717045, 0.003776439496765645, 0.004043514283367911, 0.004337502967601188, 0.004614236298300389, 0.004933072955718101, 0.005218889018060282, 0.005512851040448735, 0.005746086712164843, 0.006063032540768328, 0.00636177962470413, 0.006686295568407553, 0.007012114819227567, 0.007403430013259345, 0.007724047398656847, 0.008035296956205383, 0.008367415741813026, 0.00870279107168517, 0.009078271621460483, 0.009414391282978251, 0.009783750762632416, 0.010124186642633976, 0.010469340270248604, 0.010750227969466165, 0.011111196524225023, 0.011475071593143388, 0.011833022831666547, 0.012189881375350856, 0.012611685733190095, 0.012957663288329549, 0.013283170849645266, 0.01363589195138307, 0.013988330357727445, 0.014333913446189518, 0.014685481914473096, 0.015045715481728224, 0.015392385585401564, 0.01573747617728474, 0.016130287454904583, 0.016465040513041724, 0.01685180972566282, 0.017180059847433836, 0.01751031887689343, 0.01781477732514371, 0.018149744300628056, 0.018468236573765524, 0.01880058804931391, 0.019129304125730773, 0.019505839334578258, 0.019820111592920835, 0.020211607798921602, 0.020512734703516465, 0.020815885411627662, 0.021068321235268143, 0.021379002099324834, 0.021727354079454624, 0.022025188334281232, 0.022321160672444433, 0.022623016313694004, 0.02291272867254176, 0.023303053732878953, 0.02357384021296589, 0.023846995519478685, 0.024073890906235705, 0.02435468997706532, 0.024665450555448675, 0.024935558060302038, 0.0252038997906645, 0.025494847756298848, 0.02575530664916594, 0.026063943029424743, 0.02631485634745007, 0.02656638634329642, 0.026778607890005274, 0.02703449879349355, 0.027347126475924802, 0.027588996418649023, 0.027831013060971452, 0.028124424528965627, 0.0283590081576976, 0.02859562059549342, 0.028833665915220616, 0.0290726646480181, 0.02934324721290933, 0.02957919897001555, 0.029893467297241162, 0.03012304441954462, 0.030358094483402088, 0.030579205770813404, 0.030825281689454073, 0.031051065342184925, 0.03130465835135918, 0.03155901318509714, 0.03187831171646871, 0.032126445094541885, 0.0323793821747483, 0.03263683577229859, 0.03289861358755291, 0.033216284131876384, 0.033479927800109, 0.033769291948075666, 0.034044494173781886, 0.03432731426221061, 0.034588535814881624, 0.034889517819224926, 0.03523729102260962, 0.035544169103308966, 0.03585930439535254, 0.03614752420456314, 0.036483590527608495, 0.03690873319683443, 0.03724757486785919, 0.03759834797466629, 0.0379877274343621, 0.038358467550283944, 0.038682378520524016, 0.039086763119177546, 0.03950065878199166, 0.03999276687737451, 0.04041853791847542, 0.04084467908235035, 0.04130192901776888, 0.04177322114501354, 0.042312525363353976, 0.04280583001931352, 0.04327565792635472, 0.04380982934031754, 0.044359449842738145, 0.04491044997847336, 0.04549402210243198, 0.04610796938707552, 0.04672210199208952, 0.047354109434326906, 0.0480416601931488, 0.04870611009407345, 0.04940641289285119, 0.050111994955607475, 0.05082160252353157, 0.05157495639180665, 0.052350267232212366, 0.053147938149153154, 0.05396839171793571, 0.0548637436412577, 0.05572456084210038, 0.05661241935634817, 0.05750050773450509, 0.05844608695057921, 0.059415485363639074, 0.06041353400818772, 0.06143823840085904, 0.06253141817302578, 0.06360565026715188, 0.06466483994173068, 0.06580585155977137, 0.06697511599215655, 0.06817324530134192, 0.06940083983098615, 0.07068329288464868, 0.0719684358377471, 0.07328616706224252, 0.07467818228686562, 0.07605694032689915, 0.07745517246375884, 0.07890809874885402, 0.08039626868131285, 0.08191376155646289, 0.0834740651686263, 0.08504329355496885, 0.08667897120910309, 0.08834970978236487, 0.09010986160764084, 0.09184572888477353, 0.09358215319391283, 0.09540275473813445, 0.09726122792913791, 0.09916632257619452, 0.10110092285089602, 0.10308352531035178, 0.10509691711853335, 0.10715123820360208, 0.1092199051820842, 0.11136034759166029, 0.11354107524537792, 0.11576258882351022, 0.11802535854027786, 0.12040217284113423, 0.12273960479690607, 0.12510292713629778, 0.12753587740394762, 0.13001384327793863, 0.13252653041803164, 0.13509597392570533, 0.13769762089027224, 0.14035800957016065, 0.1430626369012281, 0.14582003082799797, 0.1486128522041316, 0.15148624451947215, 0.1543656275877794, 0.15729269093589832, 0.16021146698622643, 0.16324050145494862, 0.16631161726769053, 0.1694295650009196, 0.17259221358417084, 0.1758184570506332, 0.17906898741513766, 0.1823701526459627, 0.18571319135062728, 0.18910300729251397, 0.1925354333742089, 0.19601921690155613, 0.19953494488062531, 0.20311335242503936, 0.20673727932311342, 0.2104357152975717, 0.2141471443756101, 0.21788304238119469, 0.22169149084564302, 0.2255453350462656, 0.2294858335588377, 0.2334249712399829, 0.23736396578513527, 0.2414034304587924, 0.24548668123424144, 0.24963225787501445, 0.25380050352994427, 0.25803602581580426, 0.2622901649423509, 0.26658948953499323, 0.2708673402718804, 0.27526386986567825, 0.2797768446995706, 0.28424367737300493, 0.28875479469385024, 0.293247496649368, 0.29785298213665923, 0.3025324131335561, 0.3072109359059358, 0.31192992611095166, 0.3166454682623615, 0.3214493523076897, 0.326376538950687, 0.3312422360793053, 0.3361488744378597, 0.34101072367636387, 0.3460070581992437, 0.35108016148908217, 0.3561375375509542, 0.36123027027580307, 0.3663143002284971, 0.3714812744874853, 0.3766998660464331, 0.3819257966076562, 0.38718313520864794, 0.3924878293667566, 0.3978041028974641, 0.40312400460908904, 0.40850388661559917, 0.41391117882780276, 0.419308093061386, 0.42477313458648874, 0.4302988679649462, 0.4358058030392163, 0.4413375044119381, 0.44688697916851816, 0.45246660613499384, 0.4580413577532934, 0.4636675880815351, 0.4693127129645706, 0.4750009278828071, 0.48067883406829087, 0.4864122782114525, 0.49212121266183684, 0.49784869905725904, 0.5035314806531733, 0.5093002056655901, 0.5151237601365801, 0.5209091712610459, 0.5267070625002099, 0.5324543262074359, 0.5382817390500277, 0.5441624309874539, 0.5499947312941648, 0.5558342301931002, 0.5616385218452297, 0.5674944516790307, 0.5733624032982081, 0.5792196685951705, 0.5850776977569511, 0.5908777208606587, 0.5967418949381772, 0.6026111741255258, 0.6084630893579591, 0.6143092957546478, 0.6201242707355913, 0.625959991178679, 0.631775974491671, 0.6375935422412584, 0.6433997554573491, 0.6492331998311713, 0.6550096143343341, 0.6607353693092273, 0.6664928170416915, 0.6722343502299992, 0.6779797910740821, 0.6836842978618091, 0.6893424549696147, 0.6950146821628526, 0.7006656358035724, 0.7062572161358632, 0.7118676177918313, 0.7175077012245503, 0.7230581143871908, 0.7285841255532917, 0.7340845055369378, 0.7395580374106228, 0.7449683767652259, 0.7503890546900688, 0.7557773370164639, 0.7610641269063494, 0.7663935682865758, 0.7716592651041496, 0.7769135693684237, 0.7821266730721693, 0.7873354354276939, 0.792460301918153, 0.7975778308093192, 0.8026168129713745, 0.8076154546701033, 0.8124857507340869, 0.8174111399941187, 0.82232087742857, 0.8271441994226425, 0.831919712579644, 0.836650721814672, 0.8413275885049506, 0.8458840591914625, 0.8504686728386721, 0.8549974083914689, 0.8595174606335504, 0.8639273171463049, 0.868183503649914, 0.8724960907266915, 0.8767261661749217, 0.880917576562831, 0.8850456766328283, 0.8891496238770483, 0.8931456961002983, 0.8970965851691313, 0.9009664536861838, 0.9047741626551622, 0.9084341197114708, 0.9121257008816896, 0.9157767931660943, 0.9193257199818518, 0.9228064900085632, 0.9262496002752801, 0.9295885849143943, 0.9328099472888445, 0.9360183610581886, 0.9391543632437622, 0.9422093088408925, 0.9452003757509819, 0.9480822206302468, 0.9509291902735644, 0.9536993328308049, 0.9563677134252374, 0.9589869008794696, 0.9615108097246565, 0.9639745544289512, 0.966358479136175, 0.9686584387700767, 0.970883160678943, 0.9730235138798186, 0.975088177471681, 0.9770721164023551, 0.9789607204022317, 0.98078459073995, 0.9825367644324366, 0.9841951779558792, 0.9857719423417811, 0.9872854478151593, 0.9886959181980234, 0.9900685444643911, 0.9913106587480648, 0.9924732556367275, 0.9934915949608468, 0.994501344127724, 0.9954096632556102, 0.9962517664288216, 0.9970081432356916, 0.9976769020532599, 0.9982625976457006, 0.9988228776097309, 0.9992304293735569, 0.9995562903098605, 0.9997546492737193, 0.9999219298328162, 1.0, 0.9999978484058987, 0.9999107886421219, 0.9997328616689894, 0.9994774999377475, 0.9991169513765645, 0.9986954794816272, 0.9981889514143587, 0.9976329890285605, 0.9969533369092279, 0.9961465315116617, 0.9953094395304325, 0.9943884804118194, 0.9933573738063698, 0.9922738352285028, 0.9911810626012674, 0.9899215867777355, 0.9885841410685099, 0.9871522973786494, 0.9856613790252435, 0.984065166937809, 0.9824211888021176, 0.980698080580665, 0.9788985647088273, 0.9770188996422811, 0.9750642512661505, 0.9730308641622919, 0.9709218286838336, 0.968735714195294, 0.9664775628132762, 0.9641001124084004, 0.9617007487697731, 0.9592263900786266, 0.9566905099375261, 0.9540677724556544, 0.9514296622216826, 0.9486583848323606, 0.9458208145429731, 0.9428326227281191, 0.9398744961408887, 0.9368508689118079, 0.9337541975048983, 0.9305905757490625, 0.9273880102159843, 0.9240904668927427, 0.9207783489939272, 0.9173514086943222, 0.9138667261197694, 0.9102896488749115, 0.9066954463009536, 0.9030659018951331, 0.8993535994363877, 0.8955863731391461, 0.8916843821681557, 0.8878198578639263, 0.883974788685033, 0.879988059221138, 0.875951576581452, 0.8718020636986163, 0.867676615868007, 0.8635106588684729, 0.8592836269066916, 0.8550091165484348, 0.8506945874564336, 0.846328092876798, 0.8418541103837609, 0.8374100580880354, 0.8329213112023598, 0.8284060678525011, 0.8238307576108506, 0.8192619431678633, 0.8146042689117308, 0.8099128245561881, 0.8050955111785708, 0.8003510634655647, 0.7956221165287514, 0.7908005061900588, 0.7859489887472428, 0.7811059331085032, 0.7761933728970513, 0.771223378306619, 0.7662671141974803, 0.7612863383511929, 0.7562863474971461, 0.7512595061753273, 0.7462304559258197, 0.7411607480123671, 0.7360734918697555, 0.7309696470040407, 0.7258501908477295, 0.7207285192880011, 0.7155792674821385, 0.7104181226496254, 0.7052005417037002, 0.7000241789200372, 0.6948444985715928, 0.6896452741771477, 0.6844376077866751, 0.6792103262202189, 0.6739910129113919, 0.6687703286194859, 0.6635407586629706, 0.658308439997287, 0.653012549490162, 0.6477861190323698, 0.642552830320019, 0.6373231022988177, 0.6320935944635325, 0.6268472119182784, 0.6216249515652369, 0.6164640642159872, 0.6112429402846935, 0.6060314144597132, 0.6007786701474277, 0.5955954512597021, 0.5904566417754288, 0.5852887854173094, 0.5801346489261173, 0.5750157818349899, 0.5698890975212696, 0.564697215274372, 0.5596166344519949, 0.5545502693078659, 0.5495325564866792, 0.5444944563826365, 0.5394390909062224, 0.5344464670372174, 0.529473448235752, 0.5246017877871357, 0.5196611412048372, 0.5147519991425107, 0.5098658972247375, 0.5050080855212988, 0.5000941731013059, 0.4953047628497786, 0.4905813899231338, 0.48583726381285064, 0.48112232621246726, 0.4763607565299336, 0.471715832479031, 0.46710600935110996, 0.46251493545066, 0.4579535273399884, 0.45345584658613847, 0.4489524857629338, 0.4444834124203546, 0.4400491595110943, 0.4356709100292783, 0.43130520222785246, 0.4269769545356168, 0.4226492500988142, 0.41840150065796244, 0.4142416782630346, 0.4100604909351217, 0.40591960590924187, 0.40177365394831677, 0.3977194594452657, 0.39372818914669105, 0.38974761446791556, 0.3858075497444668, 0.381873103272485, 0.378019238985212, 0.3741901653496915, 0.37041715714436824, 0.36668356537556895, 0.36300232880282035, 0.3593475574222257, 0.35568887534236293, 0.35212326939856864, 0.3485972179027497, 0.3451939947939385, 0.3417383002409674, 0.33827461923477037, 0.33491695949590744, 0.3316015175075467, 0.32834090105062286, 0.3251089081341568, 0.32194514839665467, 0.31879688481306684, 0.31569344302508756, 0.31259119267195257, 0.3095822260087141, 0.306623273596065, 0.3036969032693535, 0.3008130031308458, 0.2979591781883495, 0.2951617826009894, 0.29241230785706424, 0.28969760084204066, 0.2870249937351267, 0.2844192083454273, 0.28182739266632184, 0.2792580805546797, 0.2767548778319209, 0.2742929964945505, 0.2718784636768697, 0.2694979007958957, 0.2671480963638703, 0.2648507519546728, 0.26259336021043084, 0.26031783179936424, 0.25814700810988334, 0.2560494020172506, 0.25394609204933977, 0.2518812000907139, 0.24980487204341845, 0.24782232923712386, 0.24594695967321342, 0.24402500654934725, 0.24214203995129926, 0.24025609011583657, 0.23845445294888853, 0.23665663428925687, 0.23492831014932822, 0.23323252730311964, 0.23161056081629514, 0.22997437865521117, 0.22835615863733796, 0.2267905116873665, 0.225257328894567, 0.22377065832006385, 0.22229929333045764, 0.22084955582444735, 0.21944283926793368, 0.21806633970770126, 0.21666374956146514, 0.2153532405135371, 0.2141365123815962, 0.21286844256148466, 0.21162956274215866, 0.2103881290768947, 0.2092093534523333, 0.20807653653387698, 0.2069452843373796, 0.20583958468457472, 0.2047195258133312, 0.20366799090578272, 0.2026151742319676, 0.20160912332813968, 0.20062261336719198, 0.1997257406822329, 0.1987688264455566, 0.1978367707548037, 0.19692429688876226, 0.1960330032404291, 0.19514965726401415, 0.19429983343741078, 0.19344122444832487, 0.1926303287265868, 0.19183473839134127, 0.191082989110548, 0.1903131251308141, 0.1895713372895077, 0.18883057463986153, 0.18810484386542975, 0.18740373787505477, 0.18670456534927762, 0.1860023240529581, 0.1853314308213485, 0.1846716158805855, 0.18401819328710922, 0.18337941285067633, 0.18270231225296024, 0.18208749845589733, 0.18147826559780067, 0.1809117229354121, 0.18030861135575676, 0.17971068425603362, 0.1791218250058679, 0.17853908414966174, 0.17789170029118614, 0.1773286425340283, 0.17683867597463362, 0.1762680577905977, 0.175702376604726, 0.1751244911975271, 0.17456898182102792, 0.17397645574854875, 0.17343001548379994, 0.17288280737318537, 0.17236161144892986, 0.17180915892840512, 0.1712901409525664, 0.17073382770303988, 0.17017893092399805, 0.1695462419398845, 0.1690021657125605, 0.16844909271392355, 0.16789589030852695, 0.16733769826184394, 0.16682827974934544, 0.1662533314314678, 0.16569288770541993, 0.16511126521243022, 0.16452752686117827, 0.16392246978770056, 0.16333509510678815, 0.1627408164918587, 0.16214369543407497, 0.16154096867794443, 0.16088894049691685, 0.16027964029205582, 0.15969247779518717, 0.15906161842649566, 0.15842379433030043, 0.15777879479627854, 0.1571264163811807, 0.15644992684344566, 0.1557843020970759, 0.15510980726462348, 0.15438919712966584, 0.15370154394136268, 0.15309167947147806, 0.1523708413682917, 0.15164434253534875, 0.1508599604726758, 0.15012709414531153, 0.14943794292229487, 0.14867825629063594, 0.14791161533990907, 0.14711900704715294, 0.1463396321918655, 0.1455594479472435, 0.14476075408937325, 0.14395323139151386, 0.14310159660799668, 0.1422804563426413, 0.1414750359426933, 0.14062840869797427, 0.1397725529050832, 0.13888883836437088, 0.13801681446262046, 0.13714895690369544, 0.13625466793450156, 0.1353512244939122, 0.13446967875329188, 0.13354415708308753, 0.13251424375813645, 0.1315863567325978, 0.13064548034418752, 0.12974398109868954, 0.1287725997736807, 0.12783435928820794, 0.1268414564516746, 0.12584289292399217, 0.12479091466562602, 0.1237864539886363, 0.12277730427731465, 0.12175497803815803, 0.12072465714163949, 0.11961424529053848, 0.1185778305568195, 0.11761485135728812, 0.11654591647472091, 0.11545339263513378, 0.1143768409582208, 0.11329428904871673, 0.11219560206677805, 0.11110296106191095, 0.10999608289628428, 0.1088928432487006, 0.10778375164282672, 0.10670016208650768, 0.1055764780835918, 0.10438974567335732, 0.10326749893274445, 0.10213893789494129, 0.10106666497032911, 0.09991936639900129, 0.09876882168493563, 0.09761940978310046, 0.09646870303432949, 0.09528575941096157, 0.09413660045126503, 0.09298880705527374, 0.09183397191929783, 0.09067735603858015, 0.08956889755583837, 0.08840342928595851, 0.0872337359256511, 0.08607292148009504, 0.08491361673369853, 0.08369386576373705, 0.08254561978857056, 0.08145353945257679, 0.08029519112124377, 0.07913961882027155, 0.07795178224216617, 0.07680652930890368, 0.07572446441499558, 0.07457417424783223, 0.07342942520655006, 0.07223019268336188, 0.0711039126843729, 0.0699776400392993, 0.06885629982824865, 0.06773795111859379, 0.06664996162982224, 0.06553566200668773, 0.06437766954579939, 0.06328168786206625, 0.06218927088533426, 0.06113825063554976, 0.0600500896215384, 0.05896932801426973, 0.05789617080279357, 0.05683082670443, 0.05573630044477594, 0.05469192448347011, 0.05373453047828744, 0.05269321177383879, 0.051663781167609425, 0.050643971535895956, 0.049638028921296186, 0.048556588426754005, 0.047584212441396274, 0.046618222000539986, 0.04566759935380518, 0.044715416211277885, 0.04380718852903431, 0.04286867485171508, 0.04194187398046749, 0.04106411982353001, 0.04015642461334705, 0.03916370265263582, 0.038296772814824125, 0.03743817800234836, 0.036700245894365775, 0.03584625968216804, 0.034979855312039856, 0.03416219198659595, 0.03335873059323825, 0.0325343003184455, 0.03176361247183686, 0.030982379484412445, 0.030239253459512016, 0.02950762506171992, 0.02876933148675306, 0.02806432999520855, 0.027368912660889203, 0.026687947333817207, 0.026019410345258828, 0.025438106116726103, 0.02478614358316363, 0.02416216221386926, 0.02354385510708779, 0.02294315576191862, 0.022334924708227337, 0.02177161605504401, 0.021231912321561724, 0.020698212885124672, 0.020180282652182607, 0.019626370755071853, 0.01914630119834511, 0.018732654462160235, 0.01827151970305018, 0.017826778558642908, 0.01736934629305562, 0.016960629595544254, 0.016582827253934732, 0.01620090436897648, 0.01583452654978001, 0.015481586755311541, 0.015146440704015487, 0.014816268578173277, 0.014513023268738405, 0.014224454760033782, 0.013960949745216533, 0.013700568089727843, 0.01347002511889516, 0.013238480827332689, 0.013022972919795478, 0.01279850538898132, 0.012617644749152262, 0.012479828325292878, 0.012323559616783036, 0.01218308350945141, 0.012072644105810921, 0.01196126207310422, 0.0118575814508137, 0.01177887992692648, 0.01171509934688803, 0.011661912455495988, 0.011627927133327312, 0.011606012999158368, 0.011600431421971471, 0.01160860567796021, 0.011580811670746946, 0.011622423943017551, 0.011689126921971783, 0.011750429397052276, 0.011823666866224209, 0.011935771522054139, 0.012029633674993557, 0.012128767329634124, 0.012250518985804124, 0.012384880367874822, 0.012579233856409388, 0.01273231938634504, 0.012862983048648208, 0.013049788786342739, 0.01324822645505883, 0.0134167826313805, 0.013643192408821251, 0.013967274773194819, 0.01420017908903608, 0.014447126772508475, 0.01465373260690449, 0.014933690330817307, 0.015243575444441744, 0.015539368344080958, 0.015845433605292777, 0.01612017084763163, 0.016451238225212796, 0.01678950328817266, 0.017135060283747946, 0.017487967500234507, 0.017846183484010507, 0.018214099648607523, 0.01864298425856678, 0.019018517038626493, 0.019404191105925832, 0.01979742469831089, 0.02020213340417047, 0.020640229354753254, 0.02105856437375891, 0.021486093134730953, 0.021870583496352958, 0.022321410898521334, 0.022760457389023787, 0.023222867004751027, 0.023689045571397727, 0.024157002602556425, 0.02463117770352348, 0.025117409473282424, 0.025598120963053056, 0.026083068848317188, 0.02662795307022732, 0.027113973170979345, 0.027592525350087892, 0.028093786276910754, 0.02860010098518019, 0.029131755597050328, 0.02964443602847435, 0.030135378081772086, 0.030661240786149756, 0.031189804167038745, 0.03174154798016803, 0.032272332383177955, 0.032775415599461115, 0.033316387974827236, 0.033858266384360444, 0.03444648086115961, 0.03498427545072459, 0.03552949636318215, 0.03607291381410623, 0.036563205173806373, 0.037118648100481585, 0.03767287846632442, 0.03826735275797428, 0.03881425002730824, 0.03941006504479603, 0.039953412347580194, 0.04050024574057229, 0.04101892957203042, 0.04157483173282677, 0.04219692730031086, 0.04274436016483648, 0.04329516850844614, 0.04380937980004402, 0.04436989007345865, 0.04494417977020046, 0.04550131682477585, 0.046058268185136496, 0.04662099241760007, 0.04717609064737513, 0.04775551533008378, 0.04830630976329894, 0.0488576236603101, 0.04943803814396231, 0.04998570617405558, 0.05053458146549318, 0.051084201392023736, 0.051634166317112686, 0.052211004985350654, 0.0527572842337942, 0.05332313853221793, 0.0538685871737936, 0.05441527177380352, 0.055018552161636855, 0.05555936976272639, 0.05609100302751127, 0.056639113737540644, 0.05718843007506064, 0.05780675425316328, 0.05834869815062069, 0.058898789087542223, 0.05944747356972145, 0.05999899772374817, 0.060629274296624604, 0.06117520328724714, 0.061745453864299464, 0.06229955479682788, 0.06285874168842484, 0.06344083689453063, 0.06400563709746489, 0.06451674262307562, 0.06509666394501162, 0.06567650992197206, 0.066332881650261, 0.06690329997254835, 0.06755693789945905, 0.06812635875958446, 0.06870413824285002, 0.0692790837146049, 0.06987246978859668, 0.07052111925966718, 0.07111918286792192, 0.07172506796191461, 0.07233820525725276, 0.07295815272206195, 0.07360318497692304, 0.07423351428245432, 0.07487100055624815, 0.0755050973315571, 0.07615765792114117, 0.07684121770492687, 0.07750313440122174, 0.07817289303076237, 0.07886495781132004, 0.07954861634220398, 0.08029276531147186, 0.08098755791081191, 0.08169419951907601, 0.08244342396780568, 0.08316912105961086, 0.08388099035012933, 0.08463590239665332, 0.08540190518676039