0.10137291596200852, 0.10113750456530245, 0.1009279336722506, 0.10071666935465208, 0.10052469772641545, 0.10033852250842418, 0.10014548468859728, 0.0999698798804174, 0.09980237122731475, 0.09963137894128815, 0.09946272583316258, 0.09926989262343897, 0.09910827038854433, 0.09895584860318457, 0.09879319068301977, 0.09863119741342316, 0.09849081958670532, 0.0983275555401689, 0.09814658745516537, 0.09798956241086802, 0.09781356100971504, 0.09766045172776937, 0.09750714182965277, 0.09733952032463408, 0.09718847323225586, 0.09707125898853904, 0.09691586551883792, 0.09676286101054352, 0.09659394422862429, 0.09644811320789386, 0.09631944406352112, 0.09617472985829144, 0.09603272400593674, 0.09591310054236128, 0.09577415482239886, 0.09559203230171928, 0.0954668242748123, 0.09534272265273441, 0.09520433301261114, 0.09508533712635461, 0.09496218003902641, 0.09484635091494333, 0.09473197590107542, 0.09463377770420245, 0.0945214283672401, 0.09443576972900923, 0.0943268127460486, 0.09422251693581357, 0.09412278073769825, 0.09402751702079862, 0.09394712324918521, 0.09385927186168834, 0.09377629600307355, 0.0936339365073367, 0.09356847153275116, 0.09350266282837302, 0.09343974098869232, 0.09337855652794923, 0.09337837473512847, 0.09331427175107133, 0.09326404195708733, 0.09321076758396879, 0.09316354762531709, 0.0931195405520669, 0.09308412224977197, 0.0930003715498831, 0.092982290919444, 0.09296632815965364, 0.09299472891771464, 0.09297875347066101, 0.09294204864786768, 0.09294020843080782, 0.09294221989320545, 0.09291683829978095, 0.0929310182497019, 0.09298833102525483, 0.09300288038777633, 0.09302299463049121, 0.09302902240764475, 0.09306270259261944, 0.09310866721285477, 0.09315037702380567, 0.09319726584371528, 0.09325594943765955, 0.09331257944786409, 0.09336972483993852, 0.09343852905650281, 0.09351281538965345, 0.09360180694254736, 0.09368607999870446, 0.09372940705490529, 0.09383196935521397, 0.0939380348975803, 0.09405583323867237, 0.09416899992078971, 0.09427664907408626, 0.09440124855819652, 0.09453059461648247, 0.09468194582877792, 0.09481933364657867, 0.09499840881992555, 0.09514405120661182, 0.09529807779048981, 0.09541965061435335, 0.09559482200234654, 0.09578718845424214, 0.09597185277237225, 0.09616288145866271, 0.09635375615272841, 0.0965584174841272, 0.09678092864020009, 0.09699631324006835, 0.09721856697431805, 0.09743718152319021, 0.09767439090213993, 0.09787982612390808, 0.0981342620605709, 0.09839286298776047, 0.0986887012878993, 0.09895250028007621, 0.09921798591824939, 0.0994962572331525, 0.09978108836059355, 0.10010128238590107, 0.10039560883094124, 0.10067717494914083, 0.10099027433514347, 0.10130992691300654, 0.1016426530869697, 0.10197451125648786, 0.10230012537636046, 0.10264724816922556, 0.10300032614139765, 0.1033764096406428, 0.10373934137787666, 0.10411580485501659, 0.10449175598117491, 0.10487481604867155, 0.10522293824015796, 0.10562503956883557, 0.1060864265919656, 0.1064904126807946, 0.10690218683586492, 0.10729397032508681, 0.10772394835817692, 0.10815937725722001, 0.10860026137644418, 0.10904659742753671, 0.10948528584137825, 0.10994414193292025, 0.1104233697517479, 0.11088964446571131, 0.11136159583594019, 0.11180641316543397, 0.1122935898710845, 0.11282491598904096, 0.11331428209698177, 0.11380981043783765, 0.11429557644123473, 0.11480477442518476, 0.11530162058228519, 0.11582223985405504, 0.11634644539247983, 0.11686383137659237, 0.11739670629652496, 0.1179523418616869, 0.11848907468645987, 0.11903018053099296, 0.11957946100950362, 0.120128437864381, 0.120676387643578, 0.1212342777743771, 0.12179575251190854, 0.12235545518945815, 0.12292439367934259, 0.12352635214501198, 0.1240972244997651, 0.12467251254670025, 0.12518773197445068, 0.1257789386021202, 0.12638699872121967, 0.12697595871470324, 0.12756612228198158, 0.12819544939340644, 0.12878320476485428, 0.1293624563749147, 0.1299578914610704, 0.13055523892539178, 0.131151655039507, 0.13175248663361122, 0.13233479031424375, 0.13294012713169825, 0.13354509277141013, 0.13411824628322608, 0.1347263406857535, 0.13535834278543846, 0.13595876123295147, 0.13655868230681173, 0.13719986897079414, 0.1377931237739175, 0.13833678938674338, 0.1389389276587543, 0.1395387203858395, 0.14016495267727347, 0.14075635887176394, 0.14131683326684052, 0.14191008791420628, 0.14250023080333613, 0.14308198782957346, 0.14366643359531714, 0.14424206448563448, 0.1448199628490364, 0.14539386666111234, 0.1459728918992041, 0.14653748814486517, 0.14708400620125586, 0.1476428854929641, 0.14819691705031998, 0.148759117903919, 0.1493015645806517, 0.14982392164455163, 0.15035936151008514, 0.1508890829835777, 0.1514326191559825, 0.15194810534196757, 0.15244946845754087, 0.1529558936106592, 0.15346672860741326, 0.15395950127796226, 0.15444638784527884, 0.15493625956959478, 0.15540935292612462, 0.15585267198785402, 0.15631598069998093, 0.15677110008308406, 0.1572009021700334, 0.15764144855950687, 0.15807117927491382, 0.15849287836829237, 0.15890497567911677, 0.15932183669191788, 0.159712793210483, 0.16013668699137293, 0.16050425258383505, 0.16086482213055042, 0.16120608139132775, 0.16155258938290434, 0.1618467709060626, 0.16218015429530908, 0.1625013612691997, 0.1628261655933505, 0.16312120911608466, 0.16342471784679796, 0.1636948140883743, 0.16395458471665372, 0.16417756113446, 0.16441913655574228, 0.1646624959232514, 0.16487699281741636, 0.16507961135700885, 0.16526102075895457, 0.16544054066526226, 0.16559016196626947, 0.16574598725290796, 0.16588780968099484, 0.1660156773095889, 0.16612961802497267, 0.1662754533662524, 0.16635576278613498, 0.16642470210688923, 0.1664452234028538, 0.16649489559859648, 0.16657193319744498, 0.16658726515272085, 0.16659040799876573, 0.16654566261970757, 0.16652785425495675, 0.1664844284648288, 0.16643767371475413, 0.1663752209976097, 0.16629977879086288, 0.1662058545185719, 0.16610576548190017, 0.16598005409482092, 0.16583957221555956, 0.16566724019421597, 0.1654991798609269, 0.1653701853031199, 0.16516344120453788, 0.1649440270416575, 0.1646565858215135, 0.16441767755943473, 0.16422089623772906, 0.16394117688256618, 0.16364833575873453, 0.16329361563780684, 0.1629797134021268, 0.16264125980172425, 0.1622951342625298, 0.1619322137906987, 0.16160114113889046, 0.16119912839850759, 0.1607391198343438, 0.16031551908068914, 0.1598755059338378, 0.1594376012877566, 0.15896302037017154, 0.15844218758270276, 0.15794191109711697, 0.15742506000872175, 0.15697044620197714, 0.15641132693429227, 0.15578583347538513, 0.15521044873777864, 0.15461981035398067, 0.1540638027049974, 0.15343680441341345, 0.15277421529167756, 0.15212587522162296, 0.15146371249254179, 0.1507654993171302, 0.15007859211842314, 0.14942254511717873, 0.14870019282529393, 0.14796595091935685, 0.1471503129065925, 0.1464006971316872, 0.1456873629201053, 0.14489950791231382, 0.14409953545277746, 0.14325344693888678, 0.14243366066644594, 0.14159345913547428, 0.1407471200889448, 0.13988724690438595, 0.13901683592402375, 0.13813067775816767, 0.13726361989300292, 0.1363491638647588, 0.13542474647071098, 0.13445243507040147, 0.13351299260144558, 0.13258254173642162, 0.13161694163643406, 0.13064132912427465, 0.12968206689331752, 0.12868367878173173, 0.1276275780154643, 0.12661951809705727, 0.12560069972709093, 0.12459643849562033, 0.12355427420800656, 0.12248961875883461, 0.12143326975504364, 0.12036838987845071, 0.11932932242453152, 0.11824400632137315, 0.11710848103239227, 0.11601739708262211, 0.11491817526635748, 0.11382433629321899, 0.11270845862620117, 0.11162437198822595, 0.11049163285792013, 0.10935539951423266, 0.10819207650138765, 0.10705176499705703, 0.10589355048814729, 0.10474552153952771, 0.10359245942966694, 0.10243473278538179, 0.10127270042839781, 0.1001525237937767, 0.09897712988462583, 0.0978010285162317, 0.096560044158259, 0.09539055820632059, 0.0942377044307186, 0.09305753387627383, 0.09187536071199454, 0.09071771130552576, 0.08952926030165224, 0.08834391564316678, 0.08715622688480684, 0.08596942590257849, 0.08474830552267457, 0.08356816619272059, 0.08239261971574939, 0.08121099973043142, 0.08002994207608975, 0.07885244641004464, 0.07767331443987105, 0.0765143222425315, 0.07533682707277792, 0.07416281419706146, 0.07296103074954588, 0.07179844765637575, 0.07064464293969275, 0.0694861432250908, 0.06833110703485243, 0.06724401537982792, 0.0660888189550641, 0.06490634195898148, 0.06377152647265442, 0.06264242756633902, 0.0614773397261959, 0.060365515237050235, 0.05932306151662349, 0.05821135011312358, 0.05710827249931754, 0.05594570506196531, 0.05486835200774887, 0.05385332023646257, 0.05277872264924838, 0.05171319834265345, 0.05067510266316064, 0.049625521203410274, 0.048507659938769765, 0.0474884548222748, 0.04647500547621032, 0.045498046588802625, 0.0444941391196468, 0.043492866832971, 0.04250838721156012, 0.04153319116953033, 0.04060943601262263, 0.03964831300006283, 0.038647238967540486, 0.03771743645996141, 0.036819162482135875, 0.03590546716789081, 0.035003000409680525, 0.034122363821094896, 0.03324141873668526, 0.03234125906641556, 0.03148872106263974, 0.030646700697328205, 0.029816809550828084, 0.028996540449407627, 0.028240048873252356, 0.027436222066891964, 0.026647173590899107, 0.02588968027116926, 0.025127356511159535, 0.02431601760525483, 0.023591765642432507, 0.022878518937285076, 0.02221716909077909, 0.021521719072705066, 0.020799832744223593, 0.020137695809320563, 0.019487244514062974, 0.01886837170792119, 0.01823955871550753, 0.01764386089849849, 0.017039550807905913, 0.016449865063797118, 0.015896912865587393, 0.015333252541785919, 0.014740583437149771, 0.014213259189963846, 0.013698407299030858, 0.01317522615213867, 0.012688369910512833, 0.01226291461136016, 0.011793350211937855, 0.011338713254971412, 0.010841196968046739, 0.010423069265619643, 0.010030441921906493, 0.009632994826674079, 0.00924800494450929, 0.008917450374034273, 0.008552335675335124, 0.008147266403030113, 0.007818832067765957, 0.007501737538633227, 0.007185688486806676, 0.006893091272927539, 0.006658789856339777, 0.006382745767963519, 0.006120803178309934, 0.00589361255432076, 0.005656364853865402, 0.005413929644694482, 0.005207637734944451, 0.005013884666107413, 0.004841632298781032, 0.004671203059684294, 0.004463504105249421, 0.00432404105774343, 0.0041937484923125525, 0.004118601103706486, 0.004001306724669597, 0.003928848826077896, 0.0038313299954710754, 0.0037471467781208367, 0.0035972163167296367, 0.0035480316114439446, 0.0035520687644112333, 0.0035121152567160582, 0.0034825020431773182, 0.003460357091578553, 0.003450999937298693, 0.0034170626455807458, 0.003430696073818446, 0.003451443184148753, 0.003534339557030581, 0.0035625159736658264, 0.0035564785047277597, 0.0036103887515007644, 0.0036711795551167834, 0.003750575301045483, 0.003823450455356673, 0.0038722276712064413, 0.003963499839462253, 0.0040599088055010505, 0.004195525196720924, 0.004297988336703788, 0.004432385177599811, 0.004545505624793685, 0.004666440140034029, 0.004742322392275009, 0.004884005710488958, 0.0050526871516127555, 0.0051982654899682245, 0.005348571557645568, 0.005499433156881733, 0.005658954981079124, 0.005794761760873627, 0.005965089546010213, 0.006137216827627475, 0.006363500616732707, 0.0065325803846490735, 0.006670973911020341, 0.006853329057070547, 0.007037383499706971, 0.007277952536215717, 0.0074579699355822445, 0.007625253163768197, 0.007815359259422594, 0.008007588916091135, 0.008193692244378057, 0.008389995420191046, 0.008537120394968048, 0.008740561120405225, 0.00894123725606347, 0.009161545853360894, 0.009354274524199228, 0.009526168626057433, 0.009718829693866601, 0.00990888351259384, 0.010098941599373124, 0.010283404916361946, 0.010508507083092858, 0.01068230227707723, 0.010855756830842379, 0.010987821580229913, 0.011164336497675129, 0.011378789815283289, 0.011542055759799896, 0.011703588972050564, 0.011853799957817974, 0.012011774069694, 0.012158452404951404, 0.01231026262454653, 0.012457659214959014, 0.012634490952785132, 0.012768213818860296, 0.012889735164256993, 0.013018094076773812, 0.013142049603748925, 0.013287481987696248, 0.013398450251491556, 0.013505656854811319, 0.01360865583022192, 0.013707044700318903, 0.01378475368635302, 0.013874855037445318, 0.013983348858598848, 0.014057213568428288, 0.01412573024183658, 0.014179418668943887, 0.014237477848153378, 0.014304526278194028, 0.014347012581737446, 0.014383375044299184, 0.014439544014826911, 0.01445963498859528, 0.014473103513764015, 0.01448235364717395, 0.014485505860745094, 0.014534637986981219, 0.014518178081735514, 0.014491289367169119, 0.014467292051366099, 0.014437930661655008, 0.014423756164552302, 0.014379903120924102, 0.014350490543188436, 0.01429336818925113, 0.014231416397333888, 0.014230950962028402, 0.014149657199069833, 0.014054392330491888, 0.013969423809560979, 0.013880156800989986, 0.013826703739797996, 0.013722402818485035, 0.013617550159352006, 0.013506014948817474, 0.013390428746033495, 0.013291338346858148, 0.013163898223663682, 0.01307582851580416, 0.012934939070813728, 0.012792046687401226, 0.012687188621781134, 0.01253365043222029, 0.012410491439562119, 0.012250333765474764, 0.012089862784086294, 0.01195333567525395, 0.011787381778675271, 0.011696948770480038, 0.011520127199008339, 0.011346326369642291, 0.011172052827362835, 0.011002162460217225, 0.010853938723394829, 0.01068243835740611, 0.010518675243839697, 0.01034836993082886, 0.010179009318196106, 0.010044417872060906, 0.009872116388335366, 0.0097703803490569, 0.009594246560219054, 0.009424068819095232, 0.009286739165538582, 0.009123358021240726, 0.008963490438128871, 0.00881227423309754, 0.008666313442633864, 0.008542458541358005, 0.008404459867719644, 0.008264605822095301, 0.008139555237730639, 0.008020063681957432, 0.007999242241374223, 0.007879713465035089, 0.007746791058763601, 0.007652938805761637, 0.007568458293652065, 0.007499919708712055, 0.007433509579504578, 0.007382373622153575, 0.007335556409308353, 0.007299485436693544, 0.007313672644866276, 0.007294913955772128, 0.00732663183129837, 0.007330953976299164, 0.007351351594746951, 0.007377253588669442, 0.007430918513540368, 0.00750396424620673, 0.00758827134577595, 0.007688767084305416, 0.00784239943190704, 0.00797157974945934, 0.00808730766052083, 0.00825928672123582, 0.008449007455096354, 0.008654359478685553, 0.008881434786603486, 0.009127677937402838, 0.009393662273840824, 0.009679968111344688, 0.010022521150368169, 0.010346761611152534, 0.010713397281003657, 0.011083770483365915, 0.011479894867727299, 0.011942573947579164, 0.012385799130391003, 0.012796349276185318, 0.013305062054100765, 0.013839283081047758, 0.014440240737012621, 0.015022300678220286, 0.01562885279155165, 0.016271340329771695, 0.016943916127169976, 0.017677101090983915, 0.018407316752006124, 0.019130042887457795, 0.01993178969586227, 0.02076484468256849, 0.021629842193642425, 0.022527408768661213, 0.023490885284872646, 0.02445129960682583, 0.02544794955216736, 0.026495562960680268, 0.027563877534267783, 0.028632336052536424, 0.02978193018269546, 0.030968077642428506, 0.032235916594328784, 0.03349143470072011, 0.03475644907114422, 0.03609798941507907, 0.03747916750204917, 0.03891622816673376, 0.04037630049136477, 0.041860152847509, 0.0434071337177521, 0.04499596098084049, 0.04663109997975927, 0.0483047232441644, 0.04999972948947329, 0.051763893795424, 0.053571350332822565, 0.05543580285226745, 0.05732999927226571, 0.05928567382108623, 0.0612698408821747, 0.063301473423004, 0.06537690254545249, 0.06750473712427804, 0.06968844596014095, 0.07191161862726458, 0.07418382531947015, 0.07646601214892995, 0.07884189104766351, 0.08129796110332024, 0.08376516545295777, 0.08628268307908991, 0.08883236928233004, 0.09145336522119983, 0.09412286154702007, 0.09684395175469641, 0.09961537263413398, 0.10249105976397486, 0.10535714444756619, 0.10824327976589852, 0.11122159988090707, 0.11425166102419586, 0.11733749091478675, 0.12047082984778228, 0.12366294468470679, 0.12689995446281083, 0.13018962563223554, 0.1335083635321686, 0.13690622951697737, 0.14040374906953504, 0.14389808167945967, 0.14744660873180926, 0.15102284503987748, 0.15468216964388432, 0.15839335563758075, 0.16215635696384612, 0.16597111184761734, 0.16978518648691587, 0.17370981807505675, 0.17772617516517947, 0.18174270200842818, 0.18581070120047988, 0.18992867600355445, 0.19409920526112673, 0.19833753579305133, 0.20260725785344452, 0.20692824874241716, 0.21127916696428442, 0.2157041454558997, 0.22019765032769398, 0.2247176953380408, 0.229287235734858, 0.233911062127954, 0.23857759209461465, 0.24327161992926935, 0.2480371748752578, 0.25284898561012903, 0.25768445964376946, 0.26259054563677514, 0.267539228788304, 0.2725330543338105, 0.2775701904975727, 0.2826961323941473, 0.2878131071484008, 0.292925154750643, 0.29813723885380294, 0.3033897511472024, 0.3086731478844162, 0.3140064875859724, 0.3194059574435043, 0.3248126797208742, 0.3302586863062136, 0.3357209908648769, 0.3412461632659498, 0.3468254575794588, 0.3524193185037568, 0.35804879345731455, 0.3637314062423835, 0.36942737933057285, 0.3751130578866108, 0.38088209351700225, 0.3866808866085961, 0.39252715241410313, 0.39838127535640616, 0.4042315159612251, 0.41014658745972693, 0.416086910475181, 0.42207672026697934, 0.4280624547407486, 0.4340047384375757, 0.44004734148818353, 0.44610880342304926, 0.4522187926036057, 0.4583127785917618, 0.464425775636289, 0.47055689043067844, 0.4767052005399135, 0.48288415482022645, 0.48906216382570045, 0.4952212271183855, 0.5014325787716939, 0.5076548390403094, 0.5139120108637297, 0.5201503079593346, 0.5263720235271092, 0.5326316544765606, 0.5388970716377603, 0.5451411321648569, 0.5514185079306619, 0.5576906772262518, 0.5639707228359809, 0.5702303907163991, 0.5765105584358019, 0.5827870911787782, 0.5890500266227305, 0.5953179915999444, 0.6016145848959119, 0.6078637798931716, 0.6141064415907888, 0.6203308441074442, 0.6265579955023098, 0.6327415297308203, 0.6389498507277392, 0.6451430726830182, 0.6513176416995597, 0.6574781477213336, 0.6636126291421839, 0.6697367625963373, 0.6758402075710538, 0.6818617378665772, 0.6879283368400271, 0.6939873618015402, 0.6999964487128412, 0.7059781203862752, 0.7119432328871955, 0.7178657690948718, 0.7237377118441851, 0.729602460808031, 0.7354341010117889, 0.7411779731422813, 0.7469471659533206, 0.7526509864060216, 0.7583444552634043, 0.76399589767249, 0.7696021241737468, 0.7751680473257221, 0.7806715202701558, 0.7861507399008982, 0.791583209165416, 0.7969577267385363, 0.8022957673435487, 0.807567087687, 0.8128070641244203, 0.8179947188787328, 0.8231188197016377, 0.8282008193912428, 0.8332615082778778, 0.8382277091594617, 0.8431388128256799, 0.847972715317108, 0.8527727930070043, 0.8574594667663501, 0.8621458804944162, 0.866767591683785, 0.871310955795282, 0.8758031936623956, 0.8802569621663802, 0.8846104329308828, 0.8888970155743642, 0.8931000892159731, 0.8972521351043429, 0.9012813040383414, 0.9052981367551203, 0.9092399174147395, 0.9131376714094347, 0.9169241559547024, 0.9205784366255412, 0.9242221943809666, 0.9277865382226714, 0.93131957602226, 0.9347179516838058, 0.9379887782467089, 0.9412369747425258, 0.9444028945115056, 0.9474887457335877, 0.9504885229041161, 0.9534454353548751, 0.9562727001116631, 0.959017789338014, 0.9616353572303806, 0.9642192305403866, 0.9667081615089002, 0.9691184770276153, 0.9714405091468049, 0.9736634646348182, 0.9758092789588613, 0.9778796313818304, 0.979843652569433, 0.981718106931367, 0.9835366433209511, 0.9852265268290226, 0.9868289559955026, 0.9883405361560866, 0.9897622557405227, 0.9910687256085938, 0.9923123573480115, 0.9934358311672555, 0.9944974173854658, 0.995464450968584, 0.9963775878519527, 0.9971506189071749, 0.9977962560701374, 0.9983893898529629, 0.9988880121399214, 0.999300084805686, 0.9996090206245225, 0.9998569478965654, 0.9999743483146694, 1.0, 0.9999154160949785, 0.999759452554608, 0.9995012167522019, 0.9991603258127834, 0.9987261056952453, 0.9981975085929206, 0.9975775960487215, 0.9968598806736161, 0.9960558205621012, 0.9951595668226115, 0.9941479619748951, 0.9930715212423601, 0.991960405241388, 0.9906927843620097, 0.9893373918481024, 0.987831561289621, 0.9863091070005647, 0.9847339592950722, 0.9830262265290731, 0.9812316045337303, 0.9793676002529977, 0.9773985515673954, 0.9753412032073714, 0.9732043457944416, 0.9709838210334323, 0.968619978567003, 0.9662414446296689, 0.9638273856021504, 0.9612731827047958, 0.9586387720298715, 0.9558803452277301, 0.9530932581129025, 0.9502295631899024, 0.9472820486424484, 0.9442564784292496, 0.9411918853101608, 0.9380086216239012, 0.9347487115756465, 0.9314212610478819, 0.9280224202253425, 0.9245229455437209, 0.9209877437921483, 0.9173716630728775, 0.9136981588660543, 0.9099560336936728, 0.906153099459111, 0.9022766962412267, 0.8983109422722705, 0.8943099091741438, 0.8902453790841245, 0.8861475422308064, 0.8819565403058844, 0.8776763693509496, 0.8733749395591384, 0.8690162309301492, 0.8645780808170564, 0.8601119707713965, 0.8556490008568566, 0.851068255484649, 0.8464393577911109, 0.841726686297201, 0.8370092346696114, 0.8322238139274396, 0.8274163738275072, 0.8225635567005589, 0.8176904913971187, 0.812748620453304, 0.8077359096783292, 0.8027204659815799, 0.7976664543168556, 0.792554503519193, 0.787430691427594, 0.7823162772458017, 0.7771182995413791, 0.7718910170103426, 0.7666016380300438, 0.7613237815241111, 0.7560525009377308, 0.7507169823520174, 0.7453589985465613, 0.7399326637977373, 0.7345394265065902, 0.7291496970793434, 0.723712248212082, 0.7182581084794699, 0.7127742670778275, 0.7072927225026712, 0.7017755748642415, 0.6962716289963085, 0.6907560415165733, 0.6852225904165258, 0.6796895682891068, 0.6741269942570038, 0.6685837722926037, 0.6630691706016208, 0.657512518185487, 0.6519556996778917, 0.6464105040464778, 0.640855971718012, 0.6352848393185176, 0.6297428413463833, 0.6242064146294187, 0.6186363536962541, 0.6131202886978457, 0.6076141812425414, 0.6021140979689702, 0.5966247081706552, 0.5911475094833394, 0.5856839515054291, 0.5802380572175619, 0.5748056240883018, 0.5693910736778894, 0.5640218532911835, 0.5586435360691864, 0.5532752004221394, 0.5479456523905771, 0.5426403873367879, 0.5373133633309443, 0.532065842128075, 0.5268313693237274, 0.5216364063208919, 0.5164683720170226, 0.5113679198467744, 0.5062528723158232, 0.5011879414007984, 0.49613783371719106, 0.491123548063038, 0.48612356037234977, 0.4811859176855096, 0.4762588616647928, 0.4713989700389145, 0.4665761738513615, 0.4618033282256767, 0.45705640957815097, 0.45235949079619986, 0.44769393076630926, 0.4430713771622922, 0.43845589172831234, 0.433926099223131, 0.4294223184434107, 0.42498168234889055, 0.42058496374955456, 0.41622005326721556, 0.41191569746809026, 0.40770831717585215, 0.4034902644281631, 0.3993227392676249, 0.3951707633710699, 0.39110984087963435, 0.38707365838362084, 0.38311572114242115, 0.3792071976541266, 0.37535667617918655, 0.37154812669694837, 0.3677783563479114, 0.364075687315457, 0.36042508534109835, 0.35685847106264884, 0.3533094997177335, 0.34979347318066917, 0.346357813377339, 0.3429763007993144, 0.33967275590659357, 0.3363973047633475, 0.3331374247753251, 0.3299793687069429, 0.3268751170966341, 0.3238393498694629, 0.3208416835745477, 0.3179176556657984, 0.31502832759741006, 0.3121953704250468, 0.30936102105552465, 0.30664756617633265, 0.3039893326233562, 0.30138102255541416, 0.2988259335310417, 0.2963411999794829, 0.29389070288443603, 0.29147756113735523, 0.28913778551354863, 0.2868510543907944, 0.2846526189463384, 0.28246719935730663, 0.28032071059606917, 0.27824606127068585, 0.27622418723648856, 0.2742311641614871, 0.27231670969584354, 0.27046565298051195, 0.268649935315915, 0.26688476964136, 0.26515273237633824, 0.26348957664970896, 0.261889127899354, 0.2603204364396682, 0.25880015912097226, 0.2573186148769967, 0.25589475096476444, 0.25450409133519203, 0.25317397462368063, 0.25188840372796223, 0.2506979894373354, 0.24949371283003666, 0.24828700827245215, 0.24717991505182185, 0.24611424373275598, 0.24513791427098838, 0.2441474053059485, 0.24318371273037495, 0.24227925303034495, 0.24141449327234182, 0.24054935527052906, 0.23976652929849798, 0.23903578905784997, 0.2383204619982414, 0.23764014162021876, 0.23697842027146618, 0.23636798087316674, 0.2357829735887989, 0.2352366963560819, 0.2347207631348756, 0.2342083758840263, 0.2337545501137092, 0.2333643003079263, 0.2329592023273838, 0.23258205549189437, 0.23225554139189766, 0.23192867974027517, 0.23155122367643927, 0.23128631299252192, 0.23104157239090942, 0.2308781088363918, 0.230664638185918, 0.23042495824416034, 0.23026098751471524, 0.23011441187904716, 0.23005134899539328, 0.22992918398467363, 0.2298235450173076, 0.22973874404675504, 0.22967047672119367, 0.22959011090697784, 0.22955498677041672, 0.22951974401084596, 0.22950860868792003, 0.22950682776442058, 0.22949011499006045, 0.22950783381829246, 0.22954446814597834, 0.22957162413781496, 0.22960419078901273, 0.2296715532079896, 0.22970896785071554, 0.2297460653211185, 0.22979299778347292, 0.22984261978442416, 0.22988357364513287, 0.22993725811121554, 0.22999698554793913, 0.2300480919650153, 0.23009757570540237, 0.23009360330883455, 0.23014395057491058, 0.23019796379678376, 0.2302330416971367, 0.23026119459668729, 0.2303094201288072, 0.23031876240673582, 0.23030549823932192, 0.2303022733782679, 0.23028977842786827, 0.23028836512607617, 0.2302529127436713, 0.23016310006105656, 0.23011281129607628, 0.2300486988852168, 0.22996519010004257, 0.22987306149862563, 0.2297552778679909, 0.22963376208877473, 0.2294957727355383, 0.229364583534072, 0.22918978942028184, 0.22904212388242748, 0.2288292155588893, 0.22860163535670353, 0.22832320301819817, 0.22806828613465732, 0.22776557073524795, 0.2274758982863192, 0.22716483801983287, 0.2268597434240791, 0.22650201706445694, 0.22608997220279045, 0.22569558418362495, 0.22527823972072902, 0.22484964391186, 0.2243846586935982, 0.2239193671555196, 0.22340625238591472, 0.2229080829069018, 0.22234656197648778, 0.22176469634572868, 0.22111869518850805, 0.22049987560154768, 0.21987763058358054, 0.21920736116357695, 0.21851377642448863, 0.21779404414234152, 0.21705354824126896, 0.21627071593578104, 0.2154844104101322, 0.2146728834965122, 0.21381528532254387, 0.212956245210124, 0.2120776438080606, 0.21116584058145962, 0.21022883637626166, 0.2092995510956936, 0.20830859749754982, 0.2072739236171754, 0.2062399939089878, 0.20518200922241545, 0.20411846155763788, 0.20301056229417574, 0.2018736246146064, 0.20072161611600023, 0.19954687786701739, 0.19831553894725767, 0.19710014472593163, 0.19584101606585222, 0.1945803919924347, 0.19329552752613802, 0.1920302326393672, 0.19069324384109063, 0.18929562219469828, 0.18792383691465817, 0.18653011490466978, 0.1851660615149994, 0.1837236674044261, 0.18226774801356718, 0.1807900522887805, 0.17929536246352762, 0.177777278321612, 0.17624989909026473, 0.1746978506333092, 0.173138136892421, 0.17156179912987843, 0.16991558641456866, 0.16831404040025033, 0.16675565652201885, 0.16511050224535243, 0.163452166186313, 0.161780955931257, 0.16009720699721738, 0.15838164722396655, 0.1566764110355239, 0.1549586876707365, 0.15318848611881958, 0.15145267189852232, 0.14968944634060616, 0.1479303334826703, 0.14615917377430707, 0.14438476617816437, 0.14259130902627276, 0.14080072493744894, 0.13898871846972005, 0.13716994816534328, 0.13539999774629718, 0.1335625704018783, 0.13169185621601942, 0.12985479998924823, 0.128014448696552, 0.12615297054365657, 0.12430983372641657, 0.12245602557424207, 0.1206089112944617, 0.11875985774118963, 0.11689910023761535, 0.11504959405504447, 0.11321533612511044, 0.11136366947838872, 0.10951388700954137, 0.10765477940651359, 0.10581196289492302, 0.10399562968966038, 0.10215633421408576, 0.10032257602166429, 0.09848039196626997, 0.09666084331488407, 0.09489055151510829, 0.0930782457857287, 0.09127557531765544, 0.08946050451818623, 0.08768060089510323, 0.08588758313978737, 0.08412925738215833, 0.08237980265586642, 0.08062418462329217, 0.07889645307311322, 0.07722578361989456, 0.07551271393504042, 0.07381366847011724, 0.07208967165568114, 0.07042453089908457, 0.06880223892452665, 0.06715943172232683, 0.06553233266143513, 0.0639317668411091, 0.062335826605217956, 0.06076511015695844, 0.05920319770460563, 0.05765966761431873, 0.05610857921397816, 0.05460585049770843, 0.053133877971595384, 0.05166531356078157, 0.05021610217986297, 0.048742084552043936, 0.04733823121198658, 0.04601507574181639, 0.04463970528021076, 0.0432870506225621, 0.04195195800592865, 0.04064566125013476, 0.039360776595154696, 0.03810025909050532, 0.036862738066036516, 0.03562746243577024, 0.03443915668956496, 0.033311204383639964, 0.0321632476065127, 0.031040507553058087, 0.02986183799540323, 0.028799823866352485, 0.027822668222701907, 0.02679468602140645, 0.025792344970138194, 0.02481306762964903, 0.023862462942119887, 0.02292046252776554, 0.02202331253619463, 0.021150949907223694, 0.020312727485129328, 0.019489329969483712, 0.01864592670524643, 0.01787998395340517, 0.01713736700789713, 0.0164302529437258, 0.015733932187453902, 0.015099272087546209, 0.014448485131489833, 0.013825022971407875, 0.01320118566529073, 0.012635217448225742, 0.01209572416115005, 0.01157995034024849, 0.011089448023322459, 0.010616335267433821, 0.010177263634157621, 0.009786439524015316, 0.009393742747913596, 0.009026989318281877, 0.008675450759573948, 0.008361138418883288, 0.008104138460388937, 0.007834700043164477, 0.007591340373144013, 0.0073317225562210325, 0.007144482407551629, 0.006980987963728514, 0.006838399940468192, 0.006718183013529083, 0.006591422318320188, 0.0065192086175622065, 0.006524918154991373, 0.006486135531141462, 0.006470968547167275, 0.006498547413746988, 0.006526637905901888, 0.006567517897079696, 0.006642841419033863, 0.006739645328468601, 0.006833901559796417, 0.00697525590771109, 0.007124934911529136, 0.00730496379370764, 0.0075027040169446885, 0.007738912519414844, 0.007968847744222221, 0.008168615288769797, 0.008440777448191774, 0.008727646376799153, 0.009031812986408646, 0.009347636235337046, 0.009712125397578422, 0.010052736809737626, 0.010409503359958132, 0.010742643391161166, 0.0111351475646488, 0.0115976699799873, 0.012007565150115258, 0.012431414741422207, 0.012871293705405056, 0.013324975733307577, 0.013789202220956176, 0.014268922243144758, 0.014742119107363009, 0.015247202515284903, 0.015761960789461224, 0.01629517484947724, 0.01682697390103645, 0.017379579454362224, 0.01792746963451855, 0.018484107429846172, 0.019008358870892528, 0.019585963346783333, 0.020194587042972716, 0.020778374720335585, 0.021368065197627777, 0.021937026110551813, 0.022540471744844488, 0.02316662994258471, 0.023773515975954656, 0.02438408896591847, 0.024949482517222666, 0.025572242242864213, 0.026222149820440754, 0.02684071227077051, 0.027460344129400082, 0.02807283936049571, 0.028694535597154226, 0.029349807143661415, 0.029965975318263054, 0.030582958263745907, 0.031185747868443477, 0.03180437505539636, 0.03242256046018667, 0.03303709642646009, 0.033649112532113785, 0.03426734851791524, 0.03487190651233615, 0.035444418502429846, 0.03604564358330183, 0.03664107245396758, 0.03726060037244284, 0.03783998859513165, 0.03842507417276981, 0.038993104544140254, 0.039555998440133744, 0.04005694579854305, 0.04061513047997241, 0.041210645447775286, 0.041743300619089894, 0.04226879484382396, 0.042776226281320946, 0.04328745287719514, 0.0438158824274971, 0.044305565771846155, 0.04478718483939747, 0.045253718014526455, 0.04571863904897193, 0.04614369316854767, 0.04659256715147173, 0.04702935225177888, 0.047419970075898966, 0.047836726944714164, 0.048248471445269905, 0.04863591566279678, 0.04901004844392938, 0.04938400256510436, 0.04972996597794909, 0.05006603600100363, 0.05038652495289067, 0.050694406185722254, 0.05098037390533044, 0.051263771127353024, 0.051540171563811125, 0.051795601366463405, 0.052037738586560085, 0.05231227854462526, 0.05252169559511472, 0.05271744232396077, 0.052904619455706625, 0.053079718236617966, 0.05323585086154608, 0.053386632753859325, 0.05354500509407675, 0.05366626204515569, 0.05377502286480202, 0.053814715161204965, 0.05390477444772377, 0.054001997574109256, 0.05405656863258117, 0.054096609716710105, 0.05410777449391067, 0.054120736654742534, 0.05414471124329981, 0.0541242175210958, 0.05409038904724371, 0.05404580270323272, 0.05398487127554133, 0.05392639552795739, 0.05383697092190934, 0.05373518572214631, 0.053567280647697016, 0.05344730808642842, 0.05336020228769927, 0.05320340661514299, 0.053034587737154346, 0.05285634481797266, 0.052663118216121935, 0.05246981420938232, 0.0522514143667715, 0.05202190312288312, 0.051734139948579054, 0.05148833367001452, 0.05124188894103529, 0.050967415137327964, 0.050680809021860146, 0.05039806893636103, 0.05008608083028906, 0.04971396078805196, 0.04938762281462353, 0.049048409144316574, 0.048690346062256896, 0.048327880807730636, 0.048017905100422954, 0.04762455337178061, 0.047224150891609994, 0.0468127050433723, 0.04639853612315644, 0.04592988388688332, 0.04550701218480399, 0.045074287481544816, 0.04464136130708806, 0.044189212444330384, 0.04376576221987947, 0.043293420213852574, 0.04281585751204842, 0.04235404419658259, 0.041863504078812695, 0.041306258193215345, 0.04081584228008496, 0.04031793964153729, 0.03981045555994664, 0.039299451276566394, 0.038818949152978996, 0.03829148377777379, 0.03776083799971612, 0.03721405001337179, 0.036679097156243005, 0.036106629545184, 0.03556929171059681, 0.0350271178521746, 0.0344754232987712, 0.03392585717235001, 0.033389727966012674, 0.032831350420375174, 0.03227131276021455, 0.031723005071312226, 0.031158886956356144, 0.030609119539076628, 0.030043259228580824, 0.029478511728229812, 0.0289201823743573, 0.028357227570263235, 0.027764532449050746, 0.02720897691655044, 0.02665351270150449, 0.026122069553804608, 0.025564901557569707, 0.02498403020776535, 0.024435256016642242, 0.023887767082968907, 0.023394283849915445, 0.022843821031513407, 0.022278988571788887, 0.0217414288587758, 0.02120785493523672, 0.020675771241040582, 0.02015087690674947, 0.019576552613224035, 0.019067082520558012, 0.0185591771224406, 0.018118887049636795, 0.01760760138778041, 0.01706133364203388, 0.016569085089271966, 0.016081285753069254, 0.01559563787237643, 0.01511800575069379, 0.014658659664776617, 0.014190045491534043, 0.013727899958489002, 0.01330638846783352, 0.012853275069638783, 0.012351337336786573, 0.01192288677615328, 0.01149969390365829, 0.011105683381647575, 0.01069108574556478, 0.010244793023044891, 0.009850382597804892, 0.009465420532805536, 0.00908194334884965, 0.008704937597262543, 0.008332057195959202, 0.007969107981996855, 0.007631528375542747, 0.007280555733685755, 0.006938035877682355, 0.006658946185102927, 0.0063263877590994805, 0.005962171692192161, 0.005657695684939436, 0.005361480717249141, 0.005101006454117885, 0.00481781442928054, 0.004528690875347437, 0.004266799844755998, 0.004013356235664487, 0.003794475018656458, 0.0035544308633947844, 0.003316270403445907, 0.0030964277910008296, 0.002885377492306133, 0.002671188009576445, 0.0024787706206520657, 0.002269198369851385, 0.0020953304035555777, 0.00192773003526538, 0.0017992875451620703, 0.0016405590175591464, 0.0014497757942428659, 0.0013130423804574856, 0.0011822070272075357, 0.0010626705943081259, 0.0009434309854611497, 0.0008870619387917176, 0.0007739110345050238, 0.0006705438850480345, 0.0005241410419612979, 0.00044560888103028606, 0.0004132183970649532, 0.0003407482315251896, 0.00027621746295583696, 0.00019444378503307368, 0.00014801583892672067, 0.00010724775808218389, 7.207775145311793e-05, 4.2432415406048186e-05, 3.916986058506116e-05, 1.766308208886426e-05, 1.4353966500677022e-05, 3.912076503306674e-06, 0.0, 3.7606650352830676e-05, 4.1253804449567445e-05, 5.635032583240779e-05, 7.397012137710445e-05, 9.823141775893571e-05, 0.00011815185099229492, 0.0001555313938054567, 0.00028002174720079373, 0.00031596991540077383, 0.00036060655650326754, 0.0004064600430912267, 0.00046661911242552265, 0.0005443862721926956, 0.0006141063747168982, 0.0006891697585429006, 0.0008279001545566252, 0.0009045366395598912, 0.00095293609562289, 0.001047368286682397, 0.001145265604654646, 0.0013208361313126614, 0.0014150807490252257, 0.0014949747629484813, 0.0016041782426155595, 0.001717159647304402, 0.0018805369778205998, 0.0019936736557207334, 0.002174738170849771, 0.00228942323937285, 0.002411407835737007, 0.002552739915967357, 0.00268468093587728, 0.0028768986503713116, 0.0030117135656931317, 0.0031534636066735955, 0.00329197050439626, 0.0034458427830759853, 0.0036336019264605695, 0.0037906701480066654, 0.003952176589454885, 0.004142357229600048, 0.004307797308795985, 0.004557305981730052, 0.004720539278299062, 0.004891447546175919, 0.005086020407008378, 0.005267203052459963, 0.00546747192123524, 0.005658245203215887, 0.005854378190262879, 0.006059180841430794, 0.006263798527402045, 0.006541840938541104, 0.006745444637063955, 0.006956378023523769, 0.007177814423061157, 0.007400782823379138, 0.007645130048864751, 0.00787702600116654, 0.008114710622308539, 0.00839707562169851, 0.008640338001863937, 0.008873713567586308, 0.009132936228608394, 0.009397536374461838, 0.009693570932663249, 0.009965315529327107, 0.010269901320426466, 0.01055149630032468, 0.010840959187726363, 0.011183852793371541, 0.011482592449460554, 0.0117977980145927, 0.012115147657452046, 0.012442075857685387, 0.012749519095334741, 0.013098528095993938, 0.013482431907332322, 0.013842975622730866, 0.014212889582761701, 0.01465634162247258, 0.015037033484543758, 0.015404759931417288, 0.01581483924983801, 0.01623606600506719, 0.016692050909452118, 0.01713279833669422, 0.017595482451880518, 0.018060623062653575, 0.01853911817049613, 0.019051953171833242, 0.019554695257600608, 0.020042155640143194, 0.02057837664388974, 0.021127844824414318, 0.021724974376741858, 0.022297800456497513, 0.022888292095604997, 0.023493821747255974, 0.02411613823016229, 0.02476463453546271, 0.0254200954164302, 0.026105436593682835, 0.02679586468947788, 0.027505601500292184, 0.028240110092850094, 0.028988523984937443, 0.029733775884055774, 0.030526255181901857, 0.03133842316249105, 0.032216631886624617, 0.03306400877582657, 0.03389076968989595, 0.03479172232625245, 0.035714461119449425, 0.0366910191388925, 0.03765520866381961, 0.03863692786244115, 0.03965321936636276, 0.040695162752299174, 0.041769753292840266, 0.04286353594929115, 0.04395985133617243, 0.045112007325422414, 0.04629103289164926, 0.04753422613608744, 0.04876428850955844, 0.04999638308791883, 0.051292053043869114, 0.052617580112323536, 0.05397747759487829, 0.055363971647057184, 0.056813685264462996, 0.058260344155899625, 0.05974161597735694, 0.06126692441333339, 0.0628170737343585, 0.06436132415048283, 0.06598899699999843, 0.0676508432960525, 0.06937630037246525, 0.07110475536576899, 0.07284337271134692, 0.07465094882066102, 0.07649533603993819, 0.07837712039371873, 0.08029686665380345, 0.08226820838423336, 0.08426383806816173, 0.08629974124991996, 0.08839593576379703, 0.09051105296210762, 0.09265952469912875, 0.09486104771051639, 0.09709585256548596, 0.09938373533191767, 0.10171417427352097, 0.10407970175858676, 0.10649739187519439, 0.1089661736793409, 0.11146976155421678, 0.11401783694330792, 0.1165976228830982, 0.11923725338952529, 0.12197258700346982, 0.12469545936952915, 0.12746659601048402, 0.13023356656456658, 0.13310765630519308, 0.13606357810372163, 0.13902381855957383, 0.14203210065017438, 0.14508717047324016, 0.14819187090420036, 0.15135126075233507, 0.15455149698950635, 0.15780038998993107, 0.1610743943185966, 0.16442362522426948, 0.16781107453630845, 0.17125642760235488, 0.17474902422571917, 0.17827730590026397, 0.18186650855750192, 0.18553688559889214, 0.18921628676898594, 0.19294512894955596, 0.19668400435286928, 0.20051626671747255, 0.20443983279132924, 0.20836022953186117, 0.21233019590298624, 0.21632588224021676, 0.22039710124861345, 0.22448691032313414, 0.2286564446469402, 0.23287152813522366, 0.2371374789009145, 0.24144319274069506, 0.2457935309524587, 0.25019116652915835, 0.254634402417318, 0.2591400788783575, 0.26367180171933124, 0.2682324317857351, 0.2728577372199502, 0.277527167594292, 0.2822220927127325, 0.28698114181024054, 0.29178489623854126, 0.2966275417401047, 0.3015118808867293, 0.30648205959782315, 0.31144305237957837, 0.3164182618737119, 0.3214681014740023, 0.32655771291489094, 0.3316708259773581, 0.3368402561877223, 0.3420625322303616, 0.3473037575347815, 0.3525819745676153, 0.3579265974191855, 0.3632729048174855, 0.3686583946156633, 0.37407652311774553, 0.37952942439034737, 0.38498471483499036, 0.3905082359285815, 0.39604225821268985, 0.4016278432600354, 0.4072410593372406, 0.41287347161758625, 0.41854115450825563, 0.42423546339272683, 0.42995297319630343, 0.4356945460877665, 0.44145159158203773, 0.44724003549934843, 0.453055018059413, 0.4588846288714813, 0.4647342443108066, 0.47056894079652944, 0.4764601641376062, 0.4824151541436088, 0.48833023343967435, 0.4942619206229989, 0.5001592850643002, 0.5061269003933865, 0.5120851238681097, 0.5180749132360138, 0.5240722086003861, 0.5301207819550353, 0.5361252092643541, 0.5421071645017753, 0.548129406489663, 0.5541550760688535, 0.5601255631785351, 0.5661622819852941, 0.5722104453092812, 0.5782387937168519, 0.5842636289298068, 0.5903193774717588, 0.5963299251628063, 0.6022797695603929, 0.6082872546973739, 0.6142844836804796, 0.6202967461545902, 0.6262674312470196, 0.6322107933356679, 0.6381589804402616, 0.6440921528711604, 0.6499764369141906, 0.6558802377162852, 0.6617126122390425, 0.6675811521103984, 0.6734244846856359, 0.6792903987896477, 0.6850751825685714, 0.6908208984656151, 0.696556892353147, 0.7022648531350513, 0.7079226577607541, 0.7135736347046905, 0.7191538363437463, 0.724742905847245, 0.7302948489639939, 0.7358166879620023, 0.7412908289981809, 0.7466706359948079, 0.7520719461335084, 0.757428654610024, 0.7627780371853594, 0.7680386171754507, 0.7731759175646896, 0.7783557390751482, 0.7834839991353323, 0.7885718860605307, 0.7935936721565079, 0.7985756233265316, 0.8034889924544588, 0.8083482986975007, 0.8131354237429289, 0.8178854290324866, 0.8225338633351291, 0.8271715661585116, 0.8317464258680967, 0.8362603562020731, 0.8407070293732939, 0.8450704064242975, 0.8493885809496622, 0.8536389787716377, 0.8578365238851129, 0.8619469955250885, 0.8659409944537589, 0.869917714001705, 0.8738204219566142, 0.8776563397487029, 0.8814080908549493, 0.8851038817254991, 0.8887011553116854, 0.8922223052313433, 0.8956414689346157, 0.8990105478022243, 0.9022677523788705, 0.9054791307999439, 0.9086067767088092, 0.9116240032237448, 0.914585935834412, 0.9175016279289849, 0.9202844230009656, 0.9229818894414306, 0.9255775462357707, 0.9281040324450156, 0.9305354848138571, 0.9328852190724698, 0.935144898801037, 0.9372904256863989, 0.9393713632645855, 0.9413527755165544, 0.9432482460971942, 0.9450496899762383, 0.9467803656526486, 0.9483898613704036, 0.9498559811254138, 0.9512839785949082, 0.9526145483750051, 0.9538580993504076, 0.9549922791785894, 0.9560267486140815, 0.9569668726384121, 0.9578093557713351, 0.9585592598214233, 0.9592052830393536, 0.9597272782206148, 0.9601807188429649, 0.9605514891774175, 0.9608034618676301, 0.9609568090384686, 0.9609983534318473, 0.9609558583794533, 0.960839973940952, 0.9605951115685425, 0.9602523150116596, 0.959829797030144, 0.9592885197552486, 0.9586030001182114, 0.9578732949770175, 0.9570435960215874, 0.9561430453102859, 0.9551107608127071, 0.9539850786995779, 0.9527577831102482, 0.951433690936713, 0.9499828775516699, 0.9484695797208339, 0.94689772473651, 0.945184355333434, 0.9433764558076198, 0.9414219125880613, 0.939432349380929, 0.937415563423074, 0.9352248461849776, 0.932943030706386, 0.9304813456822707, 0.9280293547000722, 0.9255148883314173, 0.9228694996783743, 0.9201329861114501, 0.9173244815553019, 0.9144058381137619, 0.9113825382656662, 0.908291457018254, 0.9051131951398953, 0.9018106837684132, 0.898465539182129