0.030932717241985694, 0.030370836736123855, 0.029889497511275856, 0.02941851562766191, 0.028932119263590676, 0.028540210918576867, 0.02817346615946284, 0.027892920540011024, 0.027557291028610906, 0.02722623305745368, 0.026927352786850628, 0.02664136183078152, 0.02631299444278341, 0.02605443331222384, 0.025799426954551882, 0.025551601701823426, 0.025308460954214664, 0.025045134344148713, 0.024814469270822866, 0.024583509785473027, 0.024360878638896934, 0.024142626856420633, 0.02393416967992556, 0.023726036493815095, 0.023487350116923534, 0.02329793199338627, 0.023114457034396102, 0.02291024391049532, 0.022745102514810215, 0.0226435318585355, 0.022486905386226712, 0.022342849244149594, 0.022134586437015522, 0.02202701684629516, 0.021901565445213055, 0.02181821228492569, 0.021745270450950635, 0.021677243104504317, 0.021629417305317686, 0.021652142030118154, 0.021624612172747453, 0.021615414500481406, 0.02161725008268696, 0.02164667780446427, 0.021684484677111787, 0.021753359166458413, 0.021841236819900824, 0.02190368375047395, 0.022036477961629993, 0.02220317877601378, 0.022370008814807853, 0.0225568162148236, 0.022753582392807947, 0.022983079078743193, 0.02320182071036893, 0.023477259894511566, 0.023772607347377885, 0.0240408263127092, 0.024384011582640197, 0.02473199841411867, 0.025116148038918384, 0.025520368536073763, 0.02598084789558734, 0.02642329669533788, 0.02690546784641339, 0.027395271634607428, 0.027911125967774793, 0.028405535596679764, 0.028980193139337602, 0.02957221766032977, 0.03019643094309685, 0.03084550704911023, 0.031531489052067777, 0.03223057677603446, 0.03291484005533752, 0.0336739674430506, 0.03445868409922234, 0.03529451104370277, 0.03612934119563179, 0.036955908357955564, 0.03785372804933298, 0.038779145159429415, 0.03980629362077136, 0.04077951712179694, 0.04175765023674881, 0.04280151293199507, 0.04387722924977763, 0.04498791208035803, 0.04612772972217533, 0.04724211499022506, 0.048455103497402806, 0.0496981042774423, 0.050974706670279014, 0.0522794962793537, 0.0535993062937324, 0.05497122418778714, 0.05637545751906958, 0.05784508017608742, 0.05931167183363913, 0.06084563165992472, 0.062380224319922815, 0.06395292236940997, 0.06555033749437167, 0.06720088063058087, 0.06887541481007904, 0.07060250336859321, 0.07236650331910816, 0.0741132844780205, 0.07595877652482452, 0.07785225613812698, 0.07976598225595587, 0.08171635889557693, 0.08372386321486039, 0.0857462718415476, 0.08779618626895005, 0.08989811458135176, 0.09203865533603801, 0.09419035186788927, 0.09641224980822044, 0.09869087769667778, 0.10098601818597595, 0.10335778299240969, 0.10572714886330864, 0.10813822898746252, 0.11051445330000513, 0.11301796456971183, 0.11559264071258231, 0.11816585644026116, 0.12077860452273437, 0.12344331723275567, 0.12613361549439203, 0.12879925555888833, 0.13157809342498564, 0.13439323737252154, 0.13727654508526543, 0.14016133811887277, 0.1430383189283223, 0.14600683314121196, 0.14901146134595364, 0.15207056786989329, 0.15514575648416087, 0.15829196965234876, 0.1614380725174851, 0.1646234220279484, 0.1677693167104166, 0.17104172142558582, 0.17440395804175504, 0.17773648163957484, 0.18110598657068377, 0.18444143480044767, 0.1878925726184369, 0.19144129917012032, 0.1949477098044626, 0.19848971716935504, 0.2020810751497833, 0.20569078084127337, 0.20932183772175228, 0.2130019751800674, 0.21671472283581197, 0.22044044005477728, 0.2242191544798816, 0.22801532215748463, 0.23185490537374434, 0.23572278695835575, 0.2396367286994477, 0.24355776609896881, 0.24749354116065192, 0.2514718480329505, 0.25547625872996704, 0.25950815040905156, 0.26356290860775905, 0.2676011748421218, 0.27170959585638504, 0.2758390083941827, 0.27994614387058997, 0.28412194218844694, 0.28833236065948276, 0.29254073123584173, 0.2967671402545904, 0.3010617215904045, 0.30531641642031765, 0.3095694896382119, 0.3138645802213616, 0.318175860532501, 0.3224557439225676, 0.32680283004826083, 0.33115523916868195, 0.3355246560305047, 0.339903758225173, 0.3443463844664975, 0.3487362471252682, 0.3530721152068515, 0.35749083861662245, 0.3619145406290988, 0.36634452915368393, 0.3707760899735516, 0.375239405564061, 0.37967282970889066, 0.3841094154904947, 0.38855859155427475, 0.39299696277167945, 0.39743014257730974, 0.40186914565157456, 0.4063060474551386, 0.41069107663473786, 0.41512663189846927, 0.41952829049877083, 0.4239501385582722, 0.42836094951613224, 0.43277826411426146, 0.43716286728462483, 0.44156984239443553, 0.44592521780015726, 0.45026867821828837, 0.45453121875222396, 0.45885568880119404, 0.4631693237799896, 0.4674531885688368, 0.47171671088423084, 0.47598671590181835, 0.4802034630089492, 0.4843472229262453, 0.4885264055219761, 0.4926788932789622, 0.4968707319885226, 0.500959058944662, 0.5049762148615443, 0.5090181832721645, 0.5130293999502794, 0.5169840581237363, 0.5209339105127384, 0.524893443594074, 0.5287664399925965, 0.5326050709267222, 0.5363517676975293, 0.5401250192095441, 0.5438789643597339, 0.5475661726334812, 0.55121180689671, 0.5547852774767251, 0.5583484819671837, 0.5618835489886056, 0.5653511365605881, 0.5687718720927941, 0.5721228175030459, 0.5754496553649493, 0.5787683789005167, 0.5819868474837895, 0.5851550069500527, 0.5882229835618158, 0.5912931020754331, 0.5943171587023016, 0.597272104593302, 0.600169606119901, 0.6030326716311277, 0.6058097128760317, 0.6085509928862362, 0.611206760417506, 0.6138030813352153, 0.6163387779232048, 0.6188127211625022, 0.621140799673489, 0.6234985280963218, 0.6257867217371, 0.6279917269803138, 0.630141616168841, 0.6322402522578273, 0.6342447139880485, 0.6361783551093417, 0.6380339525145977, 0.6398251595320271, 0.6415883722633527, 0.6432277033699811, 0.6447956819186321, 0.6462981108428022, 0.6477199517913194, 0.6490597259390679, 0.6503348958011588, 0.6515345494534102, 0.6525941047719813, 0.6536489225969323, 0.6546371309506412, 0.6555282632933849, 0.6563391904095552, 0.6570496719730012, 0.6577021187608971, 0.6583356085390627, 0.6588161552071927, 0.6592181791023419, 0.6594962414348329, 0.6597451919449516, 0.6599420484870969, 0.6600218034326042, 0.6600205061438523, 0.6599225822346529, 0.6597602350070575, 0.6595390370205887, 0.6592081847355195, 0.6587958437592741, 0.6582531233505218, 0.6576833478028753, 0.657087046195688, 0.6563407324665134, 0.6555135473379309, 0.6545976821192884, 0.6536092551727941, 0.6524809605894133, 0.6513366403412348, 0.6501075439242492, 0.6487675497993202, 0.6473740605773559, 0.6459380326715206, 0.6443709427872575, 0.6427231824800768, 0.6410208877737068, 0.6392096537287039, 0.6372955466842508, 0.6353315517363376, 0.6332885949541122, 0.6311118377808376, 0.628919515354355, 0.6267001654058705, 0.6243411600458919, 0.621894274549728, 0.6193864140241423, 0.6168034603118443, 0.6141279633288533, 0.6113991802329306, 0.6085772980054501, 0.6057037846277162, 0.6027569500727901, 0.5997292429536852, 0.5966399511432394, 0.5934866110892537, 0.5902560923455564, 0.5869573573359225, 0.5835866339105574, 0.5801550691894041, 0.5766580235684465, 0.5730965435892231, 0.5694716777205886, 0.5658570089795777, 0.5620993645483872, 0.5582559975525386, 0.5543903107497206, 0.5504678936065652, 0.5464972705840102, 0.542463138044942, 0.5383850385696078, 0.534243624772937, 0.5300511712196435, 0.525766638523369, 0.521480317145034, 0.5171884461012606, 0.512797065008987, 0.5083606318751426, 0.5038420241288478, 0.4993235101957241, 0.4947448564303868, 0.49014203801377054, 0.4854973402605777, 0.4808715303134433, 0.4761403662911017, 0.47132289239278913, 0.46653179510684073, 0.4617061207610848, 0.45682550115310666, 0.4519381792945269, 0.44701975314197046, 0.4420719430592437, 0.43709643756513494, 0.43213307056694095, 0.42710230209520295, 0.42207379117428534, 0.4170001178472732, 0.4119096726507018, 0.4067224748593242, 0.40161219815884885, 0.3964974878495795, 0.3913518294654941, 0.38619286679719966, 0.3810222881143975, 0.37584175118094365, 0.3707111012049249, 0.3655081518289061, 0.3603033276009647, 0.3550681362477755, 0.3498666189912945, 0.34462678138246733, 0.33943123106640816, 0.3342362552447575, 0.32904072411639884, 0.32385241664034176, 0.31866578131448203, 0.3134905737431725, 0.30832388101180463, 0.30320165756077244, 0.2980524087350929, 0.2929507403635036, 0.2878288767401865, 0.282726417582768, 0.27758993651125036, 0.2725361133215699, 0.2675054730034817, 0.2624913972770531, 0.2574998670057498, 0.2525313326627365, 0.24758920252825128, 0.24267370188389803, 0.23778616791859464, 0.23292791316107808, 0.2281460349130176, 0.2233443891538357, 0.21854498772439088, 0.21381971016636425, 0.20912993183979445, 0.20444723105111728, 0.19983566299896463, 0.19530049671852998, 0.19075987389612867, 0.18626136286503592, 0.18176009104247728, 0.17735439883801524, 0.17306738693622248, 0.16873799073268203, 0.16445772503958633, 0.16022333558502677, 0.15604352964463267, 0.15192203938642362, 0.14784328962290952, 0.14381697801505444, 0.139782639763999, 0.1358707774606303, 0.13198879635338204, 0.1281824653998592, 0.12442801736606925, 0.12075716289706431, 0.11710605721537454, 0.11354905701094947, 0.1100077268889534, 0.1065267577062485, 0.10304350722655567, 0.09969226295588458, 0.09642274921878498, 0.09318508857568496, 0.09000828541029048, 0.08685947294321428, 0.08381017843485959, 0.08089771441642381, 0.0779604312198545, 0.0750892474531731, 0.07227648497255985, 0.0695383525596535, 0.06679709545740599, 0.06419888495144253, 0.06166251884648762, 0.0592439519920266, 0.056826008734176404, 0.05444788111974253, 0.0521663364388206, 0.049949712419906624, 0.047794335022847655, 0.04570842757626582, 0.04368277356534939, 0.04172758465504613, 0.039837244653237174, 0.03807476877830529, 0.03630620725455533, 0.03457068453791806, 0.032942693185308514, 0.03137990926910255, 0.0298687111829537, 0.028437231741404712, 0.02710945720729349, 0.025799946904794795, 0.024555861110559296, 0.023316482479729332, 0.022209076572073307, 0.021214454376481708, 0.020220909600586763, 0.01929036329154999, 0.018366835349006575, 0.017567400754527767, 0.016825017765422556, 0.01614152636275857, 0.015515547597972981, 0.01499927089718468, 0.014480727460864783, 0.013989136322736788, 0.013592621750827793, 0.013251946083826736, 0.01298559645582664, 0.012752356980510842, 0.01253310587924388, 0.01241426952458317, 0.012346476752090444, 0.012385514342784266, 0.0124110817097274, 0.012439525177234342, 0.012575263610809906, 0.012758520370563372, 0.01302583744781954, 0.013297354703976576, 0.013646875836736636, 0.014008380181954326, 0.014416908287559019, 0.014866375067643578, 0.015365649041009585, 0.015822902830711187, 0.01641756717418847, 0.01704803508159099, 0.01779686933747408, 0.018486978916400904, 0.019235035215187248, 0.01999912328470785, 0.02080051605068727, 0.02160629411689316, 0.02248204266241905, 0.023417803238886932, 0.024351635931291315, 0.025316337619962184, 0.026308707745645244, 0.027331540129480282, 0.028359386771592467, 0.029437718892561755, 0.030539392388623108, 0.0316786816094334, 0.032822113320989534, 0.033981007601683835, 0.03516640003836995, 0.036355118086154124, 0.03757855423817925, 0.038817575881573314, 0.040162849754266525, 0.04141859363850157, 0.042679769404367005, 0.043971038374990015, 0.04527609224868219, 0.0465867895349952, 0.0479159316280525, 0.049281942472100396, 0.05062471969615527, 0.05197577788167722, 0.05336616231969867, 0.05472553110905922, 0.0560976464559928, 0.057466801684737494, 0.05883947324894358, 0.06020089370775488, 0.06157813860449177, 0.0629799045599757, 0.06435029452751113, 0.06571871629581355, 0.0671516952062165, 0.06850397353549728, 0.06989559921949604, 0.07123769833653842, 0.07257730259639805, 0.07385829152014979, 0.07519475161579497, 0.07655238364666231, 0.0778633034691944, 0.07916388579052294, 0.08054276108859534, 0.08180816221112187, 0.08301369781852062, 0.0842673490852335, 0.08550671213870106, 0.08676236387173833, 0.08796648547015957, 0.08919370470056634, 0.09036186050102821, 0.09151519143086184, 0.09268882657054622, 0.09380462063521791, 0.09494079214212736, 0.09601908986678478, 0.09708138088299435, 0.0981102372460795, 0.09913908668131047, 0.10020409898171362, 0.10118483059659789, 0.10214723924458895, 0.1031008177492125, 0.1040223631289939, 0.1049025273841057, 0.10578520821767441, 0.10664493242528543, 0.10758534226093143, 0.10838492039641846, 0.10911966024703204, 0.10988796019581683, 0.11063363262549351, 0.11135439562360329, 0.11205401352549767, 0.11280062824881505, 0.11344392502977262, 0.11406733390516309, 0.11464639682361498, 0.11523136695773394, 0.11582801328598007, 0.1163631951262767, 0.11687752249067464, 0.11735071855002903, 0.11782525258857555, 0.11829262702102879, 0.11872053893990682, 0.1191272587473945, 0.11955013898177476, 0.11991022173689989, 0.1203118822354656, 0.12062725432067638, 0.12092750101444724, 0.12114642431062836, 0.12142382799034694, 0.12170750000220991, 0.12194317259911303, 0.12216187062869582, 0.12237064681809771, 0.12255571755315874, 0.12273022178532803, 0.1228844675856195, 0.12302459719105895, 0.12317878843088445, 0.12328873364102105, 0.12342400909035663, 0.12350789453584501, 0.12358373149551903, 0.12365078487823783, 0.1237113896272202, 0.12376670984548936, 0.12381314960300469, 0.12385349239042046, 0.12385585888320905, 0.12388986973394907, 0.12395599845575277, 0.12397404649588817, 0.12399014008588607, 0.12403836465496061, 0.12404842005705793, 0.1240395781719187, 0.12405702002290883, 0.12407651784667144, 0.1241074896138911, 0.12413253225451805, 0.12412738206401104, 0.12416797199189342, 0.1242134226356402, 0.12433172779690825, 0.12438201121559796, 0.12440531390028979, 0.1244854625196508, 0.1245768660985239, 0.12470920170667102, 0.12482264221829216, 0.12492729123095625, 0.12507674597130056, 0.12524252925181834, 0.12541237333242036, 0.1256157820707081, 0.1258704949335014, 0.12610871080590755, 0.12636998245751083, 0.12670197830969196, 0.12700618295473026, 0.12727489368164915, 0.12764465306103182, 0.1280404790142854, 0.1284931528308499, 0.1289409412052575, 0.1294295312578474, 0.1299395309840766, 0.13048313919317386, 0.1310201641956264, 0.13163872980086103, 0.13230072498340126, 0.13298707005448202, 0.13371023104357843, 0.13447414249406728, 0.13527376663068746, 0.13615360132499713, 0.13702939954265733, 0.13794953027791843, 0.1388754947177728, 0.13989114861811586, 0.14095757129767092, 0.14206155677261556, 0.14321197680498235, 0.14444121581524166, 0.14568317597258038, 0.1469339599143416, 0.14828343716080367, 0.1496825389871829, 0.15118945994127364, 0.15268333492689234, 0.15425278055658528, 0.15585554658727624, 0.1575157232833202, 0.15916580028073196, 0.1609501453569956, 0.16284524840113154, 0.16473225728122687, 0.16667858903380645, 0.16867216887229405, 0.1707397212646552, 0.17287742261951844, 0.17506340349689653, 0.17731051996261016, 0.1796009832560617, 0.18197369039082573, 0.1844294804677053, 0.1869221464921237, 0.1894780844215561, 0.19204217466072088, 0.19473234462810732, 0.19754156645707713, 0.20034669584230894, 0.2032171532023814, 0.2061539369465428, 0.20915505776770008, 0.21216537115404135, 0.21530462617722113, 0.21850624352500445, 0.22182602221006895, 0.22514663601443233, 0.22853194401647153, 0.23198580799670543, 0.23550576976817802, 0.2390353305430001, 0.24269401964112935, 0.24640740083620866, 0.250191931574079, 0.25406927298301824, 0.2579746296339914, 0.26194418843445355, 0.2659309460976149, 0.27003406803995733, 0.2742008114933415, 0.27842512661702884, 0.2827103594349426, 0.28712031584442976, 0.2915188282219552, 0.2959430757215129, 0.3004734004041113, 0.3050638369917712, 0.3097396443661809, 0.31444548748502654, 0.3191454127954296, 0.32397863231961926, 0.32886645538698045, 0.33379808736027944, 0.33879548027262735, 0.3438973146711328, 0.3489935852511274, 0.35414474486191233, 0.3593526870339497, 0.3646103450006128, 0.3698819419017074, 0.3752476297793874, 0.38066123473468394, 0.38607907738712216, 0.39159169674736516, 0.3971904249259511, 0.40278341537470486, 0.4084208456957477, 0.4141207732555234, 0.4198415539459963, 0.4255445524669503, 0.43135635758046675, 0.4372046035893906, 0.44310377233240617, 0.449020540323587, 0.4549367393581049, 0.4609263625580523, 0.46694652309159057, 0.4730068391941846, 0.4790840417682846, 0.4851427750075712, 0.4912813303863006, 0.4974432200179707, 0.5035980098752452, 0.5098076800593803, 0.5160476934282264, 0.5222928652514285, 0.5285558161915928, 0.5348383139039194, 0.5411331131952241, 0.5474691089887265, 0.553788193978983, 0.560120641544252, 0.5663961601465923, 0.5727592789262912, 0.5791796397103204, 0.585544585790653, 0.5919150753243972, 0.598209343782513, 0.6045962532706504, 0.6109841673614869, 0.6173619727984774, 0.6237342643336692, 0.6300760238062602, 0.6364367655065255, 0.6428146780958828, 0.6491497817616859, 0.6554736118578801, 0.6617207539801788, 0.6680256793343254, 0.674297897341972, 0.6805648016378661, 0.6868094980288618, 0.6930910560396804, 0.699280499000108, 0.7053847494958525, 0.7115360160440537, 0.7176580953061057, 0.7237593322484298, 0.729818185567904, 0.735834153171695, 0.7418281553156441, 0.7477863542245046, 0.7537217096266292, 0.7596024027382087, 0.7653571197087805, 0.7711690061849602, 0.7769338393500721, 0.7826593892197944, 0.7883264932243509, 0.7939577020248423, 0.7995235084346962, 0.8050385737242729, 0.810457716009552, 0.8158729878798203, 0.8212197130218998, 0.8265212790905986, 0.8317631306813982, 0.8369528962207986, 0.8420713060955631, 0.8471713750451211, 0.8521586108891247, 0.8570837712254965, 0.861917660036626, 0.8667176467131025, 0.8714218819534244, 0.8760880321928466, 0.8806821928970537, 0.8852330068660018, 0.8896766079640126, 0.8940202949027721, 0.8983196814887097, 0.9025419874245912, 0.9066290148366122, 0.9107015905862903, 0.9147378337020625, 0.9186378439937062, 0.9224564134046614, 0.9261477647019111, 0.929806369781313, 0.9334346009931715, 0.9369122139923053, 0.9403052582346986, 0.9435611914621945, 0.9467886345113945, 0.9499448088474477, 0.9529886603708753, 0.9559422831430495, 0.9587859532423096, 0.9615596377792951, 0.9642668855929784, 0.9668504468603591, 0.9693414967073601, 0.971654464262364, 0.9739693638804966, 0.9761880517541395, 0.9783045933931399, 0.9803224780506467, 0.9822312464411211, 0.9840532283540476, 0.9858198911769741, 0.9874379312689638, 0.9889592859360464, 0.9904065116991285, 0.9917305874330097, 0.9928991448641893, 0.9940375683332796, 0.9950755059558563, 0.9960484176654382, 0.9968813592874383, 0.9975961861175652, 0.9982353712306242, 0.9987751105051084, 0.9992021390213377, 0.999544982286529, 0.9998185138853307, 0.9999580575042594, 1.0, 0.9999243387105933, 0.9997737729421323, 0.9994808282052856, 0.9991391833629221, 0.9986972727765477, 0.9981653628291564, 0.9975238611580717, 0.9968248207352282, 0.9959836042861587, 0.9950482094379737, 0.9939559289909599, 0.9928410272641524, 0.9916312985577047, 0.9903236050986097, 0.9889211038894032, 0.9874666543928668, 0.9858718227228458, 0.9841327197261133, 0.9823655296420365, 0.9805064758895642, 0.9785346376570445, 0.976497703633854, 0.9743831246454654, 0.9721656885463169, 0.9698612093094222, 0.9674334880821833, 0.9649626854035824, 0.9624430195817611, 0.9597966580151406, 0.9570688930293842, 0.9542568572415693, 0.9513696315295368, 0.9483989077240536, 0.9453558564415181, 0.942235870770073, 0.939059125075743, 0.9357861286902598, 0.9323766184428889, 0.9289675257185719, 0.9254842308777061, 0.9219263631204007, 0.9182994832425195, 0.9145923074578064, 0.9108286188475735, 0.9070298868300909, 0.9031286130730083, 0.8991646417360903, 0.8951496594386684, 0.8910625450125903, 0.8868463058733275, 0.882652258210052, 0.8783980543454416, 0.8741388942474058, 0.8697628408307002, 0.8653462100047075, 0.8608658453206903, 0.8563365053709538, 0.8517287935358329, 0.8471088211383668, 0.8424388096689558, 0.8377263165974628, 0.832969418254155, 0.8281991783237783, 0.8233541575117979, 0.8183954119810971, 0.8134844811501664, 0.8085334515549115, 0.8036129077662749, 0.7985785518619577, 0.7934580548783494, 0.7883702881117653, 0.7832509901475738, 0.7781218677423298, 0.7729419367611376, 0.7677269561657926, 0.7624986335043474, 0.7572470919402012, 0.7519356381919724, 0.7466469128693124, 0.7413620387063204, 0.7360299989956938, 0.7306818332219913, 0.7253075405399184, 0.719932907391378, 0.7145591697626927, 0.7091594114821179, 0.7037509017191854, 0.698352156614411, 0.6929279766283475, 0.6874274656691773, 0.6820060281347754, 0.6765790733626534, 0.6711970431389835, 0.6657581423571022, 0.6602996183157525, 0.6548693379500167, 0.6494425314894341, 0.6440339188120184, 0.638616420560747, 0.6332033252844422, 0.6278039245248809, 0.6224148681556687, 0.6169896233249931, 0.611630828125668, 0.6063127942273607, 0.6009741359881704, 0.5956513016269519, 0.5903588191920794, 0.5850694209998482, 0.5797255882693557, 0.5744866017210026, 0.5692654146494573, 0.564120858961122, 0.5589326599050467, 0.553767078262442, 0.5486310799027697, 0.5435221480554773, 0.5384478457379392, 0.5333948372293262, 0.5283718793112716, 0.5233797617381298, 0.5184192672972366, 0.5134320011339966, 0.5085445492242081, 0.5037105998684764, 0.49888266845191614, 0.49408898998205747, 0.4892875180543324, 0.48457043455850435, 0.47987059927029824, 0.4752256745251567, 0.4706164033738858, 0.46607444954317256, 0.46153591527365, 0.457054104274079, 0.4525951669671012, 0.44817890405519323, 0.44375804993589735, 0.439434509496922, 0.4351684997713807, 0.4309263117541783, 0.426727858486968, 0.4225402762995898, 0.4184350931646176, 0.41444389519387964, 0.4104172087233463, 0.40643918201267226, 0.4024926427523819, 0.398614139984814, 0.3947938895697588, 0.3910097481711774, 0.38727429942644254, 0.38356948477909036, 0.37993393512717705, 0.37627851916681293, 0.3727475332052692, 0.36926103628201656, 0.36588367865727806, 0.3624801117077148, 0.35905968065515126, 0.3557643850395229, 0.35251516158687324, 0.349318201915112, 0.34616171980715227, 0.3431072048544688, 0.3400391936266578, 0.33702217156405156, 0.3339928218012384, 0.33108476059912917, 0.3282919000375462, 0.32546832191742636, 0.32269541965851906, 0.31994313732292656, 0.3172739316216338, 0.3146571498816878, 0.31208245667188556, 0.30955528659497855, 0.3070772827921336, 0.3046441074515328, 0.3022443643338122, 0.2999061433219624, 0.2976133119109258, 0.2953427292231447, 0.2931428385499723, 0.29098722348542166, 0.28887373129031246, 0.2868033229485259, 0.284784371395922, 0.28279835923763735, 0.2808274801047634, 0.2789301971594783, 0.27707337245380387, 0.2753159690591385, 0.273531914206891, 0.2717765698699165, 0.27007956818742834, 0.2684231961881267, 0.2667485903702853, 0.26517889761938324, 0.2636761274849548, 0.2621731403001796, 0.26070695179441394, 0.259227404035172, 0.25783947633378257, 0.2565115970318081, 0.255184738187708, 0.25389139014782597, 0.2526415340522619, 0.25141230723640373, 0.2501649830142229, 0.24900645371178548, 0.24787623451518714, 0.24683990570697756, 0.24575711618511406, 0.24464810151860403, 0.24363367417365123, 0.24264519599312123, 0.2416707745215235, 0.24073428601649619, 0.23985412739183556, 0.23896085595539784, 0.23809236221769917, 0.23720778926068797, 0.23639159944010912, 0.23566624748431278, 0.23488112010607906, 0.23411925578444745, 0.23330514051176557, 0.2325960323345768, 0.23197734895281802, 0.23129044208044436, 0.23062294165069644, 0.2299346862771131, 0.22930788898781515, 0.22865524373922305, 0.2280613818837884, 0.22747829520931395, 0.22692477952996, 0.22635991246599782, 0.2257791694499202, 0.2252388102600639, 0.2247066610348019, 0.22422625330874477, 0.2237038338443931, 0.2231708432475361, 0.22266908695048676, 0.22215021653613884, 0.22166435789289743, 0.2211826881068906, 0.2207343758570717, 0.2202560728580903, 0.2197355449719435, 0.2192715204255155, 0.21880800500046513, 0.21838668772971606, 0.2179179435576773, 0.21744248079660156, 0.21697784373363796, 0.2165131779905703, 0.2160955948131421, 0.21562303281184295, 0.215107440253247, 0.21464121687294013, 0.21417155805787486, 0.2136741236490004, 0.21319917409692574, 0.2127686102424571, 0.21227461114807822, 0.21177671171873458, 0.2112169529461961, 0.21071643896593967, 0.21025550748803476, 0.20973053708330044, 0.20919893705495243, 0.20863151737024005, 0.20808863045104525, 0.20750347210758244, 0.20694479902628957, 0.2063739954102288, 0.20584833732515126, 0.2052460459927814, 0.20458039284587057, 0.20396652202534826, 0.20333961196679076, 0.2026986868885849, 0.20204573263395206, 0.20138242143391413, 0.2007025950027427, 0.2000095551064199, 0.19934231207053169, 0.1986175385738397, 0.19789760303139214, 0.19714756323055158, 0.19638620096661613, 0.1955338076869666, 0.1947583732255828, 0.1939896844089711, 0.19317728699622605, 0.1923496364859791, 0.19149243327032475, 0.19063612777506916, 0.18976856927826696, 0.1888797298705567, 0.1879753561882121, 0.187052638172072, 0.18611771166548285, 0.18521495275660943, 0.18424295917208122, 0.18325822241692624, 0.18226805535346746, 0.1812559489916821, 0.18022020448252674, 0.1791828952221878, 0.17813140344491143, 0.1770675614513877, 0.17598726318127336, 0.1748307128290366, 0.1737298082715631, 0.17261120684256936, 0.17149071465705612, 0.17033635839344147, 0.1692000583776253, 0.16801109398452016, 0.16680926016624584, 0.16557930369412244, 0.16435373572372278, 0.16308116164901823, 0.16183281837278657, 0.1605694202019865, 0.15931913134936238, 0.15802356063256007, 0.156719689934659, 0.15539959393268998, 0.15406798815372874, 0.15272218909208096, 0.1513684770102756, 0.1499807660662962, 0.14860799963694699, 0.1472233387289942, 0.14581290673479427, 0.14440756732107868, 0.14305856057642946, 0.1416223155531693, 0.14017945078506833, 0.1386611774251982, 0.13721358270373366, 0.1357907382220376, 0.13431816871882127, 0.13283821123412792, 0.13132632077177178, 0.12983553897737243, 0.12833776503586783, 0.12683146555201655, 0.1253182484803222, 0.12385869480452678, 0.12232539991356423, 0.1207593594546184, 0.11922545524421664, 0.11768756708528161, 0.11617938386406006, 0.11463017691709991, 0.11303394765202161, 0.11148815692035621, 0.10993872686607334, 0.10837184194240128, 0.10681843045527313, 0.10529735167812512, 0.10373410123523842, 0.10217099474753534, 0.10061878318581521, 0.09905541236933739, 0.09747640104910381, 0.09591848836333335, 0.09436159189353693, 0.09284236575196109, 0.0912840827636813, 0.08970902091349632, 0.08816192150424762, 0.08661808607148742, 0.08503585304339323, 0.08350485032630979, 0.08199580304067342, 0.08046677700320819, 0.07894211563372408, 0.07745566762153591, 0.07593683899262113, 0.07442364271330018, 0.07292027928769347, 0.07142465592386553, 0.06993029175779285, 0.06845160737380604, 0.06693607673553853, 0.06547937306381861, 0.06402874934549804, 0.06258390926819243, 0.0611474961515424, 0.05972468089464478, 0.05830383104394808, 0.05689222643718442, 0.05549220566842967, 0.05410011574720684, 0.05275390817064215, 0.051378844215412646, 0.05001701174329067, 0.04871425070153558, 0.047373203846501316, 0.04603475242246185, 0.0447270262457229, 0.043434004009825146, 0.04213558406671231, 0.04087435699430804, 0.0397096554103776, 0.03846511714191015, 0.03723912381864608, 0.03603693242086348, 0.03484598188658774, 0.03367177961274647, 0.032516066161999334, 0.03137748918302637, 0.030254935708220656, 0.029150326118309224, 0.028066283685083442, 0.02699467086293658, 0.025940013517208954, 0.024913771821577748, 0.023891628209789746, 0.022962576632077805, 0.021966282357453005, 0.020991914934044655, 0.0200885303266078, 0.01915012679478208, 0.01818728229323745, 0.017300750307107628, 0.01643350286930109, 0.015655094025383717, 0.01481731024318604, 0.014054993640611212, 0.01325596855820727, 0.012481842365238664, 0.011740403702930087, 0.011012715547722698, 0.01029024300521587, 0.009611015659119159, 0.00895315912810249, 0.008406181632325942, 0.007779179494418288, 0.007158102583114658, 0.006584793802401585, 0.006055900270395722, 0.005526399422238899, 0.005020820995433685, 0.004578847888516284, 0.0041149271529292986, 0.003697204644214438, 0.003280523228039131, 0.002889292919917337, 0.0025478207789663373, 0.0022029295273548626, 0.0018597702732943552, 0.0015686150632158895, 0.0013008735867387404, 0.0010898390957379542, 0.0008644168754022371, 0.0006907971809046173, 0.0005118877709589405, 0.00035907670979222624, 0.0002730247159006268, 0.00016616330435391676, 7.627884866291465e-05, 2.5173633096111998e-05, 0.0, 1.1938081816283677e-05, 3.6420566818325776e-05, 0.0001574468562484456, 0.00022463015649152647, 0.00032131955999982286, 0.00045350495887920084, 0.000606397334435319, 0.0007893169480925496, 0.0009977470745865687, 0.0012335677599681846, 0.0014659186562955202, 0.0017594824751363816, 0.0021676532095541664, 0.002499765379006416, 0.0028620119289836494, 0.00326524098762656, 0.0036845931246680453, 0.004098833675171159, 0.004580582775620729, 0.005088853570856371, 0.005625542089257896, 0.006186603778433348, 0.0067743326114450995, 0.007388769022816442, 0.00802997101981892, 0.008759089517227406, 0.009446330128563904, 0.010138248663799747, 0.010889249280340208, 0.011668538815586259, 0.012507555667477707, 0.013339302953899668, 0.014238238851265423, 0.01512498141547794, 0.016043357350776576, 0.016970973497616445, 0.01795413767915109, 0.018958003542320256, 0.02000077167328779, 0.021072252527059358, 0.022157240399543532, 0.023288283936179443, 0.024517084958635693, 0.02569572515403509, 0.02690680918618579, 0.028125176560742954, 0.029403306271293107, 0.030730714283403536, 0.032066834877871986, 0.033434280885336655, 0.0347900117336177, 0.036225287436709434, 0.037764684218143024, 0.03924822249646267, 0.04076537980014334, 0.04231489770463458, 0.04389855953603786, 0.045471142470691804, 0.04712585661499415, 0.04881068698832176, 0.05054787109652018, 0.052291008486705294, 0.05409590389620927, 0.05589972196701403, 0.057737534240295985, 0.05957579580469292, 0.06148542881962018, 0.06346980650213505, 0.06543783301356332, 0.0674405121739258, 0.06947198349469767, 0.07154432441738688, 0.0736106137057543, 0.07575609112083795, 0.0779333817677515, 0.08017529687901633, 0.08241317543023623, 0.0847124236815891, 0.0870162493338095, 0.08935629383892027, 0.09169421980176974, 0.09411107314528291, 0.09662937218807147, 0.09910526916649204, 0.1016191159015652, 0.10412286042853898, 0.10671769126193237, 0.10938226011047843, 0.11204167717674784, 0.11473788721426409, 0.11747269370665746, 0.12024195902965738, 0.12300112121851378, 0.12584956721767737, 0.1287319638199806, 0.13170306748988808, 0.13464753011203906, 0.13762615759804886, 0.14064689612755352, 0.14370508765470455, 0.14675006258699155, 0.1498893047204565, 0.1530638958214396, 0.15627216656515486, 0.15951556465062525, 0.16280486139757233, 0.16611797304542417, 0.1695037865693952, 0.17288527988797553, 0.17630541560495191, 0.17972578919306975, 0.18322736544222784, 0.18681443608283604, 0.1903816054308721, 0.19398766576416712, 0.1976504343328469, 0.20133106590681418, 0.20499252517950664, 0.20875821553212393, 0.21255894239885859, 0.21644161666957173, 0.22030691690953128, 0.22414724469587843, 0.22809622328403384, 0.23207907315759582, 0.23611892897375106, 0.24016726847505618, 0.24426944810398896, 0.24838682293691777, 0.25254073360535956, 0.2567385522584227, 0.2609637853117838, 0.26518989432982476, 0.2694916494154124, 0.27382698475528605, 0.2781920639467909, 0.2825949543138627, 0.28708546016657494, 0.29154783211874413, 0.2960462936995266, 0.3005440098503928, 0.3051175548702829, 0.3096824891309082, 0.31432587070966594, 0.31899894803131673, 0.3236951295844875, 0.3284286514261024, 0.33324694243591185, 0.33803228048601097, 0.34285005129910257, 0.3476510185070091, 0.3525381256074914, 0.3574733115330033, 0.36241381275090606, 0.36738313921655946, 0.3724095303846383, 0.3774316976267638, 0.38248116566757556, 0.38756132410906247, 0.39266926065158975, 0.3977270448952124, 0.4028984343569113, 0.40808281033547505, 0.41329844710177216, 0.41853512276433436, 0.42381758608171544, 0.4290929379160257, 0.4343550090855352, 0.4396784253529322, 0.44502093872518506, 0.45042335130026345, 0.45579810473456345, 0.4611523392465446, 0.46657258526250134, 0.47200957654057724, 0.4774390411065052, 0.4829112532731705, 0.4884242183097241, 0.49392076497390835, 0.4994320850367652, 0.504970862614439, 0.5105079878003599, 0.5160499524676777, 0.521614176030227, 0.5271285745350324, 0.5327222438773599, 0.538322159804737, 0.5439594996197877, 0.5495669066121617, 0.5550914620458233, 0.5607231605532554, 0.5663551284730259, 0.5719977762998563, 0.5776285855093777, 0.5832310464886942, 0.5888655737325688, 0.5944977743378548, 0.6001721347056462, 0.6057928224537963, 0.6113627261326827, 0.6169864156518923, 0.6226042321033416, 0.6282356284974497, 0.6338373384100631, 0.6393894113481933, 0.6449822535094645, 0.6505641403100553, 0.6561153703451562, 0.6616758554037813, 0.6672700116733937, 0.6727957465556368, 0.6783088025260495, 0.6837374332742265, 0.6892306858156815, 0.6947115546201357, 0.7001632471551336, 0.7055941653643689, 0.7110083315257524, 0.7163948024207525, 0.7217192547530191, 0.727063979570282, 0.7323817653800012, 0.7377015479493404, 0.7429597089496067, 0.7481389389002082, 0.7533477789182915, 0.7585242306402342, 0.7636476027259448, 0.7687598035336365, 0.7738859996335367, 0.7789200209318077, 0.7839198508551913, 0.7888518884545456, 0.7937839830103872, 0.7986556235736448, 0.8035105792028219, 0.8083231190089263, 0.8130686292010076, 0.8177970497159971, 0.8225356450111336, 0.8271640180513264, 0.8317480418946389, 0.8362731487145517, 0.8407665629083207, 0.8452046374548002, 0.8496005385795795, 0.8539453332848354, 0.8582275517960084, 0.8624685467448328, 0.8666625713648952, 0.8707925123449047, 0.8748665150638953, 0.8788473670025092, 0.8828112433337616, 0.8867095536759024, 0.8905518119961363, 0.8943317157853583, 0.8980009037050386, 0.9016601762730058, 0.9053249482598564, 0.9088406690616652, 0.912292731387386, 0.9156238149657913, 0.9189526657981602, 0.9222155560135334, 0.9254038875939524, 0.9285216639609744, 0.9316026748943874, 0.9345732799525179, 0.9374009809644063, 0.9402391273930163, 0.9430010935675993, 0.9457458054197103, 0.9483471538394181, 0.9508070244995931, 0.9532686669451742, 0.9556511495240982, 0.9580038715310172, 0.9602210428915187, 0.9623696448896547, 0.9644306960299495, 0.9664136660926885, 0.9683197370866947, 0.9701441617233806, 0.9718083802746265, 0.9734822278542512, 0.9750703096653988, 0.9766376065483845, 0.9780461618003415, 0.9793755829319934, 0.9806192297872638, 0.9817799745557768, 0.9828067376971226, 0.9838066154927422, 0.9847632717687107, 0.985583377609046, 0.9863188546300622, 0.9868882270319387, 0.9874636708605802, 0.987998599389582, 0.988387888339355, 0.9886905789359061, 0.9889056334310253, 0.9890350138066049, 0.9890240976589055, 0.9889865044616203, 0.9888590271272099, 0.9886325632662913, 0.9883278135570911, 0.987964410355867, 0.9874778470745934, 0.986904643791323, 0.9862077193685463, 0.9854663708022974, 0.9846329332014774, 0.9837160062581646, 0.9827115382444501, 0.9816734509914737, 0.9804885642868327, 0.9791460929477502, 0.9778043450762305, 0.9763753601629869, 0.9749047072663037, 0.9732976932310533, 0.971613751489785, 0.9698409923393738, 0.967986505465844, 0.9660315075846828, 0.9640169263716238, 0.9618843013175843, 0.9597113124156598, 0.957455652805458, 0.9551048475147254, 0.9526881735992739, 0.9501897269557853, 0.9476124826565634, 0.944956236015752, 0.942240988180231, 0.9394270518400594, 0.9365674727075239, 0.9336000696512289, 0.930560572650725, 0.9273826997016319, 0.9242090744600457, 0.9209937567055613, 0.9176689386596489, 0.9142741551707884, 0.9107997883774217, 0.9072690550621353, 0.903721029677471, 0.9000491638391763, 0.8963142847450891, 0.8925055529232434, 0.8886479913982019, 0.8846867906284231, 0.8807121093660002, 0.8766751924665371, 0.8726088060800247, 0.8684472432237815, 0.8642223198038764, 0.8599492351417811, 0.8556211096787626, 0.8511684208304353, 0.8467424572672924, 0.8422904213018928, 0.8377511175343575, 0.833161190681624, 0.8284828839095996, 0.8238007577741944, 0.8191347808318696, 0.8143486051702269, 0.8095205750904192, 0.8046526828798382, 0.7997439650009419, 0.794781372338629, 0.7897984831808471, 0.7847783724384122, 0.7797165906920126, 0.7746265957886104, 0.7695057659658807, 0.7643493506424992, 0.7591620720320842, 0.7538688949707871, 0.748633483173515, 0.7434374894306738, 0.7381326735261067, 0.732779595067281, 0.7274322410513148, 0.72206250214272, 0.7166680030207175, 0.711258286674878, 0.7058302493950489, 0.7003853188654807, 0.6949249066018801, 0.6894112810303102, 0.683929028994592, 0.6784838299451112, 0.6729698012073253, 0.6674483809773601, 0.6618758870026874, 0.6563488806039063, 0.6507735167219977, 0.6452406434281526, 0.6397021201569723, 0.6341826690643734, 0.6286353279820248, 0.6231232131717404, 0.6175746951963382, 0.612031796389031, 0.6064994207234746, 0.6009705431652258, 0.595435505578815, 0.5899278478371563, 0.5844305892262727, 0.5788962620026722, 0.5734295556927747, 0.5680122673328395, 0.5625647823444652, 0.5571337433823924, 0.5516601638948033, 0.5462730176560903, 0.5409490784169233, 0.535590488404875, 0.5302540556349467, 0.524908397148407, 0.5196235607439333, 0.5144061094128339, 0.5091639730024679, 0.5039502993714566, 0.49869434922083067, 0.4935491641061016, 0.4885006089458762, 0.4834019556689444, 0.4783369321513631, 0.47326235274606476, 0.468272289126824, 0.4632745153870407, 0.4583573744653304, 0.45347337445244795, 0.44868873639881324, 0.44386670935771927, 0.43909856913228945, 0.4343564869756522, 0.42965684693073664, 0.4249772212383037, 0.42036680276323846, 0.4157407873091206, 0.4112236525378745, 0.40674722241215727, 0.40230497703776474, 0.39791418802915807, 0.3936412301415599, 0.38932877143966865, 0.3850657286974292, 0.3808542353249303, 0.37669047109165804, 0.3725339966351402, 0.3684763747540819, 0.3644670681248397, 0.36053816815450196, 0.35662326291617746, 0.35274293503804893, 0.34893394060928745, 0.34517618861431676, 0.34140704740810884, 0.3377607853341399, 0.3341718115652779, 0.33062264950246933, 0.3271241568936739, 0.3237312825091335, 0.32032883758941033, 0.3169386284047819, 0.3136519048387271, 0.310417810328533, 0.30720512449161286, 0.3040810434927201, 0.3010839020408128, 0.2980537772977506, 0.295080153638437, 0.29209302026789064, 0.28924019238681775, 0.28650386390031723, 0.28374629179554495, 0.28104441019045373, 0.2783291175327493, 0.2757461499141201, 0.2731995647974769, 0.27071999017465403, 0.2682906196130209, 0.2659774797041284, 0.26364065063501424, 0.261328460221665, 0.2591032703854667, 0.2569295572081609, 0.25484233917469057, 0.2527662140673931, 0.25069297465858253, 0.24872750398381263, 0.2468104868971174, 0.24494170463074508, 0.24312089821787677, 0.24131627754311832, 0.23959447956584137, 0.23791789625591556, 0.2362892475313747, 0.23470224155094996, 0.23322108288351284, 0.23171555893062262, 0.23025752094772484, 0.22882888199742654, 0.2274652857352436, 0.22609783639298284, 0.22482729402900833, 0.2235965202799247, 0.22247771719396497, 0.22131627474730267, 0.22013264424482265, 0.2190637725038693, 0.21803190040930312, 0.21708237198565236, 0.21611727503571873, 0.21512630181698494, 0.2142444811836113, 0.21339527645655362, 0.21259451727261605, 0.2118072587861704, 0.21105314858779872, 0.2103294919118448, 0.20963672955549464, 0.20900182193907949, 0.20836518464740797, 0.20771966950137916, 0.20714749528349316, 0.20660142042894586, 0.20611706825127835, 0.2056166546407942, 0.205134738497843, 0.20468654998884356, 0.20426207315966527, 0.20385085450596263, 0.20347228473648796, 0.20316476250746898, 0.20281991896212856, 0.2024967527152157, 0.20211005640555949, 0.20183723757227076, 0.2016102975046122, 0.2013598209875133, 0.20112371544750765, 0.20093557043194482, 0.2007215568156634, 0.2004642660937251, 0.20028440433333983, 0.20011323344714105, 0.19993399539170814, 0.19978062513714684, 0.19964766146818547, 0.1995041804301149, 0.1993665907210854, 0.19924090589050136, 0.19911223995804977, 0.19898302955830688, 0.1988626671829537, 0.19874475536253064, 0.1986686614924867, 0.1985484347017708, 0.1983868563880437, 0.19827623675573972, 0.19816366266007968, 0.19809815325386718, 0.19797356767489538, 0.1978489269550451, 0.1977211806521447, 0.19759048439560017, 0.19744826770093987, 0.1973098726548097, 0.1971033851931565, 0.19695995950446582, 0.19680551114870898, 0.1966656045423399, 0.19648520645207956, 0.19626874779169964, 0.19607051280604748, 0.19585952305454116, 0.1956459793356504, 0.19540724001090462, 0.19521359807601177, 0.19494082721177025, 0.19465733438727412, 0.1942887319692851, 0.1939904385598443, 0.19367381384213497, 0.1933407444105941, 0.1930596020981846, 0.1926820640232294, 0.19229031908657931, 0.19187977909261467, 0.19145784938248397, 0.1909668691243613, 0.19051787745364768, 0.1900482708780828, 0.1895637063812987, 0.18905192483894084, 0.1884928818733156, 0.18794325089681826, 0.18737128257273294, 0.18682953261792082, 0.1862064287802384, 0.18558315227855884, 0.18491870063283844, 0.18423526966834033, 0.1834703352044493, 0.182755368643798, 0.18202330685580873, 0.1812601038985403, 0.18047380170345903, 0.17966542831659105, 0.17883302308311447, 0.17797491722552192, 0.17709725564170622, 0.17619671081232668, 0.1753029515877043, 0.17435315317269467, 0.1733337177070102, 0.17234799688754357, 0.17133832227932416, 0.17030309777923952, 0.16924667702514393, 0.16818426150573346, 0.1670796067544698, 0.1659533001534465, 0.16482932704175648, 0.16365709116599186, 0.1624649562373093, 0.16125289187671576, 0.16002090379825498, 0.1587986165835658, 0.15752319203094098, 0.1562249465844871, 0.15491392042914323, 0.15358442072494977, 0.1521944967121271, 0.15083352408923978, 0.1494328823097025, 0.1480336563687279, 0.1466137644331891, 0.1452053363426395, 0.1437420151800913, 0.14221105404280662, 0.14072032790343755, 0.13921035639235907, 0.13774774455421268, 0.13619318497426172, 0.1346261898787723, 0.13304485878005615, 0.1314504901651479, 0.12983946677327313, 0.12822014207717833, 0.12653291856657758, 0.12489582899575083, 0.12324376970118972, 0.12162336970024772, 0.11993800489867956, 0.11820824414043801, 0.11650750208537296, 0.11479552844584817, 0.11306822495284102, 0.1113363950467879, 0.10964370938452626, 0.10788733762735105, 0.106125487922957, 0.10428301211215568, 0.10252051072319326, 0.10081689863609382, 0.09902904012382009, 0.0972379644243895, 0.09541535342227911, 0.09362242850135082, 0.09179038760786437, 0.08999493611559455, 0.08819492777394965, 0.08638743244919855, 0.0845814126392831, 0.08284473703360438, 0.08102600665586973, 0.07921063273424415, 0.07739973116112339, 0.07559147715874379, 0.07379296886149586, 0.07199230093476315, 0.07019654803798371, 0.06836305056754269, 0.06658344709765533, 0.06484356210914431, 0.06306699456288672, 0.06129732358262177, 0.05955783550778071, 0.057800225252644805, 0.05599568676127696, 0.05426419580772248, 0.05253944356855501, 0.050876586866753885, 0.04916068069691784, 0.04740903645863089, 0.0457233584486473, 0.04404748340206655, 0.042448890067974365, 0.040786172124034285, 0.039112232988085215, 0.03748396034084413, 0.03586986498237643, 0.03427890158111424, 0.03269317977650817, 0.031126100091336106, 0.029571890394107143, 0.028034263960110984, 0.026568886921114452, 0.02505838055406769, 0.023583804108594397, 0.02211258169111767, 0.020662724114249995, 0.01920739325120296, 0.017803356255080078, 0.016481999200434746, 0.015109645619838312, 0.013761057415986796, 0.012444605295528245, 0.011141878409354483, 0.009913531107103274, 0.008651910565219755, 0.007416791560807137, 0.006180101582670449, 0.005000389057274737, 0.003934413509550323