0.05394725478425362, 0.053378486467543534, 0.052798261781004704, 0.052277871282447964, 0.051772837175155996, 0.05134890547475242, 0.050859430819567855, 0.05031074808221199, 0.04985486872543846, 0.04940445070436199, 0.048978392787595665, 0.048534003979413806, 0.04811165270448841, 0.047673427428052806, 0.04723964454560515, 0.0468098330142423, 0.04638364087350922, 0.04594984737049494, 0.045531629657965186, 0.04511593374101143, 0.04466772417911334, 0.04426179480339193, 0.043863370442216144, 0.043458931148528834, 0.04305673458031811, 0.04266596773876974, 0.04226836669396844, 0.04186373513214148, 0.041475723044854605, 0.04106533327922301, 0.04068896646044965, 0.04031586308306752, 0.03996415976019312, 0.039597059920803895, 0.039306052118941365, 0.0389421211137468, 0.03858862032075554, 0.03824307982792776, 0.03790994677260717, 0.03750744915293119, 0.03720348146244212, 0.036904542127807166, 0.036600254094468904, 0.03631449712238878, 0.03607210382923361, 0.03579428639716062, 0.03552566269336678, 0.035187379962623486, 0.03494759201669158, 0.034792023877637274, 0.0345534540413238, 0.03432601350956987, 0.034052635353386665, 0.03385466210244327, 0.03374144862436345, 0.033550149838754394, 0.033372046374679436, 0.03315864448431446, 0.033012441405439935, 0.032854260767640656, 0.032731058264675386, 0.032617152325673825, 0.03246030430666795, 0.032372913259553125, 0.03234133997011476, 0.03226367702470095, 0.03219770427449986, 0.03215681590457579, 0.03211322417262558, 0.03212659459696465, 0.03210367811491024, 0.032096471504702205, 0.0320827723750105, 0.03210904150252916, 0.03214916459469797, 0.03220319781377745, 0.03227121303945899, 0.032307209250642885, 0.032409287339064334, 0.03253622524735667, 0.03266051465654702, 0.03279818307042128, 0.03291662809346991, 0.033086151270220625, 0.03325494078958744, 0.033451533070212, 0.033660846967776915, 0.03394488756493966, 0.03417349144562126, 0.0344066191382118, 0.034672197204468104, 0.03495460495822039, 0.03518808281571847, 0.03551271955623749, 0.03592097776399018, 0.03626414936011013, 0.03662585060776748, 0.036937995953402324, 0.03734522279580971, 0.037810956588431435, 0.03824241212097723, 0.03869199143146767, 0.039100534686267216, 0.03959413887920771, 0.04019500040535627, 0.04070768627645017, 0.04124170900520973, 0.04182531481184403, 0.04239759529260923, 0.0429218590782045, 0.04354704563757395, 0.044189769017172226, 0.04484592052895787, 0.045525091501663735, 0.046285972399253944, 0.04699348005055457, 0.04772310746675308, 0.04832531687377472, 0.04911718741836865, 0.05006467003840485, 0.050865439003137815, 0.05168908170232077, 0.05249134532233175, 0.05336524882781384, 0.05416863001920276, 0.05509293601394251, 0.056031857322527315, 0.057005952679484446, 0.057973925956397325, 0.059005833260635535, 0.060004040813656685, 0.06102336018137316, 0.06199345132708674, 0.06306353670353695, 0.06419434486155322, 0.0652929884469112, 0.06641174864440534, 0.06754838831622843, 0.06870751627755041, 0.0699325525612434, 0.07112542852400394, 0.0723405643234811, 0.07356652311105512, 0.07482620938512126, 0.07611941624430661, 0.07741786081017417, 0.07873684606445563, 0.07998822400105066, 0.08135832467784736, 0.08276715815646936, 0.08416379357616226, 0.08557710980607737, 0.08698303634588815, 0.08843294130908133, 0.08988291447130901, 0.09136578635762413, 0.09286350067334805, 0.09440257913103438, 0.09592714789052262, 0.09747061842171396, 0.09902813710680276, 0.10060209446450641, 0.10224053376038898, 0.10384053550941524, 0.10552477254155133, 0.10715258219691168, 0.10880120178618383, 0.1103839256331823, 0.11208173879824332, 0.11376835352975974, 0.11549493904745917, 0.11723276650422265, 0.1189993910836263, 0.1207574383893063, 0.1225144267853438, 0.12429810655318682, 0.1260926428221853, 0.12794834244348977, 0.1297576758666967, 0.1316108421757426, 0.13344186306981967, 0.13528645962528557, 0.13707796058716626, 0.13895559076804415, 0.14080125953782616, 0.14269881169232168, 0.14460134786357579, 0.14656823043915182, 0.1484735012351546, 0.15037624567552962, 0.15229925435132655, 0.1542290185839545, 0.15615193586637618, 0.15809556898587174, 0.1600680464232279, 0.16201769586407996, 0.16397271089852866, 0.16593911175330586, 0.16790234461182046, 0.16981039537519343, 0.17178867568100933, 0.1737665351928629, 0.17583386348678595, 0.17779918456715674, 0.1797292174678591, 0.1817070157106554, 0.18368496927959815, 0.1856691322771849, 0.18764497814800155, 0.18962196395156466, 0.19159484902013071, 0.1935656632424888, 0.19550749546230478, 0.19747577967089874, 0.1994585648087873, 0.2014135091223189, 0.2033636086544829, 0.20523151231127462, 0.20718001956368653, 0.20911776089007234, 0.21104482045277562, 0.2129612069843555, 0.21494367323899966, 0.2168287626174432, 0.21862373837727528, 0.22050509437005258, 0.2223733996959848, 0.22428560442670994, 0.22612020698480229, 0.22796860953183284, 0.22977875884252738, 0.23157850159342427, 0.23330770388454697, 0.2350915285894595, 0.23694030174907177, 0.2386810610562671, 0.24036781314110667, 0.24208822798060117, 0.2437920562609514, 0.24554458727187492, 0.24720527710986775, 0.24879000079525532, 0.25042837180165656, 0.2520467397890502, 0.253677601985889, 0.25525053408468484, 0.25679087394641853, 0.2583259338950767, 0.25983948734882234, 0.2612959015303481, 0.262769340291512, 0.2642529027537307, 0.2656717254450389, 0.26706711421597396, 0.2684539102840793, 0.2697989424818058, 0.27113525248149506, 0.27242957723699474, 0.2736995177443716, 0.2748500428707961, 0.27608120112642937, 0.2773225089392792, 0.2784855060992389, 0.27961964795600225, 0.2807422451923253, 0.2818157090162379, 0.28284517758629163, 0.283862910000496, 0.2848503447538167, 0.28580941859662873, 0.2867352044343618, 0.28756419686041607, 0.2884361183581273, 0.2892728332645443, 0.29016018757743955, 0.2909163723138675, 0.29156154184698396, 0.29226776967112295, 0.29293847763594677, 0.29367695389929555, 0.2942639592303334, 0.29471399541749477, 0.2952549320676138, 0.2957588745101841, 0.29628748003976974, 0.2967102441981794, 0.29703631721349, 0.2974006347090973, 0.29772756666068234, 0.2980743495732908, 0.2983197906982719, 0.29846564221386057, 0.2986515370633928, 0.29879928358086233, 0.2990144543622542, 0.2990732431322523, 0.29900382896725836, 0.29901084742279915, 0.2989794898964195, 0.2989758335769775, 0.2988600904773642, 0.2986356957008726, 0.2984609665962678, 0.29824736335351276, 0.29801717986122483, 0.29772406666839885, 0.29741621556465075, 0.2970470539664281, 0.2966426335765212, 0.2961282644271172, 0.2956625709778041, 0.29519899312155023, 0.294649469005041, 0.2940638648704368, 0.29345771974896284, 0.292798546186911, 0.2920651917858193, 0.29134172364075206, 0.29058151370287255, 0.28981132267736615, 0.2889755553596076, 0.288143053483364, 0.28723464728906584, 0.2862946373829542, 0.28534267229087085, 0.28433670115094567, 0.2832671610388913, 0.28220393897475177, 0.2811080535437344, 0.27992710281825545, 0.2787733771405349, 0.27757611776767543, 0.27635473849044057, 0.27509956843149186, 0.2738157453012977, 0.27249464682747093, 0.2711596990515006, 0.26977418247033785, 0.26835945319869653, 0.2669093624763314, 0.2654383482413849, 0.26398295837363567, 0.2624503561574888, 0.26089294364511867, 0.2593745083778074, 0.257759902572746, 0.25610486684053163, 0.2544511577645058, 0.2527752725513643, 0.25107731467468025, 0.2493574497205801, 0.2476246783049517, 0.24586060688134145, 0.24407593658493468, 0.24215025410137817, 0.24034056810877233, 0.23851987981321351, 0.2366569085486179, 0.2347711206875638, 0.23292725758751537, 0.23099102482056147, 0.22901014610917267, 0.2270457230113764, 0.22506447343158992, 0.22307149321102393, 0.22105814589741601, 0.21908078726238703, 0.21703272838049587, 0.21497430508378576, 0.21287283514061364, 0.21079860613938758, 0.2086691270952456, 0.20657836835150153, 0.2044750628689427, 0.2024326275842733, 0.20029801273884085, 0.19816655665340305, 0.19601989215385984, 0.19386874206317753, 0.1915970997054682, 0.18945265365355504, 0.18731579996857703, 0.18515056212414155, 0.18297897371110117, 0.18086792578258457, 0.1786784148973848, 0.17647827704009852, 0.17429122386839843, 0.17210468311428656, 0.16996745268928717, 0.167777390692528, 0.16549117590575216, 0.16332363397556393, 0.161155592079934, 0.1590100669372463, 0.1568414044599489, 0.15471821677118489, 0.15255257324413307, 0.150394500428096, 0.14821802416110527, 0.14607953015976316, 0.14398778389759906, 0.14185941938541924, 0.1397417768226671, 0.1375649256664348, 0.13547852896349236, 0.13343719961319933, 0.13136254320814872, 0.12929956936038173, 0.1271939557514833, 0.12516290866343888, 0.12323864151998061, 0.12121678412586243, 0.1192124345144069, 0.117172995276933, 0.1152105870622852, 0.11330039054947727, 0.11136368833131882, 0.10944519581422868, 0.10754518826062438, 0.10566395862958669, 0.10380839876148436, 0.10196482885705367, 0.10014136536904042, 0.09823953542273901, 0.09646964020554112, 0.09479859537753141, 0.09305017315556881, 0.09132400969312483, 0.08954355264813182, 0.08787240242835355, 0.08623315920227664, 0.08459870839389878, 0.08298543089541442, 0.08144663082528948, 0.07987088783466999, 0.07828151935544043, 0.07676259362592824, 0.07523016553735232, 0.07376397555625987, 0.07232027792145548, 0.07091507914051788, 0.06951629096269225, 0.06819527077137622, 0.06684035782664738, 0.06551414524245334, 0.06420770543399286, 0.06293957913771632, 0.06170586276344151, 0.0604925374328108, 0.05930737622149188, 0.05820298908266858, 0.05706732275445598, 0.05584411024586096, 0.05478489448448776, 0.05374912536974319, 0.052750567836468774, 0.051761743788817705, 0.05079648372487359, 0.04985973846073392, 0.048949151344133274, 0.048121997021387704, 0.04725711333938156, 0.04634749530037524, 0.045551453364727705, 0.04478041304722009, 0.04409391492917374, 0.043366185942186185, 0.04272014708213359, 0.0420434500900653, 0.04139805099117322, 0.04074151119542946, 0.04016182211833234, 0.03962661057639616, 0.03909830825526874, 0.038597445953623195, 0.03819827025967206, 0.03774175913799411, 0.03731362027041366, 0.03691759644587561, 0.03655025355860787, 0.03623059793942009, 0.035915948676691525, 0.035640013821628284, 0.03537872893116338, 0.0351444037273471, 0.03492975577609911, 0.03474814701491985, 0.0346153470702954, 0.034479535285917254, 0.034368806693352474, 0.034333019316278406, 0.03426426789481428, 0.03419099097971861, 0.0341776255294154, 0.034187021566852646, 0.03422087644928825, 0.03427405862614148, 0.034311417304334665, 0.034411855091015256, 0.03453084123181203, 0.034795570742562204, 0.03493525614051914, 0.035071755382369514, 0.03526455394866864, 0.035478837729824374, 0.03575335923975998, 0.03600342269652899, 0.036365078616808065, 0.036646072694426435, 0.036951971916944736, 0.03724177972227007, 0.037598155575619956, 0.03797756703266035, 0.0383699121771197, 0.03877968121100825, 0.039309346212988566, 0.039738951884553085, 0.040196492435338765, 0.04066661491498893, 0.041155893891683525, 0.04161052029607115, 0.04214147704388266, 0.04270092661475174, 0.043255805734302585, 0.04382391576135872, 0.044382847041862246, 0.04497884054390732, 0.04568430727248169, 0.04628905309573264, 0.04690967689688625, 0.04749691477701708, 0.048152550893747745, 0.048939397051060304, 0.04960045190932559, 0.050278147334365884, 0.05092074689247383, 0.05163446226538226, 0.05234543312672662, 0.05308117409117076, 0.05382567516733763, 0.054683988287611056, 0.05543184356913868, 0.05613870371144907, 0.05692016399948441, 0.05771039001033899, 0.058524341342830105, 0.059328990683766056, 0.060245330675323984, 0.06105361295198283, 0.061875450162673234, 0.06269432636338855, 0.06354189484753602, 0.0643683755591246, 0.06523845107386096, 0.06611522164099999, 0.06699186149113152, 0.06788216716663158, 0.06872331702947586, 0.06963189221163742, 0.07054294267022507, 0.07159731499847537, 0.07249668850220681, 0.07329774489222854, 0.07423297536144416, 0.0751718804996186, 0.07613226392745555, 0.07707701913301099, 0.07814343421169695, 0.07908422603122396, 0.08003700334088568, 0.08094383426422627, 0.08192530319301501, 0.08296815697271928, 0.0839556431633976, 0.08495259298568822, 0.08596512865031408, 0.08697887039859001, 0.08795740627998545, 0.08899378029190849, 0.0900358631572086, 0.09102678414712267, 0.09208807898716943, 0.09316345333329294, 0.09423025027632188, 0.09530207366074052, 0.0964715928627231, 0.09754327077183972, 0.098569489429364, 0.09967126138607407, 0.10078085847651362, 0.10199072862336522, 0.10310514506458374, 0.10424655735553619, 0.10538650794140769, 0.10654020738305431, 0.10765241007580773, 0.10883949689969141, 0.11005832776640083, 0.1112625472107375, 0.11247843339812394, 0.11373906684675103, 0.11497464027040306, 0.11614749418994048, 0.11742094988694803, 0.11870421415431882, 0.1200331108114384, 0.12133365067053918, 0.12270945852811585, 0.1240302085797958, 0.12536892390147752, 0.12663988607045365, 0.1280250411898463, 0.12947365673186048, 0.13087914987631044, 0.13230193068705223, 0.1337576437741975, 0.13521392649886596, 0.1366212367160232, 0.1381244620112349, 0.13964339786338942, 0.14127323684610468, 0.14281408910195548, 0.14428831249966106, 0.14588718963089192, 0.1475043210955098, 0.1491646329456089, 0.15081753545613227, 0.1524703376708766, 0.15417018621166104, 0.15589160033597507, 0.15767253049798205, 0.15943425552140814, 0.16124781850360967, 0.1630574829561357, 0.1648946725298666, 0.1667594699048489, 0.16865199642458498, 0.17052851525833113, 0.1724825475949092, 0.17446240097263463, 0.17656083953134122, 0.17858242672312538, 0.1805972063519787, 0.18268896432430903, 0.18481962169833244, 0.18697075181430386, 0.18915299470945815, 0.19142800429713283, 0.19366533815235792, 0.19595985597157456, 0.1982646581753449, 0.20060554029015354, 0.20290103353050049, 0.20532362013207653, 0.20783641318825435, 0.21031400893293717, 0.21282705177657157, 0.21532074561974718, 0.2179118624816098, 0.2205532093190504, 0.22320804889067086, 0.22589770496893016, 0.22859622856467682, 0.23135999213588362, 0.23419990633870602, 0.2370278549259285, 0.2398936578100203, 0.2427425835361931, 0.24569143851019887, 0.24868425832091354, 0.2517029553990681, 0.25475843315840596, 0.25787303630645964, 0.2610004547212987, 0.26407917442343154, 0.26729597034985836, 0.27054712319711743, 0.2739387593238957, 0.2772475580210562, 0.2805679583311798, 0.2839649534152929, 0.28740189512644476, 0.2908962965111831, 0.294410768757464, 0.29796600816589774, 0.3015617963409885, 0.3051979208075179, 0.3088171125282717, 0.3125405001122529, 0.3163355137380365, 0.3201277360676396, 0.3239588824276295, 0.3278200273612691, 0.3317296742326604, 0.33570579200103434, 0.33968758709123076, 0.34370864732907935, 0.3477641793514142, 0.35186311788959224, 0.35600646088290794, 0.3601798495274413, 0.364390706581582, 0.36864299967439423, 0.37292697358858296, 0.377139858328727, 0.38150986181472957, 0.38590935185001213, 0.3904330959536713, 0.39488071139223735, 0.3993156986532189, 0.40384005925598443, 0.40839603821028964, 0.4129416725994383, 0.41756532126051465, 0.4222634103116085, 0.42693788369728997, 0.4316431100763178, 0.4363609582367275, 0.4411281682047781, 0.44596286830869625, 0.4507805674894816, 0.4556274564490488, 0.46049827177186925, 0.4654014820709584, 0.47027178418012455, 0.4752343633671052, 0.48021832957823907, 0.48527820574339925, 0.4902969188352989, 0.49523574201030685, 0.5003130575881477, 0.5054059388559806, 0.5105208547656271, 0.5156435903744978, 0.5208123506604853, 0.5259613597007843, 0.5311264410761246, 0.5363506675596399, 0.5415398583127641, 0.5466397067426112, 0.5518729717585682, 0.5571138583561472, 0.5623510391296092, 0.5676074066370318, 0.5728957999977603, 0.5781597149570973, 0.5834297159852201, 0.5886983603543591, 0.5939787541634466, 0.5992885213549116, 0.6045707598297724, 0.6098556800085358, 0.6150872430284338, 0.6203809451943557, 0.6256531760325138, 0.6309405400964438, 0.6362214921670428, 0.6414799798104689, 0.6467479195282649, 0.6520436480295698, 0.6572871006049762, 0.6625216085794629, 0.6676626355055889, 0.6728863679127461, 0.6780579134502718, 0.6832514462805968, 0.6884248598147137, 0.6935953322091417, 0.6987250451725929, 0.703821014666162, 0.7089104377166935, 0.7139768823515197, 0.7190041818021079, 0.7240241422476037, 0.7291032768761888, 0.7340587529442879, 0.7389909047821488, 0.7438037486189784, 0.748696386225214, 0.7535556959277626, 0.7583809527372682, 0.7631713763579809, 0.7678822454702249, 0.7726060241543126, 0.7773513494238852, 0.7819869673947266, 0.7865848913406381, 0.7910934353940109, 0.7956187336252206, 0.8000735674320144, 0.8045131624175629, 0.8089055610342183, 0.8132611008655808, 0.8175557585977884, 0.8218017744318733, 0.825998284129489, 0.830144400741658, 0.8341821586638012, 0.8382319738300305, 0.842196908678035, 0.846137152092815, 0.8500184253731392, 0.8539259555969363, 0.85767730277477, 0.8612458935500773, 0.8649011554196288, 0.8684913566201593, 0.8720470768380968, 0.8755027459652129, 0.8788614637091245, 0.8821926009170941, 0.8854565696344677, 0.8886463691416117, 0.891775532582056, 0.8948511271603495, 0.8978399942254666, 0.900759774396938, 0.9036800179608467, 0.9064507046582876, 0.9091168878842018, 0.9117566521688043, 0.9143247020498079, 0.9167390307001978, 0.9191715314459193, 0.9216439422394281, 0.9239041945666435, 0.926092318337312, 0.928154531582444, 0.9302018075942299, 0.9320919013953638, 0.9339923598110854, 0.935809311936756, 0.9375495520734259, 0.9391992287435854, 0.9407596395074719, 0.942244781941159, 0.9436468358966311, 0.945016270853149, 0.9462457179572894, 0.947465042260698, 0.9485244320899762, 0.9495065001987627, 0.9503927278639844, 0.9512195957491952, 0.9518251325191952, 0.9525074915183952, 0.9531659645454321, 0.953661293865009, 0.9540720033902048, 0.9543893817863276, 0.9546321688967382, 0.9547834802252658, 0.9548574765305505, 0.954846534812968, 0.9546740632233305, 0.9545036178762207, 0.9542753110758868, 0.9539246525790385, 0.9534887505032419, 0.9529373465332501, 0.9523362199991334, 0.9517767538917049, 0.9509889403955375, 0.9501239308999523, 0.949036449997082, 0.9480341739518058, 0.9470114181417725, 0.9458291968475602, 0.9445663222373047, 0.9432714465657406, 0.9418422912252374, 0.9403363624232903, 0.9387537030817097, 0.9370944257809334, 0.935253366005782, 0.9334547662233674, 0.9315480130485824, 0.9295903030047485, 0.92755163311055, 0.9254618375869526, 0.9232614850583013, 0.9209832967165051, 0.9186328358728899, 0.9162083881113424, 0.9137657058668944, 0.911188996672833, 0.9085286491216016, 0.9058177542474679, 0.9030386220642829, 0.9001919032041102, 0.8972782803459635, 0.8942589636067916, 0.8912186974149983, 0.8881115380795407, 0.8849715211863106, 0.8817297485278422, 0.8784350205078916, 0.8750694905019318, 0.8716443873775904, 0.8680946754834522, 0.8645611939760318, 0.8609603687667426, 0.8573076269210242, 0.8535965713553271, 0.8498966440365534, 0.8460645488722996, 0.8420942963741245, 0.8381733245777129, 0.8341986349176977, 0.8301586188721904, 0.8260827865171563, 0.8219658102436147, 0.8177905555156266, 0.8135688884755736, 0.8093416850979582, 0.8050262885918923, 0.8006575665632559, 0.7962645013628118, 0.7918325245957738, 0.7873386246154787, 0.7828352707156602, 0.778385035852369, 0.7737979250119206, 0.7691816686203855, 0.7644315096413671, 0.7597721131329476, 0.7550752465534913, 0.7503518825291552, 0.7455984207374501, 0.7408800868043592, 0.7360630822269584, 0.7311934424688762, 0.7263374514839982, 0.721459755701091, 0.7164826033231064, 0.7115752459846381, 0.7066564696055901, 0.7017048125190638, 0.6967350386775324, 0.6917377974737488, 0.6867379863469204, 0.6817329176710352, 0.6767054743507243, 0.6716675323316406, 0.6666358283594584, 0.6615790330208201, 0.6564902822806294, 0.65142672788288, 0.6463583649201925, 0.6413677335582998, 0.6362834664309454, 0.6311348241265748, 0.6260670612038455, 0.6210003622270552, 0.6159030398660045, 0.6108463012853947, 0.6058670163716158, 0.6008079393464868, 0.5957586792622077, 0.5907111777865478, 0.585684850918219, 0.5806964273792408, 0.5756907729886567, 0.5706999079281967, 0.5657091428728985, 0.5607518503330059, 0.5557184217016897, 0.5508057397901216, 0.5459056861892438, 0.5410374438722758, 0.5361652126456928, 0.5313353445152751, 0.526497734689196, 0.5216821059436575, 0.5168389114622702, 0.512076392562881, 0.5073094055810473, 0.5025952182999261, 0.4979038821965151, 0.49327843526978954, 0.48863146168469423, 0.48404855776179023, 0.47945581856969277, 0.47489550547411197, 0.47027806841813163, 0.46579528498058526, 0.461295111090238, 0.45687672751666064, 0.4524867267885285, 0.4481681918316942, 0.4438337208426729, 0.4395425606782959, 0.43527676824271383, 0.43104739971746747, 0.42678478621037963, 0.422638789627856, 0.4186387823194869, 0.41454779116439905, 0.4104991095312906, 0.4064312337959756, 0.40247480964261, 0.39853083724369154, 0.3946558380667712, 0.3908191475547325, 0.38699508159322477, 0.38324022972561245, 0.379572261091463, 0.3758891961171282, 0.37224874414558984, 0.3686115574707467, 0.3650617774508204, 0.36165815622437175, 0.3581771180509554, 0.3547436111757211, 0.3513395576278204, 0.3480018302680927, 0.34472462123371694, 0.34147504320943073, 0.33827106659756245, 0.3351080019970492, 0.3319949146027275, 0.32889345326416536, 0.32587343615490405, 0.3228957655722589, 0.3199890791895326, 0.31709279251481537, 0.31414413975745903, 0.31134826416132505, 0.30859078508928683, 0.3058613200477682, 0.3031836977926844, 0.30064849664297777, 0.29803679406076805, 0.2954708975885839, 0.2928624441235149, 0.2903975565841055, 0.28805968907809587, 0.2856623808577923, 0.2833095847688489, 0.2808953324306468, 0.27864303166582155, 0.2764275391232274, 0.2742491539321221, 0.2721080891383772, 0.2701120160314645, 0.2680323267390032, 0.2658601198574307, 0.263883806018933, 0.26191965598729144, 0.2600146015121688, 0.2581428593006542, 0.25635955474763644, 0.2545481785765531, 0.25276929200309883, 0.25103177373562763, 0.24932995879026332, 0.24761291369383615, 0.24598749605115444, 0.24454714273057665, 0.24296507532062425, 0.24142279272065884, 0.2398771335424546, 0.23841540375535678, 0.23689704249772378, 0.23551253332393576, 0.23415464943644726, 0.23283868539598482, 0.23153184250034536, 0.23024551457182177, 0.22899333677221037, 0.22776712614879385, 0.22652920077745176, 0.22535848932791666, 0.22426969161177332, 0.22313664360381774, 0.22202919532645185, 0.22093342577414743, 0.21987659258303469, 0.21890164626683628, 0.21788196738323434, 0.21688700740841227, 0.21586299491677013, 0.2149208883819814, 0.21406983241925007, 0.21315530376944666, 0.21226241682972324, 0.21135493760004914, 0.2105064794658637, 0.20960868369129806, 0.2088008930636385, 0.20800460293509848, 0.20727896344873112, 0.20649781312997534, 0.20573101625369028, 0.20497784441754188, 0.20423758916359866, 0.203467862480726, 0.20275665953244396, 0.20210229475499525, 0.20140179268000644, 0.20071191482491058, 0.19998363215837237, 0.19931889249711296, 0.19872135344419217, 0.19806006133323908, 0.1974073725787138, 0.1967646531480058, 0.19612644863429093, 0.19539365125943242, 0.1947801980763402, 0.19416600674074258, 0.1936236431837698, 0.19299917609703449, 0.1923190017253256, 0.19170848978664953, 0.19109695659518672, 0.1905830460603304, 0.18995660071141726, 0.18932105201070243, 0.188703388441988, 0.18808709916440686, 0.18740996813180863, 0.18680194616798573, 0.1862665042392564, 0.1856401684852095, 0.1850136133023977, 0.18433775952894135, 0.18371453823398531, 0.1830247212551546, 0.1823987335986601, 0.1817636616379405, 0.1811504773764151, 0.1804940322680644, 0.17983737560666188, 0.17916634360635872, 0.1784885469473071, 0.17786300347133355, 0.177163473654046, 0.1763544514115041, 0.17565922994251848, 0.17495258733093547, 0.1742545307794184, 0.17352326295267512, 0.17280643977281546, 0.17205268558593192, 0.17129049181931888, 0.1705503203795372, 0.16976658846583734, 0.16899734266505678, 0.16819544977487838, 0.16738644240439202, 0.1665565987430719, 0.165733426884401, 0.1648460537907303, 0.16401087061322017, 0.16316275284643475, 0.16227120652756763, 0.16140177222250926, 0.16063242159310312, 0.1597208974809645, 0.15880252219107854, 0.15786792741435987, 0.1569352689799087, 0.15599153217754794, 0.15504108159386035, 0.1540810717837282, 0.15311131800100564, 0.1521316772038538, 0.15114862859407646, 0.15014810251393038, 0.14913784781301542, 0.14802562970343935, 0.14700742472187786, 0.14596545627908544, 0.1449191636123595, 0.14385887112361417, 0.14286869099649746, 0.14177194089777373, 0.14060200088649827, 0.13949875167001063, 0.1383842521509581, 0.13732482379363525, 0.13618091453242254, 0.13494082469571925, 0.13379575826644158, 0.13263921972446305, 0.13154211156403753, 0.13035571953548392, 0.12915269417480435, 0.12795633790221944, 0.12675367632183324, 0.12558652862011122, 0.12436636576021111, 0.12314704343841247, 0.1219190652034485, 0.12068751543497497, 0.1193469620385574, 0.11812137016127207, 0.11689495259787745, 0.11564993871081607, 0.11439753878690972, 0.11314064540317557, 0.11187524384514715, 0.11059576161466939, 0.10932142174853847, 0.10804236819960113, 0.10674380650193753, 0.10545893838526148, 0.10428641724188402, 0.10297950796982745, 0.10167632472936362, 0.10034134905235416, 0.09904893053985209, 0.09773974753639064, 0.09645124703000356, 0.0951628089827211, 0.09392960898578684, 0.09263529477535827, 0.09132531896590781, 0.09004156884513513, 0.0887606328497901, 0.08739049445588508, 0.08612734278142879, 0.08493480938301921, 0.08365986490969936, 0.08238905421624952, 0.08112921363369603, 0.0798666075529169, 0.07858076686096761, 0.0773325907174739, 0.07608858629697708, 0.0748251001938327, 0.07359393628653987, 0.07237577798318295, 0.07115258965368491, 0.0699353450234941, 0.06882987314590062, 0.06761263376665981, 0.0662769645598402, 0.06510244568367134, 0.06393302227149343, 0.06279582783716367, 0.061635597568204574, 0.06053024181150606, 0.0593821755962229, 0.05824629594749971, 0.05717967018730143, 0.056060998648386595, 0.05496659862512227, 0.05387742895890202, 0.052803573834012116, 0.05166353348952874, 0.050629749319511405, 0.04961919801692621, 0.04860442139215905, 0.04755980318719899, 0.046574385346270855, 0.04559921574009094, 0.04462838854765968, 0.04367652554062086, 0.042778108333327354, 0.04184504325336674, 0.0409271644829379, 0.040072896247845075, 0.039179711678775465, 0.03819511542772966, 0.03735219449398942, 0.03652097988802953, 0.03576144381185642, 0.03494822743011459, 0.034171730836227494, 0.03338999140142958, 0.03262640774807382, 0.031836971752762185, 0.031114923807385824, 0.03038853036812265, 0.029700084395383398, 0.029026490266795466, 0.028423006332301003, 0.027773310911644297, 0.0270811414114947, 0.02647699226294887, 0.025888040489835326, 0.02538706468802847, 0.024820371706379886, 0.02420583924391427, 0.023687782378347382, 0.02318542991095886, 0.02271221141521653, 0.022240349140075007, 0.02186899777905361, 0.021420869705757652, 0.020994617758750715, 0.02056325301554061, 0.02018219209328266, 0.019852688760464116, 0.019504486724840026, 0.019176283411254467, 0.018858824318767203, 0.01857035095656189, 0.01818378585804633, 0.017946195189909798, 0.017719783004987177, 0.017518427452755628, 0.017314740700299223, 0.017129206928738885, 0.016952828347930052, 0.016791069760443166, 0.016661671039965905, 0.016527434216523855, 0.016417993338881137, 0.016314594686068034, 0.016227514729344285, 0.016141199397543635, 0.016088117884013844, 0.01612671144847504, 0.01609355833731616, 0.016079387552425894, 0.01606370593748239, 0.016087832682886997, 0.01616070229118784, 0.01621189358821765, 0.016279939801009374, 0.01638395343725947, 0.016481346448619993, 0.016599324709043, 0.016727896535135487, 0.016871650911124646, 0.016988303430483277, 0.017165984950799008, 0.017280273733840786, 0.017489718321679754, 0.017705950017713242, 0.017940403916790606, 0.018170125035432767, 0.018408392490061827, 0.018655351418756037, 0.018911094681767156, 0.019164694320120235, 0.019439485856727844, 0.019698314250734768, 0.0199925282965863, 0.02029355100334024, 0.020728797022736566, 0.021027662253704324, 0.021336298030498278, 0.02166298192445522, 0.022001552337102628, 0.022370902420309823, 0.022728238755461944, 0.023078628810662274, 0.023458568842070676, 0.02384652746280313, 0.024156347729202998, 0.024569504178013277, 0.024975507526191786, 0.02539324783321501, 0.025812508304702983, 0.02624883279467845, 0.026669678261297798, 0.027172290888505625, 0.027588570453546516, 0.028011823344354276, 0.028406153267516034, 0.02884550381826148, 0.02922622894286903, 0.02967865521323206, 0.030129780252070526, 0.030612689959302282, 0.031057494793234566, 0.03146368280326827, 0.031915008490859174, 0.03236450274677146, 0.03282100140896716, 0.033265850248639296, 0.033808161912523595, 0.03423780045564113, 0.0346713990595157, 0.03505970848777087, 0.03550451167163, 0.036002767515231196, 0.03643745299679168, 0.03687310981032366, 0.03730238596540517, 0.03773858068883847, 0.038129375413465505, 0.03856757303124917, 0.039000779301478064, 0.03954960257483061, 0.03995726780373067, 0.04036859934857614, 0.04077784396715551, 0.041186626061016404, 0.041618202814689476, 0.04202045327323472, 0.04243000494694054, 0.04282737682734246, 0.043222231341391165, 0.04362922750009667, 0.04401508061766917, 0.044357913909084695, 0.044741133879730915, 0.04511750746823918, 0.04558566146964153, 0.0459354831011195, 0.04629025427475455, 0.04663510861965798, 0.046977079384562845, 0.04728254353802953, 0.04762089657721283, 0.04801853026293168, 0.0483352673932102, 0.0486488288515591, 0.04895858082532199, 0.049263984069873035, 0.04956458394253285, 0.04986000133651366, 0.050149924447722205, 0.050469215482198626, 0.05074300788964731, 0.051036815760211386, 0.05129891325282987, 0.05155752889775016, 0.05186707931770061, 0.052110528348726294, 0.052350268841143646, 0.052590297203339506, 0.052827460597422674, 0.05305693084783188, 0.05328769062419205, 0.05360864644049861, 0.05381896186297881, 0.054030125938561796, 0.054258881134877694, 0.054467219102582905, 0.054668769542461124, 0.0548769554731233, 0.05508353187831538, 0.055393540426811404, 0.05558276462442795, 0.05571858300775081, 0.0559214191029163, 0.05612305016829316, 0.05635186857594894, 0.05654714508017944, 0.05679310078869254, 0.05698223683925754, 0.05717416192590841, 0.057465023336366154, 0.05764918208125054, 0.057772596647477005, 0.05797905030707694, 0.05818738016386463, 0.05843927986760889, 0.05864615023869526, 0.05891230101751176, 0.05912091896287273, 0.05935219538290517, 0.0595730501254339, 0.05980136372575658, 0.06004122825205413, 0.06028312850634823, 0.06056948475601007, 0.060820939138938976, 0.06108167319489193, 0.0613098257687, 0.061594004864852, 0.061915656076087164, 0.062209891815024114, 0.0625135222633844, 0.06286411030669362, 0.06318262692103195, 0.06345867657054004, 0.06380901727914695, 0.06416892703523772, 0.06458735097604819, 0.06496228405886169, 0.06542390745792606, 0.06581849055328086, 0.06623199473974213, 0.06656543625713202, 0.06702869994275962, 0.06750277989373953, 0.06799319744155778, 0.06849818829084664, 0.06902296763320068, 0.06955900397407032, 0.07022199890583108, 0.07077933835513785, 0.07136149428440118, 0.0718541572681933, 0.0724999048012542, 0.07319669386093644, 0.07387550885564494, 0.07457621872211447, 0.07535871142477772, 0.07609761184031691, 0.0768877545897309, 0.07767794451980917, 0.07849692212228575, 0.07929425683935613, 0.08017739606560963, 0.0811680212027934, 0.08209409276153255, 0.08305226287061901, 0.08393935394352404, 0.08497474928600125, 0.086115591602768, 0.08719488163368012, 0.08830700361619168, 0.08941931140528933, 0.09060211578492627, 0.0917707414922729, 0.09302382321264652, 0.09430748358812857, 0.09568635112814843, 0.0970260186063713, 0.09845749196380964, 0.09986442088489526, 0.1013120257756252, 0.10274096625117365, 0.10427722834190019, 0.10585297949083725, 0.10746412892117092, 0.10911383655874227, 0.11086408762696111, 0.11258473950542734, 0.11428533226334185, 0.11610121394695856, 0.11795718456417582, 0.11979899728662255, 0.12174391454181349, 0.12371006664418907, 0.12573577416616089, 0.12780118368574153, 0.12992702504089576, 0.13207219196561273, 0.13426963807059492, 0.13650128459875605, 0.13877805577163385, 0.14108940918946405, 0.14345907933024485, 0.14585910000107905, 0.14832257279856817, 0.15083172928244112, 0.15349459518337438, 0.15608294281948917, 0.1587155629615374, 0.16141061986742336, 0.16415730096338124, 0.16694653031735673, 0.16979672501633278, 0.17268632255678867, 0.17563855524148156, 0.1786403677339585, 0.18166545239191786, 0.18476984226313198, 0.187909260259267, 0.1911119524932048, 0.1943625646992533, 0.19764383566770924, 0.20099335539175328, 0.20449153306943813, 0.2079240224521927, 0.2114104793581281, 0.21488886781209493, 0.21848932616086067, 0.22215406717513903, 0.22585047798791089, 0.22959675492288023, 0.23333132958166627, 0.2371847430959609, 0.24109296824179377, 0.24503768285035074, 0.24902953946707018, 0.25308183853399746, 0.2571666575702283, 0.26124911852016375, 0.26543642937867196, 0.26966873950922615, 0.2740362448606667, 0.278347745757527, 0.28271629658905667, 0.28712717082527184, 0.2915874559496104, 0.29603278028140667, 0.30059777870828763, 0.3051450601194225, 0.30980514506672063, 0.3145051687922614, 0.3193616983070099, 0.3241275440315129, 0.3288283824025851, 0.3337012478225765, 0.33861284699756994, 0.3436268208117406, 0.3486077454138006, 0.3535517109827377, 0.35862597076497515, 0.3637363424635285, 0.3689770746784521, 0.3741472941325678, 0.37936270831937635, 0.3846128773484057, 0.38990191634084054, 0.39513217782515697, 0.4005079425183899, 0.4058700930901249, 0.4113117282521029, 0.41678062665585197, 0.4223425912418681, 0.4278574729364812, 0.43346872160618055, 0.43903546669811383, 0.44463468095102676, 0.4501464230029853, 0.4558213158278286, 0.46155957548925447, 0.4672721890057422, 0.47300803850109924, 0.47873117032310764, 0.48451538477626666, 0.4903621564049104, 0.4961775149440507, 0.5020126734173349, 0.5078336147465558, 0.5137092385582527, 0.519579758347711, 0.5254863295856066, 0.531404712367912, 0.5374065720061731, 0.543337097888972, 0.5492284091926612, 0.5551910300163277, 0.561161230137752, 0.5671292416399216, 0.5731127170891405, 0.5791485200497449, 0.585132994820745, 0.5911222227678706, 0.5971016083301975, 0.6030977498040743, 0.6090739446952802, 0.6150709410911348, 0.6210641342439631, 0.6270502457651405, 0.6330328430530043, 0.6389335996662368, 0.6449100756007122, 0.6508729075888661, 0.6568193638489217, 0.662753487603014, 0.6686653981561391, 0.6745683415924356, 0.6804537126008617, 0.6862987397555046, 0.6921492064709074, 0.6979913911703369, 0.703796486605845, 0.7095791946231417, 0.7153779870614371, 0.7211077949352619, 0.7267462007737873, 0.7324364300323544, 0.7380570980184259, 0.7436913409329836, 0.7492915259470286, 0.7549052885104924, 0.7604292341923307, 0.7659174681591076, 0.7713734108824556, 0.7767932148983994, 0.7821888099972839, 0.7875309543128168, 0.7927988627961334, 0.7980658555776786, 0.8032890759385541, 0.808441154118059, 0.8135770378632539, 0.8186008707621234, 0.8236471189038771, 0.828639613814697, 0.8336503540688082, 0.8385248239286588, 0.8432975997335366, 0.8480747745747694, 0.8527954275325513, 0.857513614435518, 0.8621118213607616, 0.866537739906673, 0.8710373670012519, 0.8754718469796704, 0.8798474265419309, 0.8841496850467513, 0.888445170291683, 0.8926072712050764, 0.8967054038940164, 0.9007164492307199, 0.9046859275862761, 0.9085209261373514, 0.9123605286597588, 0.9161259625014112, 0.9198958560351647, 0.9235017713939059, 0.9269247289006757, 0.9304015727364499, 0.933798828086389, 0.9372106911832986, 0.9404362493558706, 0.9435275419047106, 0.9466094583941762, 0.9496108644621232, 0.9525838947447998, 0.9554159991895761, 0.9580745395846022, 0.9607592027318487, 0.9633574600256557, 0.9659086913957371, 0.9683287256469657, 0.9706311495520509, 0.9728854056089056, 0.975052019061802, 0.9771087774589862, 0.9791020655988065, 0.9809880789766786, 0.9828040253961556, 0.9845289904189436, 0.9862287815414476, 0.9877633323644975, 0.9891884647449842, 0.9905502063141489, 0.991822014983784, 0.9929947482516952, 0.9940867345912883, 0.9950872804959003, 0.9959961708099833, 0.996813208755189, 0.9975294386165944, 0.998163370831245, 0.9986649858744582, 0.9991182428768465, 0.9994763985928534, 0.9997770666316665, 0.9999411947654567, 1.0, 0.9999814351122053, 0.9998699092334283, 0.9997269874707074, 0.9994221323283419, 0.9988745359118166, 0.9984105427926041, 0.997848235700376, 0.9972457369672785, 0.99648269010338, 0.9957218481739166, 0.9947629268916983, 0.9937179127802873, 0.9924876846388516, 0.9912819856473312, 0.9899926415984734, 0.9886017027486249, 0.9871202514042603, 0.9855818255848902, 0.9839170430040884, 0.9821588706434828, 0.9803216707841663, 0.9783980593899086, 0.9763204957991475, 0.9742341720605243, 0.9720657705832875, 0.9698024186818609, 0.9674529897274292, 0.9650031218030592, 0.9624864604645273, 0.9599691953669943, 0.9572750607497045, 0.9545037226642128, 0.9516401734409249, 0.9487175021742364, 0.9456763286384121, 0.9426059879997125, 0.9394578766735608, 0.9362067386573699, 0.932909648607853, 0.9295782313269707, 0.9261250991042907, 0.9226008169557662, 0.9190194507313892, 0.9153539220173589, 0.9115922177410243, 0.9077958679491062, 0.903932031596292, 0.8999404191194204, 0.8959528622467138, 0.8919373631236741, 0.8878115855950526, 0.8836238542233869, 0.879421499294558, 0.8751077588245868, 0.8706615595347642, 0.8662471045974899, 0.8617744730489669, 0.8573022999809033, 0.8527107885417397, 0.8480667283482792, 0.8433758070693433, 0.8386364835822004, 0.8337203772404087, 0.8289039547498909, 0.8240615830695284, 0.8191394772912457, 0.8141708883854272, 0.8091905343795326, 0.8041301516966054, 0.7990830241337407, 0.793938520742597, 0.7887602897131574, 0.7834746439404754, 0.7782412292648555, 0.7729508785694793, 0.7676519162896178, 0.7623200072645451, 0.75702055464553, 0.7516199284276006, 0.7462104120978533, 0.7407604422276571, 0.735289314968745, 0.7297519719877886, 0.7242474802198057, 0.718665376369692, 0.7131284934716458, 0.7075708319460957, 0.7020557594484065, 0.696454451345658, 0.6908764669709522, 0.6852483613527192, 0.6796128883776584, 0.6739029671468589, 0.6682642588991236, 0.6626392835119882, 0.6569829786990449, 0.651322861907213, 0.6456953981288995, 0.6400272577605454, 0.6342449757927053, 0.6285969210829291, 0.6229465978101836, 0.6173025980651361, 0.6116528299565266, 0.606002506934869, 0.6003626426402646, 0.5947296564373875, 0.589096350527774, 0.5834829089869042, 0.577928691322249, 0.572332504942007, 0.5667528639296863, 0.561179771859804, 0.5556375385044379, 0.550083437105057, 0.5445838622841521, 0.5391035259859459, 0.5336810157047052, 0.5282382310739592, 0.5228490150773789, 0.5174535547656517, 0.5120754717033941, 0.5067387263417069, 0.5014309960868975, 0.4960301463750481, 0.49079828739926445, 0.48561939116156894, 0.4804345579015651, 0.4752791720291193, 0.47018306797455567, 0.4650868076409595, 0.460066988291291, 0.4550358093364889, 0.45004341809846776, 0.44500030729698603, 0.44009829946903706, 0.4353280483937343, 0.4304854449660958, 0.42568582501112523, 0.42087461226052925, 0.41616878902189874, 0.4114401625683957, 0.4068248589733761, 0.402248363090451, 0.3976877529412916, 0.3931954794019546, 0.38877474148323266, 0.38436133388873456, 0.3799926151015789, 0.3756517095022336, 0.3713765746158282, 0.3671865213865264, 0.36299820941271893, 0.3588589507538962, 0.354762381829017, 0.3507227077475547, 0.34675208395254475, 0.34280873712152016, 0.3389162305252461, 0.3349889993860108, 0.3312090714476106, 0.32755425957320966, 0.3238572670882563, 0.3202121398179545, 0.31656829861306945, 0.31303297782846423, 0.30958369411096437, 0.3061414164802957, 0.3027505152292529, 0.2993406630724456, 0.2960610872670993, 0.2928220360530921, 0.28963794418162, 0.28650137858231717, 0.28346753531352836, 0.28041999994427347, 0.27743042252805716, 0.2744844814850206, 0.271589636573505, 0.2686335769337385, 0.26585392179132616, 0.2632057108931483, 0.260502785326602, 0.2578493520383913, 0.25514623733450625, 0.2526030203496307, 0.2501749025650731, 0.24770823198843187, 0.24528889541463333, 0.24289231370844805, 0.24056936507560706, 0.2382493304545859, 0.23602058274229593, 0.23383347662513415, 0.23172308966676064, 0.22961464196586936, 0.22760214847676474, 0.22557308195347126, 0.22358918201532296, 0.22163848506995618, 0.219743368525034, 0.21780433930242976, 0.21600258919405513, 0.21423610333503204, 0.21252014356096674, 0.21082186541213843, 0.20920747067686787, 0.20757385697422426, 0.20597764417938805, 0.20441354021499006, 0.20288998897054134, 0.20133727760956302, 0.1998899091458732, 0.1984717922141198, 0.1971945401031926, 0.19581977586923796, 0.19443114963528857, 0.19312995371384753, 0.19185778305069848, 0.19055013309750315, 0.18934148550363708, 0.18813378221043425, 0.186973358089263, 0.18583386806416335, 0.18475454557338003, 0.18365104863226547, 0.18256529878808042, 0.181505850552927, 0.18046672247452836, 0.17941861838348996, 0.1784214266866622, 0.1774998730602008, 0.17652738434341375, 0.17557342561770523, 0.17457982042853085, 0.17366681864841801, 0.17283611409459995, 0.1719377990007501, 0.17105431831742665, 0.17018447540002288, 0.16932711908376383, 0.16843944210186976, 0.16760904188251458, 0.16678557287563905, 0.16589813940290754, 0.1650953981145306, 0.16433530883271463, 0.16352907032759384, 0.16272578304528704, 0.16196872614379262, 0.16116393216632058, 0.160397772322752, 0.159594564395023, 0.15879485199447818, 0.1579337591744873, 0.15714545449403272, 0.15636892971068547, 0.15557097651576637, 0.154769207974233, 0.15400902356909654, 0.15319174108698613, 0.152331685209681, 0.15151182223111806, 0.150684456526252, 0.1498950628519708, 0.14904503467002891, 0.14815755123129118, 0.14729698824899656, 0.14642610796121713, 0.14544774032155353, 0.14456663180385312, 0.14370751855875472, 0.14278661549087082, 0.14185077241237865, 0.1408536468044638, 0.13989296019885347, 0.13893146764843392, 0.13793188711360999, 0.13691497272154252, 0.13593977790354245, 0.13488007116655307, 0.13373983365313835, 0.13265832001098968, 0.13155696810225911, 0.13053001445819332, 0.1293766309286316, 0.1281884839159186, 0.1270066199891821, 0.12580680873726074, 0.1245313510483794, 0.12330099388378005, 0.12207185974505387, 0.1207925764048454, 0.11949163895293065, 0.11810953341203295, 0.11677201785696124, 0.11543512638099945, 0.11404312078140107, 0.11262736367592593, 0.11113515384687486, 0.10967845700621008, 0.1082476177256242, 0.10673101622391688, 0.10519126946279862, 0.1037269980326765, 0.10212807507351701, 0.10037950210888426, 0.09876039730630164, 0.09711427157434996, 0.09550296576754029, 0.09379616759731126, 0.0920405362774608, 0.09029188064698776, 0.08851890549031581, 0.08671073547879642, 0.08489081180083924, 0.08299360449288024, 0.08113133170714577, 0.07924192286943266, 0.07744013978888274, 0.07548390326076551, 0.07342970955370455, 0.07144515518017594, 0.06941014961470635, 0.06738107897457099, 0.0653271753700028, 0.06335655559296181, 0.061241097772178794, 0.05908654629163252, 0.05693920363035333, 0.05477284034231408, 0.05259621594308369, 0.050390697237011686, 0.04806579473227894, 0.04583623522502436, 0.04358274212451854, 0.04144015152599296, 0.039124697337331864, 0.036734095540761014, 0.034398746531501836, 0.032045806797010905, 0.02965812216213621, 0.027273445263557676, 0.024878031259233237, 0.022458468472398827, 0.020023126892539406, 0.017572534260183424, 0.015107222222525748, 0.012621142534577417, 0.01012883514430197, 0.007623058032070008, 0.005049546179968292, 0.0025255662761368676, 0.0