0.03760371466879295, 0.03722350862046004, 0.03688128664513246, 0.03658550645106346, 0.03632227935037467, 0.03614975004729764, 0.035929833371920156, 0.03565644185875638, 0.035489672918188345, 0.03533547543630195, 0.03523039824651595, 0.035091025130526685, 0.0349650925162076, 0.03484385671309034, 0.034730432442972074, 0.03459602942262435, 0.03449958172865615, 0.03438661346394447, 0.034301766609467856, 0.03422034131943608, 0.03414272929187757, 0.03406938505367676, 0.03404629451661593, 0.03397729150561695, 0.03391673584032521, 0.03379139212568527, 0.03375778068768969, 0.033736361116450106, 0.03371322916800143, 0.03369759251171384, 0.033718275028062, 0.0337165637532597, 0.03362136870507591, 0.033656379210803326, 0.03369798212935773, 0.033831479975382404, 0.033879552535447534, 0.03389713131820346, 0.03398127625082457, 0.034078547495846274, 0.034158162440493654, 0.03428772823923213, 0.03440262814093786, 0.03456319318770914, 0.034737071466850344, 0.034991641476616, 0.035186377048858075, 0.03531316708157019, 0.035558137344983275, 0.03581800451913604, 0.03608662597812468, 0.03637965282366843, 0.03669650687661392, 0.037022999776095196, 0.03736803168558571, 0.03777059878035713, 0.038149337740537366, 0.038518703410159026, 0.03894574079774577, 0.03939331676729933, 0.03986879429865484, 0.040357640932666354, 0.040780998063589265, 0.04132510934255912, 0.04188680035762586, 0.042533498543265116, 0.04312472364246003, 0.04370488632360257, 0.0443485654192629, 0.045014579015181425, 0.04566142173428028, 0.046378813805848684, 0.047222487380700034, 0.047970001377793704, 0.04874615169709003, 0.04941428024564903, 0.05026436345072188, 0.051131446654050415, 0.052024008564509866, 0.05293885941906111, 0.05387339362892902, 0.054835865817319245, 0.05578789928272978, 0.05680459880733069, 0.05784524422933715, 0.058980685638982594, 0.060062933752624496, 0.06114047175421672, 0.06228778954538525, 0.06346362257246889, 0.0646508773837263, 0.0658871249005098, 0.06723949396861174, 0.06852247396749746, 0.06972798104110232, 0.07109377892423172, 0.07248724063202695, 0.0738636015389641, 0.07532022513178945, 0.076821413922175, 0.07833087705855783, 0.0798701128033069, 0.08144670500993322, 0.08304630236580138, 0.08469514537064414, 0.0863564058232135, 0.08805110108547623, 0.08975839712016505, 0.09152307375129692, 0.09330294657776063, 0.09513550080351159, 0.09700030701247724, 0.09891522563460235, 0.10084338342955515, 0.10277426272303906, 0.1047749227984158, 0.10680821714880265, 0.10890245936295527, 0.11099841387763652, 0.11318539142671301, 0.11534433579807092, 0.11754140816160644, 0.11971664271144838, 0.12199606576762002, 0.12428795405617962, 0.12663705941545622, 0.12901864790624354, 0.13139446866448226, 0.13384654234333312, 0.1363574937226114, 0.1388682240845129, 0.14141217239027604, 0.14404536278295826, 0.14664877877335009, 0.14922562316877802, 0.1519093051415541, 0.15462488344728276, 0.1574074014015461, 0.16018248142735625, 0.16300896484879723, 0.16584931422464505, 0.16872387599123573, 0.17167765078090114, 0.17461346366046782, 0.17749718609499052, 0.18051399847526717, 0.18355972168288234, 0.18664835106812996, 0.1897500849198729, 0.19291287173566235, 0.19606951822616445, 0.19925699685582224, 0.20246427455904925, 0.20571314196670248, 0.2089451872278935, 0.21225669229966132, 0.2155934371686096, 0.21892035814148156, 0.22231171643015069, 0.22571196368006513, 0.2291509095368457, 0.23261197918989115, 0.23615466196415935, 0.23965242380466092, 0.2431684622417291, 0.2467169738112066, 0.2502890006117346, 0.2537754595717667, 0.25740633171059096, 0.2611646677424482, 0.26481262216230017, 0.2684826820948858, 0.2720724815626535, 0.2757968675546466, 0.2795594695202854, 0.2833081569474477, 0.28707174343941666, 0.29092676937038575, 0.29470909111793325, 0.29850220601156907, 0.3023198084811827, 0.30615247878058005, 0.3099082014250277, 0.31377936947719376, 0.31777985490933497, 0.32164902162976705, 0.3255313391507446, 0.32933796139008237, 0.33325355005022167, 0.3372188885473422, 0.3411367499785912, 0.3450603592960985, 0.34902023942108207, 0.35294848173745946, 0.356807905769625, 0.36075354493783984, 0.3646973617874523, 0.3686283273885001, 0.3725681818530148, 0.37654937546261946, 0.3804746249232202, 0.3843970976485176, 0.388252798308055, 0.39217462150735444, 0.3961815510816287, 0.4000722307545652, 0.4039578143103904, 0.40775647495615164, 0.41163800434999215, 0.4154430030181261, 0.41930479344076976, 0.42314827410657785, 0.42710272226278734, 0.4308926139009425, 0.43454821913851516, 0.4383284352970748, 0.4420870360829971, 0.4458516198400946, 0.44956220604546493, 0.45333882130394965, 0.456994662490906, 0.46063231434460883, 0.4641697405446751, 0.4677765432722005, 0.47126166592700713, 0.4748252325049854, 0.47835477090577594, 0.48201117816023137, 0.4854520930866069, 0.4887941029859366, 0.49219179299436405, 0.49555671834713005, 0.4988180069175129, 0.5021235359788335, 0.5054176337140596, 0.5086404271428735, 0.511824583029323, 0.5149833753060215, 0.5180862976086995, 0.5211071430489889, 0.5241342770856758, 0.5271171432465156, 0.5300271792280625, 0.5329232839531141, 0.5358521737146312, 0.538642285849977, 0.5413882648560706, 0.5440679156937708, 0.5467247109718423, 0.5493781833188847, 0.5519307021048776, 0.5544351465704829, 0.5567783097610539, 0.5591970571556466, 0.5616523210848491, 0.5639430546467096, 0.5661807160927628, 0.5683082701708747, 0.5704437347683918, 0.5725024549828507, 0.5745211522776086, 0.5764786493196861, 0.5783360989773088, 0.5801749434407668, 0.5819807467659792, 0.5836864322175146, 0.5853290591194872, 0.5869326430330029, 0.5884446271268672, 0.589799026337209, 0.59119601907401, 0.5925232419984935, 0.5939347548471795, 0.595103282675481, 0.5961758744502849, 0.5972256333763861, 0.5982100076827699, 0.5990127503542668, 0.5998786239024733, 0.6007543854304958, 0.6014617920618855, 0.6021003737599396, 0.602690628381104, 0.6031874626045048, 0.6036257731269948, 0.6039826855864124, 0.6042701098610199, 0.6045154998551917, 0.6046588664266548, 0.6047188953333674, 0.6047247547205418, 0.6046593849746669, 0.6043965142342431, 0.6042036873846662, 0.6040052124385016, 0.6036457007815055, 0.6032127904775597, 0.6027100755052153, 0.6021302232219374, 0.6015334662069447, 0.6008008796415333, 0.5998903278990606, 0.5990321227203887, 0.5980977774359425, 0.5971089906683711, 0.5960217906770415, 0.5948231444901059, 0.593595312543405, 0.5922932081349812, 0.5908720799795422, 0.5894293307051448, 0.5879223309611165, 0.586329760021523, 0.584664959703658, 0.5829322163524248, 0.5811248391654804, 0.5793736277423183, 0.5774114270771922, 0.5753878210794038, 0.5731589912169398, 0.5710296885782126, 0.568879113321021, 0.5666042138728535, 0.5642639606698893, 0.5618344776548708, 0.5593684665631246, 0.5568236130772571, 0.5542305263080216, 0.5515735003539556, 0.5488534848349718, 0.5460714124760042, 0.5433086688275489, 0.5403950593615463, 0.5374266443686783, 0.5342812310374322, 0.5312195312300432, 0.5281356347964627, 0.5249491693740734, 0.5217070461081468, 0.5183928139614811, 0.515044705048665, 0.5116150767561591, 0.5081646140502216, 0.5046613719345154, 0.5012431557466948, 0.4976211554998728, 0.49397900490639973, 0.49027223568278566, 0.4865259518580817, 0.482670399155352, 0.4788546965820216, 0.47507350533861076, 0.47116425668603457, 0.46721908465000667, 0.4631090589292803, 0.45911004295638247, 0.4551081353881587, 0.45102331092085346, 0.4469028259634373, 0.4427445654826032, 0.4385573415165687, 0.4344013531913533, 0.43014407505091684, 0.4258613488199095, 0.42144907568741463, 0.41713134676005653, 0.4128654710517681, 0.40848219000541736, 0.4040784407134455, 0.399641305181659, 0.39520164379392436, 0.39065657201995635, 0.3861933344352836, 0.3817097665422514, 0.3772848076639648, 0.37275668000817075, 0.3682811869320721, 0.36372554455606254, 0.3591653615051519, 0.3546012839496894, 0.3500340325958616, 0.34540841895528746, 0.3408443202468412, 0.33627644218260105, 0.3316816931045948, 0.32711353217007766, 0.322575855323945, 0.31800326126749523, 0.31343449986970495, 0.30880082769090045, 0.30425225683260015, 0.29975624474907286, 0.29521042138447245, 0.29067441420103407, 0.286096990406134, 0.2815909711278523, 0.2771794796934781, 0.2726855969221976, 0.2682101754016231, 0.2637645356474173, 0.2593272130120692, 0.25484502536289866, 0.2504601349013618, 0.2460947772076607, 0.24174685389582148, 0.23742515790000487, 0.23306039012251947, 0.228795194836945, 0.2245522192025082, 0.22041017837043317, 0.21620705044984256, 0.21198992159189753, 0.207856345645689, 0.2037533774156326, 0.1997941683508103, 0.19574180749750494, 0.19164582217594875, 0.1876849144905693, 0.1837600197167403, 0.1799385744220527, 0.17608016661605227, 0.17233078263151647, 0.1685494218325934, 0.16481507874505066, 0.16095271629846733, 0.15733428604777075, 0.1538089719062069, 0.15025929068139815, 0.146752873058173, 0.14324512120399693, 0.13983358975664512, 0.13642331752935405, 0.1331047093112677, 0.1298291695140506, 0.12664349062036115, 0.12345215982872797, 0.12035553594324606, 0.1172575404721935, 0.1142125469106386, 0.1112592226116435, 0.10831592533368618, 0.1053269024798094, 0.10250778294998926, 0.0997385135247445, 0.09706184916285884, 0.09438921602922397, 0.09169392214055791, 0.08913985962436959, 0.08663621717213184, 0.08428525758368814, 0.08187194926537752, 0.07945041992105599, 0.07716174026394013, 0.07492705133565174, 0.07272216595377334, 0.07059941209508895, 0.06862449465006046, 0.06659690913475388, 0.06462865187356909, 0.06270869885512866, 0.06085887667806354, 0.05902083327763849, 0.057290931344183144, 0.055615049884452, 0.05397923114471667, 0.05241322873238094, 0.05099491157763845, 0.049523451121789096, 0.04811053705797946, 0.04666089003978526, 0.04537460377821254, 0.04415674141955738, 0.04297017763768815, 0.04183560736697046, 0.04069336565266574, 0.03966969349643939, 0.0387289794861004, 0.03779700928321509, 0.036915241687440384, 0.0360903942437372, 0.03530726515409047, 0.03456676782658461, 0.033883322426703465, 0.03324816698681448, 0.032702824812627436, 0.032157531900325116, 0.03165791349278531, 0.03121052001189209, 0.03081033999068354, 0.03039356619197335, 0.030093279125964146, 0.0298901619553586, 0.029664870517227163, 0.029483224240560258, 0.029291863521953468, 0.02920150051844706, 0.029201679260432507, 0.0291803568869847, 0.02919908693578801, 0.02924640010709004, 0.029343649271379762, 0.02950195432945862, 0.029668371893930377, 0.029836003492409547, 0.030078166163372312, 0.03035242982020368, 0.030787478548787755, 0.03110727495001097, 0.03131715763383737, 0.0317277212493947, 0.03216345772442973, 0.03266238666995467, 0.03314215531224464, 0.033574233061906184, 0.034113919176545694, 0.03467340081959103, 0.03537128171323134, 0.03595420103357319, 0.036544838547728525, 0.037178880093266746, 0.03783419105396161, 0.038586487326639586, 0.03927088609417356, 0.03994923198201359, 0.04067926437921421, 0.041426213227454364, 0.04211175685066185, 0.04289826269089957, 0.04375643785496103, 0.04455179047346517, 0.04535817120393828, 0.046076464776137464, 0.04691384987700813, 0.04781286698966165, 0.04864676942196969, 0.049485539557322836, 0.050377263770690434, 0.05121689973257816, 0.051960021935481895, 0.052821090840258385, 0.053678898386796306, 0.05452957915077973, 0.05538014762113435, 0.05625747676820212, 0.05709411851860664, 0.05792677025020377, 0.05881757679230258, 0.05963180011941486, 0.060373110293736175, 0.061188960863886886, 0.06199534026008549, 0.06281609377363855, 0.06359848856674612, 0.06439180848430194, 0.06515054542642092, 0.06589866989251984, 0.0666561707800161, 0.06737744988644205, 0.06807940929315166, 0.06877587101047201, 0.06945755917384897, 0.0700885949555549, 0.07074251926787534, 0.07138764168989177, 0.07200114776765142, 0.07259495227853455, 0.07321395594985441, 0.07376088061179194, 0.07434843185764689, 0.07484923708231486, 0.07533278550325088, 0.07567186600757533, 0.07613314225064503, 0.0766051079370425, 0.07700598525193794, 0.07738129890783244, 0.07783217778155106, 0.07814256191335464, 0.07850559032574225, 0.07876392419493099, 0.0790034457015507, 0.07914570253276607, 0.07935304435888658, 0.07954378623174413, 0.07969520671508662, 0.07981936498706203, 0.08002082671806586, 0.08007607589686841, 0.08007395810118209, 0.08008778456768344, 0.08007524854147266, 0.08011979491935399, 0.0800424472788009, 0.07997713144740816, 0.07984850023447997, 0.07969712253332017, 0.07946607457932416, 0.07927359708313236, 0.07908083755729567, 0.07882821537327507, 0.0785488237677133, 0.07828447115734487, 0.07794578976518748, 0.0775404189483565, 0.07715733244483557, 0.07674668473092797, 0.07644164725459304, 0.0759597921697965, 0.07549012319797142, 0.07496495433910756, 0.07442095114932729, 0.07396239396278445, 0.073365591973714, 0.07262835339374624, 0.07201742428226433, 0.07138302005152379, 0.07081647143004967, 0.07012478167563693, 0.06934952334137293, 0.06863183515255764, 0.06789303166255474, 0.06730861091442714, 0.06650721674534046, 0.06565087463050978, 0.0648355674756618, 0.06400698461900757, 0.06314065624765107, 0.06228879512183495, 0.0615276386757616, 0.060634539797066116, 0.059734207701118994, 0.058735483934609756, 0.057831745765358634, 0.057002978357335414, 0.056064139605531166, 0.055119618817999226, 0.05418717981359453, 0.05322999650920623, 0.05225522022015305, 0.05129300606696716, 0.05032729043349586, 0.049449710084448414, 0.048467572651297454, 0.04740176213323371, 0.04643835377538893, 0.04547413697648202, 0.044615103556556165, 0.04363912430510764, 0.0425594263242366, 0.04161429848591804, 0.040671691750560915, 0.03983090494790059, 0.038884953840351164, 0.037905495058812716, 0.036989727677422125, 0.036084433042083, 0.035236091020108815, 0.03434900497825646, 0.03352346724851039, 0.03266343979525364, 0.031823433981358305, 0.030982869000512597, 0.03018687873098563, 0.02947768733525993, 0.028714760631668758, 0.027977559254852187, 0.027248945456669685, 0.026566567331659255, 0.025868293674640185, 0.02524414971960838, 0.024645290956557507, 0.024076397313949973, 0.023531205130122565, 0.02300802311524147, 0.022522861971001104, 0.022068573249930692, 0.021747788729307226, 0.021345927081771195, 0.020907144498010895, 0.020595420616873823, 0.02032013628941674, 0.020117369624011554, 0.01991380952074907, 0.019727409340370594, 0.01961102204370381, 0.01953648650453215, 0.019571288258968696, 0.01957508324903371, 0.01959598421847797, 0.019701391810483825, 0.019854571194420776, 0.02004232755598979, 0.020295225750294774, 0.020601028121188438, 0.02095322281938764, 0.021356860507175796, 0.02178132492328124, 0.022294428124991984, 0.0228422869932029, 0.023463180763991773, 0.024137458767779334, 0.024981702939292735, 0.0257514858064778, 0.026549364907763086, 0.02744976848221556, 0.028400929234008908, 0.029425603640228892, 0.03051183294029501, 0.03158669615013077, 0.03280696388197996, 0.03416675915289548, 0.03549609800270946, 0.03689117456271898, 0.03825084683222249, 0.03979117874394688, 0.041546453400198705, 0.043190483953239295, 0.044906350296419116, 0.04661329885989021, 0.04848221311600866, 0.05046675241443785, 0.052463297609839775, 0.05453026318562751, 0.056625730092345145, 0.058839046322125825, 0.06116263216483088, 0.06350764257560387, 0.06592411138406665, 0.06842604416582067, 0.07098369944355942, 0.073547171491144, 0.07625771100614055, 0.07903662367287258, 0.08186337061987449, 0.0847829759392936, 0.08778843602424799, 0.09084299195326477, 0.09396769164264893, 0.09721166445863486, 0.1004708604512195, 0.10374377983519477, 0.10715650734224902, 0.11063833223724524, 0.11418935697710313, 0.1178096248862526, 0.12150961899557362, 0.12526695599173626, 0.12909393230253285, 0.13310925065952242, 0.13705969250399236, 0.14098415265691386, 0.14509707189938062, 0.1492772590225314, 0.1534929074950286, 0.15781061775416255, 0.16230821928332134, 0.1667400481126056, 0.17124240437809699, 0.17569512532763654, 0.18034999576453142, 0.18510373342769995, 0.18987440486023094, 0.19470733812098628, 0.19969642768955628, 0.20464021447212719, 0.20950633705799088, 0.21459839346472398, 0.21974540831063524, 0.22503820204622985, 0.23028311692434802, 0.2356083900010048, 0.24096825306832845, 0.24638641401543274, 0.2518091246736178, 0.25734673611838355, 0.2628869983414228, 0.268533292867841, 0.2742268948140555, 0.2801107994880411, 0.2858794695859629, 0.2916249653066319, 0.2975091339109923, 0.3034392185749641, 0.30937218806468986, 0.3153962512028704, 0.32142219998915084, 0.32753111182971345, 0.33367666522380907, 0.3399352716217383, 0.3461426223797864, 0.3523330371179604, 0.3586241314651239, 0.36494830619958424, 0.37142706335846204, 0.377799031126285, 0.38413800242690654, 0.3905907010219734, 0.3970724046535385, 0.40350830477720145, 0.4100532862869041, 0.4166716018782848, 0.4232509051683557, 0.4298524218643799, 0.43646433320767475, 0.4431076234587046, 0.44983151071732597, 0.45650081870158515, 0.46318873071859257, 0.46982346766998023, 0.4765520554389577, 0.4832270585778141, 0.4899812678397866, 0.49673906067360746, 0.5035802237838678, 0.5103328813448439, 0.5170773416341732, 0.523841788070599, 0.5306081116478399, 0.5373328954759351, 0.5441039753193991, 0.550964727221322, 0.5577131886751936, 0.5644599231427075, 0.571077048093442, 0.5778305062061572, 0.5845975291549979, 0.5913178488590892, 0.5980237316766991, 0.6047490369520999, 0.6114182114153035, 0.6180854318274497, 0.6247194449740315, 0.6313353171091728, 0.6378824873664168, 0.644463552140183, 0.6510575455345681, 0.6575815241644929, 0.6640798615042998, 0.6704741238815414, 0.6769265308210501, 0.683372625344905, 0.6897521034479043, 0.6960972154170388, 0.7024488202448984, 0.7087165062136089, 0.714780838560468, 0.7209974057850345, 0.7271661557614677, 0.7333289855814419, 0.7393964012704637, 0.745382720690679, 0.7513615487049597, 0.7572906712695882, 0.7631309979414338, 0.7689636808379445, 0.7748229315998213, 0.7805371543732567, 0.786200928925884, 0.7917989651015978, 0.7973597410307224, 0.8028479544861354, 0.8082996735633703, 0.8136930905943848, 0.8189537650328729, 0.8242369452745534, 0.829510745629351, 0.8346557467454928, 0.8397376844806552, 0.8446401389364234, 0.8496076442763955, 0.854590178371521, 0.8594017373968598, 0.8641456281142926, 0.8688139375264942, 0.8734206376880175, 0.8779250727495768, 0.882393372205082, 0.8867874854595149, 0.8910333921369686, 0.8952867486719691, 0.8994600903548327, 0.9035534148003904, 0.9075666411309956, 0.911534605882538, 0.9153827091818741, 0.919166062020315, 0.9228543304071334, 0.9264634885421255, 0.929929881493444, 0.9333867580008391, 0.9367730062422859, 0.94005876292701, 0.9432604334878033, 0.9463322508244311, 0.9493706295073955, 0.9523844558640846, 0.9552398814328484, 0.9580113916474362, 0.9606074985380627, 0.9632211315235812, 0.9657267699435176, 0.96816191318027, 0.9705061195899698, 0.9727772170012495, 0.974938284750584, 0.976975249504968, 0.978962547700505, 0.9808588326605263, 0.9827028818093505, 0.9844131131104389, 0.9860247555939051, 0.98756000475787, 0.9889923481662253, 0.990351538274057, 0.9916210298712053, 0.9927484721111312, 0.9938455808243947, 0.9948364312390429, 0.995751334085346, 0.996574248331435, 0.9973372425078963, 0.9979738988041308, 0.998546439824943, 0.9990030039852754, 0.9993727717422903, 0.9996592735341245, 0.9998551371639667, 0.9999785957808217, 1.0, 0.9999360437909132, 0.9997867960621278, 0.9995523748798365, 0.9992714287938395, 0.9988623345882481, 0.9983708538184661, 0.9976325401305178, 0.996997103321968, 0.9963681843027539, 0.995538998964921, 0.9946268034938348, 0.9936146412187238, 0.9925402614083927, 0.9913625562097249, 0.9901268882078087, 0.9888091598958615, 0.9874312575757171, 0.9859494218375106, 0.9844173255803783, 0.9827761349953958, 0.9810596405311365, 0.9792088477361305, 0.9773507462609842, 0.9755275147411383, 0.9735021664109472, 0.9714081388824841, 0.9690916237861693, 0.9668801719349426, 0.9645745583699538, 0.9622135987091401, 0.9597781430444156, 0.9573117761267638, 0.9547267449739322, 0.952077639502918, 0.9493580621651312, 0.9465731755878718, 0.943748453200347, 0.9408327960687412, 0.9378981180357409, 0.9348559181124071, 0.9317566367553, 0.9285272837765071, 0.9253246266775058, 0.9220204005493182, 0.918705118763235, 0.9153303506523252, 0.911943107519189, 0.9084481469973222, 0.9048726789749287, 0.9012772183552752, 0.8976296695594277, 0.8939172678890084, 0.890170975026024, 0.8863579318294342, 0.8825166103540606, 0.8786275690055025, 0.8748321060298748, 0.8708339641391759, 0.866729941769492, 0.8626689503057241, 0.8585684815229802, 0.854397947985524, 0.8502252248986044, 0.8461084782829793, 0.8418480580034456, 0.8375568662614925, 0.8332038422405909, 0.8288564483423053, 0.8243835724518663, 0.8199869790922771, 0.8155558938895445, 0.8110815348472049, 0.8065878606893166, 0.8021165116062459, 0.7975574951265445, 0.792974401371029, 0.7883752781142846, 0.783746295491865, 0.7790722851030258, 0.7744063106902666, 0.7697204045925625, 0.7650192583747893, 0.7602966039935074, 0.755550732742245, 0.7507976275244088, 0.7460301040663607, 0.7411828236211354, 0.7363982469872609, 0.7316933216545642, 0.7268687963703143, 0.7220379043487061, 0.7171488627411927, 0.71231398251977, 0.7074579550861944, 0.7026117227994985, 0.6977598866294298, 0.6928581955122943, 0.6880045462736946, 0.6831987773706357, 0.6783307707581328, 0.6734639767227624, 0.6686132871377397, 0.6637498284985209, 0.6589050145085625, 0.654049833907487, 0.6492015839909848, 0.6443294157097944, 0.6395009353538395, 0.6346550829835759, 0.6298448616778385, 0.6250422154430015, 0.62029370417484, 0.6155036504262865, 0.6107023406916801, 0.6059424389147773, 0.601195582778458, 0.5964240911981178, 0.5917105809937375, 0.5869893178824181, 0.5823059957527295, 0.5776367938686148, 0.5729478470788384, 0.5683146005143738, 0.563682676846563, 0.5590830454025967, 0.5545002810911507, 0.5500055097695045, 0.5454510127204223, 0.540952009519488, 0.5364419007117065, 0.5319582801750935, 0.5275187501521693, 0.5230862578257623, 0.5186186902999577, 0.5142500162824948, 0.5099058671049163, 0.5056008793749522, 0.501305906578357, 0.4969541143269126, 0.49272448744551983, 0.4885181606041402, 0.4843642110943861, 0.4802041166982018, 0.47617683470034255, 0.47205978358379824, 0.4679776330619073, 0.4638915683294027, 0.45988315747938924, 0.45593117532898586, 0.4519837026962345, 0.44806986443987035, 0.44410916869423506, 0.44027272311934407, 0.43646190063710777, 0.43268483481169784, 0.4289380195592982, 0.42519406753243716, 0.4215130365337896, 0.41791129764793566, 0.41428536495480434, 0.410693750699515, 0.4071400838917429, 0.4036170427808351, 0.4001393652445453, 0.3966847982124141, 0.3932658100772699, 0.38988586360579747, 0.3865374859443249, 0.38315831019048197, 0.3798896234932715, 0.3766527608968387, 0.37347618756705975, 0.3703007995311373, 0.36719153113893677, 0.3640814979346179, 0.3610079815152532, 0.35787279593304827, 0.35488402656318446, 0.3520340784788418, 0.34909291951304544, 0.3461892994287095, 0.34319331538292136, 0.34037979778952787, 0.33770722552588256, 0.33493820761216, 0.3321147345747655, 0.32942979419049806, 0.3267754070722593, 0.3241379182612027, 0.32154735137807133, 0.31895587082584687, 0.31643068251655376, 0.3139347343716648, 0.31154186828749275, 0.3090961431450988, 0.3067266283581054, 0.304343596273189, 0.30199624725139185, 0.2996488216683559, 0.29737498864229883, 0.29516418382822535, 0.2929490964214243, 0.29076660697464385, 0.28857412820687695, 0.28646036032599603, 0.2843436279832895, 0.28229070676833173, 0.2802641649206074, 0.27834100882370005, 0.27635756507851866, 0.27436631842901293, 0.27244839487077344, 0.27055762028634606, 0.26865519310072017, 0.2668226236817873, 0.2649790907538646, 0.26319896568601947, 0.26144081161913335, 0.25976428070347435, 0.2580430114665653, 0.25641035400540274, 0.2547319100353774, 0.2530816678677272, 0.25137118559374394, 0.24978553818683114, 0.24831491029193267, 0.24675835475811128, 0.24522745645325256, 0.24370381290030885, 0.24222377688148558, 0.24077987211907564, 0.23934175133847627, 0.23792540465735887, 0.2363972454005166, 0.23503936428810143, 0.23376394764659417, 0.2324227370084992, 0.2310988997384993, 0.22979919874048854, 0.22850850486506416, 0.22714036746326421, 0.22589531404298835, 0.22466129983816557, 0.22358567622763173, 0.2223563063195803, 0.22110169974361185, 0.21991753636146297, 0.21874907673250166, 0.21754332191114115, 0.2164113583824323, 0.21525215679867563, 0.21414749870474004, 0.21305178477746467, 0.21204566521033524, 0.2109581502681534, 0.20984246705361492, 0.20878723981984035, 0.20774220545852423, 0.2067560928321954, 0.20572448601205728, 0.2046770402709838, 0.20367258900925053, 0.20267739343349772, 0.2016945728600407, 0.2007163150837069, 0.19973589532775438, 0.1987752435394537, 0.19782156996476413, 0.19691657259926626, 0.1959706941097363, 0.19500880605307394, 0.19408236182972566, 0.19316182197260065, 0.19228182880810443, 0.1913676579622412, 0.19037289910353433, 0.1894829459430509, 0.18859382315256654, 0.18764275564133923, 0.1867637994906285, 0.18604351921745563, 0.18514027318139858, 0.18424484303484467, 0.1833878051068882, 0.18250137741145428, 0.18146460931339367, 0.1806113348198381, 0.17975453679617504, 0.17891571308300686, 0.17805065430520414, 0.17729299237121654, 0.1764122293775941, 0.17553670435604496, 0.1745711400215747, 0.17371566140772957, 0.17290338021180382, 0.17203774579285, 0.17117266910534995, 0.17028689116330345, 0.1694247990767753, 0.1685858278612015, 0.1677178558602129, 0.16684979182098073, 0.165967388872953, 0.16510017256467283, 0.16420689207002742, 0.1633395407934615, 0.16246907891881987, 0.1615921280680393, 0.1607162262066774, 0.1598757994061128, 0.1589891060008412, 0.15810172857854027, 0.15720641882154957, 0.15631782917867004, 0.15545547035688184, 0.15455970245878603, 0.15366351123323319, 0.15274208286816407, 0.15184720827799728, 0.15089720105311052, 0.1500036328378119, 0.14910443249488928, 0.14818252110879257, 0.1472754615156627, 0.14640837172757923, 0.14548496593071006, 0.14455940208503423, 0.1435826640319694, 0.14265887006323896, 0.14184552221381858, 0.1408974923845342, 0.1399516352288111, 0.13898282211950147, 0.1380425706522555, 0.13707344847207273, 0.13613475063734895, 0.1351931965492179, 0.13423486751219166, 0.13328959878459049, 0.1323234292528019, 0.13137375063090692, 0.1304200600767713, 0.12945567374333608, 0.12849575668531318, 0.12751130569934813, 0.1265472537815824, 0.12557904832001637, 0.12470506349318038, 0.123717371818912, 0.12271815835869934, 0.1217366982287778, 0.12075602909149556, 0.11978290953497789, 0.11880226550483998, 0.11770326576804319, 0.11673867104185029, 0.11576767788558656, 0.11479813512608437, 0.11381592837506513, 0.11293497265851009, 0.11193264541496084, 0.11093356387250952, 0.10989185445828506, 0.10890389497170158, 0.10788413518301937, 0.1068996633858328, 0.10591337763026873, 0.10500262999477404, 0.10400410751704565, 0.1029426809261134, 0.10195937766981096, 0.10097532422007717, 0.09994535566841252, 0.09896647660227594, 0.09800616684529866, 0.09702040937781224, 0.09603458424429154, 0.09508750712710837, 0.09409764770142684, 0.09312128691146505, 0.09213605025407236, 0.09115431043987976, 0.0901059901184303, 0.0891397942726834, 0.08824288979966542, 0.08726701324082246, 0.08629538123907483, 0.085327858343978, 0.08436433760823996, 0.0833522602508622, 0.08240315870935751, 0.08147942763711882, 0.0805293951031985, 0.07958238956793265, 0.07874350562326626, 0.077789697670423, 0.07681722490762483, 0.07588488690686704, 0.07495897263444583, 0.07392023591427145, 0.07302137231546885, 0.072163505245147, 0.07125816746231992, 0.07035573004872517, 0.06944601165774249, 0.0685516197846941, 0.06770589017843331, 0.06681244149726678, 0.06592535810217742, 0.0650340529501867, 0.06416077350513785, 0.06326506813402465, 0.062406500558931585, 0.06155202617652191, 0.06067393806673554, 0.05983200682525652, 0.059105319768540956, 0.05825625404379901, 0.057417589557684626, 0.056518803606795724, 0.05570820388911324, 0.054951612120740054, 0.054145085486616285, 0.05334673645749149, 0.052542353922161965, 0.05176151299709724, 0.0509595255027181, 0.050195894905495926, 0.04943752258832178, 0.04866365009436206, 0.047919125510778635, 0.0471793183722434, 0.0464445721498736, 0.045715192689729935, 0.04497745734864261, 0.044261363411035586, 0.04368351672026815, 0.04296151976209763, 0.042252846895231025, 0.04160563652862841, 0.04091499976971884, 0.04010526890632209, 0.03945818419471864, 0.03881570062396661, 0.03829011853459135, 0.03764369398717502, 0.03703359228278721, 0.03640709620925268, 0.03579261079014047, 0.03519995697773453, 0.0346062360553444, 0.03408633638333212, 0.03350584427611673, 0.03293880182453872, 0.032373849412636733, 0.03183256549336524, 0.031298411630553684, 0.030778382379697725, 0.030267973438817652, 0.029805398139899134, 0.029308610410280152, 0.028707505291619043, 0.028247152103808643, 0.02779066945170414, 0.02745764703789815, 0.026995730584977114, 0.026560110060200395, 0.026120554670634906, 0.025693213278225404, 0.02527414021716415, 0.024870399376431835, 0.024568503026887886, 0.024174800780384455, 0.02379667909168027, 0.02348574498499455, 0.023129664290996874, 0.022758377928680813, 0.022437889076367835, 0.02213015422449718, 0.021810255031463038, 0.02152991973439618, 0.0212844021493907, 0.02102161137330603, 0.02077052322316499, 0.020583460204776704, 0.020348723415179938, 0.020145795349611677, 0.019937024725209557, 0.019742725721184545, 0.019649922120784428, 0.01947227362276171, 0.019344413628757547, 0.019198466983314226, 0.019070892128646908, 0.018950293417740408, 0.018858235368269232, 0.01872920580544036, 0.018674372459349747, 0.018631347049765247, 0.018635287359890937, 0.01861199164005224, 0.0187744662378676, 0.018758121759290775, 0.018765664924353234, 0.018690786201903852, 0.018755516817498374, 0.018929234678074853, 0.019011118763264116, 0.019112956721146507, 0.01927259237139674, 0.01940767799623319, 0.019500345821712537, 0.019683889533218264, 0.019883350019870565, 0.0201513324308104, 0.020376409437211696, 0.02062083205960325, 0.02088439691055072, 0.021166973901493323, 0.02148598992877889, 0.02180423902643593, 0.02209346804345194, 0.022457769980074784, 0.022839220250276113, 0.0232172646854619, 0.023636968279311422, 0.024154393671843324, 0.024599015275172855, 0.025066537772887584, 0.02557082924379031, 0.026082059922579497, 0.026588765721219234, 0.027150366252102275, 0.027733719710320535, 0.02836704004729921, 0.02899105037441403, 0.02967058295536263, 0.030338715283662696, 0.031032748767270312, 0.03176302351357681, 0.03250712480819167, 0.03329141411713165, 0.03408605229752073, 0.03490755847024449, 0.0356823680031776, 0.03656666614919528, 0.03759252856766424, 0.03850765834672489, 0.039453326501633676, 0.04040816027674706, 0.04141650304451224, 0.04240783784423674, 0.04347890283063199, 0.04457598322906805, 0.04566806380946362, 0.04682255716466141, 0.04809713406586474, 0.049291618609060936, 0.05051835875900117, 0.05180168922740218, 0.053089437782582474, 0.054312561624287804, 0.05567916696771792, 0.05707328163291718, 0.05847462884580935, 0.0599285124412288, 0.06150519375477721, 0.06300456418708143, 0.06453902488767965, 0.06603149415633872, 0.06764556966858573, 0.06935317947566749, 0.0710210437214896, 0.07272421641389061, 0.07446623410915827, 0.07623972132368284, 0.07804540342638235, 0.07989079837163655, 0.0817718685255153, 0.08361179249192995, 0.08557439386632837, 0.08766678041111539, 0.08968144490347119, 0.09173495370476913, 0.09379919259104887, 0.09593358964096664, 0.09804552066307835, 0.1002616581749971, 0.10251187200688489, 0.10485981337594315, 0.10717218995458236, 0.10949954098355173, 0.1118939430990674, 0.11436493580989478, 0.11683091236092139, 0.11933759480766186, 0.12184639046185204, 0.1244390492253578, 0.12716446156510264, 0.12982203404336282, 0.13252371912175262, 0.13521300990879748, 0.1380084807173476, 0.140868037711646, 0.14373972651387093, 0.1466526253704114, 0.14952268678945144, 0.1525283910190343, 0.15563336996611218, 0.15870435425776977, 0.16181637891187173, 0.16493794893055966, 0.16813601026584993, 0.17138031577466273, 0.1746562280394477, 0.17797222792380038, 0.18143688691146406, 0.18481967931220936, 0.18819645276281352, 0.19167797715962723, 0.19520146213244502, 0.1988226515294429, 0.2024223006736041, 0.2059789411733088, 0.20967791751844767, 0.21341522474939142, 0.21722603225917456, 0.2210360929280022, 0.22483791004398643, 0.22873542962987098, 0.23267052821071033, 0.23667138511640795, 0.24067862666872725, 0.2447219462930565, 0.24880860903694105, 0.25293429036178106, 0.2571617911658228, 0.2613570143211542, 0.2656012216062303, 0.2698788078229853, 0.27419736836174746, 0.27850023340844055, 0.28290578203145694, 0.2872947280666743, 0.2917785301585425, 0.2962949698386491, 0.3009247463273131, 0.30549690913175653, 0.3100857047610337, 0.31473513782591017, 0.3194197721606974, 0.3240447190668706, 0.32881040361592095, 0.33367814355217956, 0.33849201532759327, 0.34333909893816883, 0.34816293147388144, 0.35308204193510534, 0.35803321934537025, 0.3630089464379205, 0.3680132135444078, 0.37308426610532075, 0.3781399787040263, 0.3832744974387213, 0.3883829745193114, 0.3935226308307293, 0.39854543204684456, 0.4037627789645197, 0.4091048521976982, 0.41434867460934743, 0.4196184500536427, 0.4248538431946301, 0.4301804712800346, 0.4354501901718731, 0.4408263046111758, 0.4462173799985087, 0.451805490642887, 0.45720381933823145, 0.4625084691948911, 0.46797073392408906, 0.4734483947659705, 0.478912946708085, 0.4844233419699778, 0.49002284593181344, 0.49554737560690587, 0.5010874698901029, 0.5065894967499828, 0.5121639176725491, 0.5176950909931753, 0.5232939428210694, 0.5288977164007457, 0.5346285510047667, 0.5402256798647981, 0.5457599737769087, 0.5513861467748766, 0.55701586776285, 0.5625713662292867, 0.5682154819197263, 0.5739228213286041, 0.5795517894628798, 0.5851806519268564, 0.5908154456731418, 0.5964403218148308, 0.6020870652813767, 0.6077025576391507, 0.6133147166543246, 0.6188138495340048, 0.624429362052929, 0.6300562988187741, 0.6356422842317236, 0.6412158886691203, 0.6468184264166261, 0.6523599089677047, 0.6578717305888926, 0.6633899525176888, 0.6688927607578903, 0.6742812167973263, 0.6797626316777549, 0.6852831369598744, 0.690708603559335, 0.6961131761899154, 0.7015169216940297, 0.7068742591226143, 0.7121285833639078, 0.7174498530902857, 0.7227417742853376, 0.7279618809720791, 0.7331988892943322, 0.7384829982033139, 0.74364276261854, 0.7487729062248758, 0.7538442808376299, 0.7589152491584872, 0.7639585672363113, 0.7689584473073929, 0.7739222368432997, 0.7787404840982998, 0.78364280598607, 0.7885909043592176, 0.7933912198985689, 0.7981510758888959, 0.8027749419957038, 0.807462616001957, 0.8121608104396819, 0.8167427656784222, 0.8212784384800107, 0.8256794375843014, 0.8301308116987836, 0.834531690113694, 0.8388743951868216, 0.8431627388832751, 0.847371801732968, 0.8515531657461336, 0.855628342641573, 0.8597010836455158, 0.8637130029587571, 0.8677794235366759, 0.8716546218177166, 0.8753243795882076, 0.8791072774341695, 0.8828241550920619, 0.8864925019008587, 0.8900750145426845, 0.8935991788906715, 0.8970496996164155, 0.9004343836750328, 0.903773655691785, 0.9070222846604875, 0.910155497204675, 0.9132766409186135, 0.9163270001008569, 0.9194041425274436, 0.9222993400535625, 0.9250510116831254, 0.9278215575555901, 0.9305187734938556, 0.9331736539001413, 0.9357187464848232, 0.9382432631967065, 0.9406348610873561, 0.942954880642474, 0.9450132975105174, 0.9472108176585604, 0.9494105556862823, 0.9514271806611018, 0.9533646564181687, 0.9551877236600469, 0.9569704962493714, 0.9586923111486266, 0.9603085315881456, 0.9618439481006235, 0.9632353597540411, 0.9646164466990775, 0.965968489461952, 0.967172742933151, 0.9682641442204188, 0.9693093782570222, 0.9702709561836086, 0.9711314007848719, 0.9719279102286397, 0.9726712766234564, 0.9732946716805082, 0.9738354358329954, 0.9743493824705373, 0.9747173395984398, 0.9749319126290338, 0.9751487790536073, 0.9752805869905316, 0.9752680544968964, 0.9752378383265048, 0.9751757678023227, 0.9749634771045828, 0.9746677687228612, 0.9742537664385049, 0.9737959870097135, 0.9733371614729329, 0.9726991819725549, 0.9719817607975815, 0.9710936685723195, 0.9702281348010473, 0.9692634741027502, 0.9682301155744865, 0.9671121521404699, 0.965994277345826, 0.9646986419494801, 0.9632797249146063, 0.9618342066393443, 0.9603083373232464, 0.9587585534330805, 0.9570662977599624, 0.955203791253035, 0.9533719460221446, 0.9514591774855324, 0.9494734267620747, 0.9474007258203324, 0.9452467328104177, 0.9430196892890444, 0.9407162475779963, 0.9383547083296151, 0.9358986727394063, 0.9333626205435955, 0.9307620760988022, 0.9280894259259085, 0.9253558984182849, 0.92253991750127, 0.9196896320175952, 0.9167313273404787, 0.9137070767403593, 0.9106033283553849, 0.9074503382643653, 0.9042216134309803, 0.9009401846644586, 0.8975943848115615, 0.894062624527577, 0.8906061569868657, 0.8872000220292728, 0.8835931741919693, 0.8799280644821753, 0.8761669448894462, 0.8723924180945244, 0.8685457827795177, 0.8646579376466323, 0.8607134651191761, 0.8567205978380082, 0.8526656725506341, 0.848509182730589, 0.8443564066778764, 0.8401505456276304, 0.8359350934437461, 0.8316222383331869, 0.827312021060265, 0.8229013289467232, 0.818449128350285, 0.8139595775898041, 0.8094259541284324, 0.8047447104946366, 0.8001472555086986, 0.795506171982249, 0.7908372042871376, 0.7861122762137528, 0.7812865823250291, 0.7764954814461729, 0.771665918039948, 0.7669257261157525, 0.7620088851925672, 0.7569470993276772, 0.7519939351901196, 0.7470094163188674, 0.742061712943627, 0.7370111069583278, 0.7318713011819639, 0.7267846213977894, 0.7216734553586224, 0.7165218543231362, 0.7113685064644594, 0.7062606418209831, 0.7010584554257779, 0.6958420416706068, 0.6906682808755663, 0.6854190697835161, 0.6801055742628844, 0.6748473396696166, 0.669578759199783, 0.6642344647308931, 0.6589569103179962, 0.6536056241262127, 0.6483161575388676, 0.6430156175277691, 0.6377445094259238, 0.6324229036367672, 0.6271225947059056, 0.6217928962343335, 0.6164641077259592, 0.6112142934790773, 0.6058808682882585, 0.6004649547054702, 0.5951604088393287, 0.5898601599865602, 0.58454799971744, 0.5792623686531548, 0.5740467606667015, 0.5687685803390653, 0.5635035610440341, 0.5581369644209597, 0.5529150224151558, 0.5478174094212294, 0.542600320789367, 0.5374018757534952, 0.532205152334594, 0.5270479476873662, 0.5218437303675753, 0.5167346369762071, 0.5116428507452012, 0.5065452057651002, 0.5014950329130747, 0.49651354322840235, 0.49149791648642094, 0.4865073257941496, 0.4815775430287509, 0.4766349441744056, 0.47163419118691285, 0.4667617229800523, 0.46191458320678874, 0.45716043536749423, 0.452359048896407, 0.44761107005256756, 0.44287231371781577, 0.43816806201821445, 0.4333831601509002, 0.42876342734785006, 0.4242391488697873, 0.4196702627935778, 0.4151365602708151, 0.41059661616507803, 0.40614024013910144, 0.4017078084392899, 0.39732247562721007, 0.3929726059729619, 0.3886974870074563, 0.38441602704829236, 0.3801989081028396, 0.3759943751338149, 0.3718316977451877, 0.3676899859257791, 0.36361398967874886, 0.3595650158548589, 0.35557312236775745, 0.35162204546248677, 0.34763170125026693, 0.343773546846038, 0.33996324546272527, 0.3361794212011144, 0.3324353209277161, 0.3287665826180267, 0.32509938617568723, 0.3214546129745203, 0.3178770513552592, 0.3143420034996627, 0.3109197084385873, 0.30746160333897377, 0.3039946390277707, 0.3006374277101749, 0.29732339099658145, 0.2941365897281338, 0.29089854642181506, 0.2876071362452283, 0.2844774386454131, 0.2813888717936376, 0.27832770558628966, 0.2753239055548333, 0.2723365895896219, 0.26941805363491406, 0.26653949892993295, 0.2637851938827662, 0.2609768238364318, 0.2580948938941983, 0.25539176645924516, 0.2527262273254342, 0.25008820994311987, 0.24750036213560844, 0.24504147288152528, 0.24251836035676885, 0.2400422463869038, 0.23760503955776127, 0.23521024563940193, 0.23277325910011062, 0.23047200256081696, 0.228252059017885, 0.22601680151061207, 0.22382002736378237, 0.22166481883237085, 0.21954330694381188, 0.21744519276899096, 0.21539975185057153, 0.2133899460590771, 0.2114013972983026, 0.20946345805854574, 0.2074891850339957, 0.20562703533886767, 0.2037939041818068, 0.20198296756858802, 0.20020918135959404, 0.1985237361431741, 0.19680013099019814, 0.19510858864092942, 0.19345894714016504, 0.19182822742459776, 0.19018969362826466, 0.18862442814824035, 0.1870861799355246, 0.18558851844280125, 0.1841012308124716, 0.18271735013951418, 0.1812725909728526, 0.1798573445665528, 0.17841438291932374, 0.17706155531504655, 0.17576303768360885, 0.17445126902442618, 0.17316287484374077, 0.1718690026404186, 0.17062833236118688, 0.16932999091826934, 0.1681370845512701, 0.16695802876747481, 0.16581386087448244, 0.16465990868864608, 0.16356986427735196, 0.16243923108543354, 0.16132554550140582, 0.1601895114528148, 0.15911216759411378, 0.1580927082372945, 0.15703397000754293, 0.15598926158076357, 0.15493673131218622, 0.15392018250758427, 0.15293147750261, 0.15193280518003027, 0.1509442386215893, 0.1498740649358633, 0.14891497524909028, 0.14797967954346278, 0.14702357561040544, 0.1460714456830324, 0.14520347900850586, 0.14424825552403567, 0.14328308969244455, 0.14234415392649505, 0.1414097929048975, 0.1403917658382395, 0.13947530776663442, 0.1385632641664406, 0.13764076295077146, 0.136716021687772, 0.13587283528752292, 0.1349324473297862, 0.13392742973815108, 0.1329981740325782, 0.1320651730338956, 0.13108612995649327, 0.13014998382853984, 0.1292172349502663, 0.1282655408308034, 0.12730723634634886, 0.1263736011791653, 0.12539744479547119, 0.1243877524952949, 0.12340350361558297, 0.12241107901843355, 0.12145217842430714, 0.1204372338462099, 0.11940159150884717, 0.11837435766845233, 0.11733836895684961, 0.11625467426187644, 0.11520465776971506, 0.11412838593911805, 0.11305551307900162, 0.11196936651031826, 0.11096087880867003, 0.10983657022307536, 0.10869693087143802, 0.10755600904984744, 0.10640477478810546, 0.10522510541287111, 0.10405362460062453, 0.10286912614911534, 0.10167127945475629, 0.10045978197552477, 0.09919587399291599, 0.0979611371751949, 0.09672732714813308, 0.09545735084850022, 0.0941719806586595, 0.092822168558954, 0.09151200169503648, 0.09016600841781901, 0.08882172659969016, 0.08745876871944191, 0.08608103479388954, 0.08468143671436208, 0.08335538009757543, 0.0819096824687684, 0.0804521221585773, 0.07896816027762263, 0.07748707899696416, 0.07585897506355523, 0.07436630426681001, 0.0728516536299449, 0.07137890242642866, 0.06981495046991869, 0.0682454836968336, 0.06664832122064546, 0.06503600584715662, 0.06339458641731853, 0.0617538714511822, 0.06011136609004604, 0.05843749454674788, 0.05674898298911096, 0.05501790566428929, 0.053303852530411776, 0.051612297521793395, 0.04986173332812212, 0.048097979535162975, 0.04630703071225873, 0.04451866103642734, 0.04275484865576543, 0.04093394157293634, 0.03910163964870069, 0.03720185791096899, 0.03535356517636221, 0.03349054947835839, 0.03161328425303084, 0.02972222421643005, 0.027894775077021067, 0.025967695669751767, 0.02392746178441533, 0.02199703806227246, 0.0200521605731428, 0.018156559827373964, 0.016177036585804914, 0.014181729484752702, 0.012185638963527345, 0.010180641106876779, 0.008128485478961398, 0.0061112554692116985, 0.004083708378559976, 0.0020464346647199178, 0.0