0.04621596657236107, 0.046037263741134905, 0.045881099633546044, 0.04577513673617904, 0.04565089819421924, 0.04549613424004445, 0.045406975288101996, 0.045326608014369545, 0.04532159760420439, 0.04524633156273979, 0.0451493112822549, 0.04509487198228033, 0.04504538994528227, 0.044958516826929966, 0.0449223829035286, 0.04488575722066041, 0.04485198078593695, 0.044819341280116214, 0.04480962747319339, 0.04477708514724224, 0.04471818180630026, 0.044695390357504174, 0.04467415242514761, 0.04469038249056751, 0.04466896852360817, 0.0446291432067819, 0.04462026100970476, 0.0446150683989881, 0.04457530900920675, 0.04458340152443878, 0.044604839993081916, 0.044617277444506026, 0.04463408340944401, 0.04464490772296963, 0.04467316030673756, 0.04472653114033593, 0.04476279804689568, 0.04480612095307746, 0.04484437752375884, 0.04490405269393695, 0.044970749288344526, 0.045044767204743236, 0.04512638557323238, 0.04521277661329771, 0.045310749732980354, 0.045438496607517795, 0.04555029100388903, 0.04567191808768615, 0.04578488571974517, 0.045928637449834435, 0.046064333067799314, 0.04622829882019688, 0.046400650529126855, 0.0465415716774288, 0.046736727224667256, 0.04699450778324639, 0.0471973003822291, 0.04741136060932127, 0.04761355519789281, 0.047853168301192135, 0.04810285755271029, 0.04836286361394935, 0.04863341275047086, 0.048880750936765215, 0.04917731139171263, 0.04950010270099565, 0.04981346843080201, 0.05013791129203909, 0.05044125317465802, 0.05079267168444765, 0.05122815268343828, 0.05159056963021683, 0.051967988968626304, 0.05232932342944393, 0.052740070493167014, 0.053157408161844576, 0.05359462292431067, 0.054044565634478105, 0.054487369105548744, 0.05496591425684412, 0.0554473956701712, 0.05595186439823881, 0.056468693484143115, 0.05699208828802581, 0.0575355344590424, 0.05812139164659279, 0.0586876330914562, 0.05926927736158846, 0.05986175995796919, 0.06047500564599511, 0.06105729930528015, 0.06170726241197183, 0.062370245641244736, 0.06308071618474798, 0.06376689749988708, 0.06444157908511684, 0.065163960383045, 0.06590127772451432, 0.06662606418952619, 0.06739771403130725, 0.06825311250157008, 0.06904498723745371, 0.06985592481132469, 0.07062861811307271, 0.07148439530499823, 0.07235557586405067, 0.07324251876341674, 0.07414554698465556, 0.07505568670485094, 0.0759928971919867, 0.07692638403810124, 0.07789911068807155, 0.07888759054864085, 0.07990146896414134, 0.08092138124601359, 0.08198173431536122, 0.08303345911035873, 0.08410409668068328, 0.08516888683139479, 0.08628030613425541, 0.08737820783395389, 0.0885284020857881, 0.08969449375711756, 0.09089535879642283, 0.09209189581811779, 0.09330935366255005, 0.0945412254325582, 0.09579120256435313, 0.0970685458775103, 0.0983535397249902, 0.09964167063517644, 0.10096565607421727, 0.10230712171576407, 0.10368460243271246, 0.10505868998441958, 0.10644818128165569, 0.1078594540512145, 0.10928867311712315, 0.11073259621505993, 0.11219763591263571, 0.11364756280368088, 0.11515119429966603, 0.11667005342886842, 0.11821043843222434, 0.11975930194492779, 0.12134561486711605, 0.12292338341944709, 0.12451811832132233, 0.12613574996340973, 0.1277629026049877, 0.12936031889410685, 0.13102620508686097, 0.13270550233156475, 0.13441220107722993, 0.13611680515478428, 0.13782958546689794, 0.13956354195766008, 0.14131121983439876, 0.14306169223642548, 0.14483780041121277, 0.14666828950570915, 0.14846441973856517, 0.15027536776398168, 0.15209293136550983, 0.15393306230943965, 0.15576302316080204, 0.15763168954333642, 0.15951130563749266, 0.16140014910456535, 0.16330130427605552, 0.1651818475103505, 0.16710721928379846, 0.16904066071265939, 0.1709883372300937, 0.1729370588818862, 0.1748924853686624, 0.1768577116625424, 0.17883069442929247, 0.1808312738086434, 0.18281651071465274, 0.1848222122535113, 0.1868216492707099, 0.18882896575270056, 0.1908065442441478, 0.19283263225531183, 0.1948829429139178, 0.19691456416955458, 0.19895097336100462, 0.20099018052057635, 0.20303501934585386, 0.20510791499432682, 0.20715589279765262, 0.20920771849290015, 0.21120715759749722, 0.21327177477099982, 0.2153630186981922, 0.21742164257247226, 0.21948032152106323, 0.22153860449379942, 0.22359603422709162, 0.22560582790791933, 0.22766601273368406, 0.2297383228693453, 0.2317865365597062, 0.2338305808696973, 0.23591952369880828, 0.23794793860698749, 0.2399105633725638, 0.24194120597137306, 0.24396423449299748, 0.24597478245886778, 0.24798242748668636, 0.25000609009880326, 0.2519929403152602, 0.2539718612517811, 0.2559422952858054, 0.257903684053763, 0.2598199570324462, 0.26176606885961606, 0.26369946604068856, 0.26562141964164115, 0.2675283387773577, 0.2694170785589713, 0.271297109675252, 0.2731625525838606, 0.2750562539893233, 0.2768858771062731, 0.2786666074193726, 0.28047316714000015, 0.28226279854273684, 0.28407210612279643, 0.2858218309497412, 0.2875151783923514, 0.28923673438816555, 0.2909382799031643, 0.29264566687344457, 0.29430267112534675, 0.29590903060685037, 0.29752976612784765, 0.2991277348589553, 0.30068713580533263, 0.30224042438535714, 0.303767408099094, 0.3052710928615611, 0.3067493504590928, 0.3082265729022155, 0.30964989677199706, 0.3110142181172044, 0.312391203680013, 0.3137401328462427, 0.3150761784524574, 0.3163662190778503, 0.3176374685545011, 0.31886977858037496, 0.320073656910052, 0.3212593922981368, 0.32240349599781154, 0.3234873754936262, 0.32457612655876333, 0.3256326869037388, 0.326638253532733, 0.3276319395398689, 0.3286255090028093, 0.329546580900823, 0.33043515047788724, 0.33128148755752934, 0.33210484245837146, 0.3329092680040603, 0.33366159131699286, 0.3343797370188692, 0.33503083069753586, 0.33568339208891856, 0.33628323295919627, 0.33686306160227725, 0.3374044834977149, 0.33792600474489015, 0.33838818203565885, 0.3388144050344949, 0.33920116052477783, 0.3395500492880193, 0.33986701564841115, 0.3401387034115676, 0.3403474975522624, 0.3405456742093868, 0.3407037804896981, 0.3408310554076441, 0.3409077657474423, 0.3409401937855987, 0.34093806892442724, 0.3408957996907818, 0.3408210364874893, 0.34069729705323115, 0.3405490887369687, 0.34034346119691844, 0.34009856882538436, 0.3397848617681191, 0.3394645363533223, 0.3391490647874384, 0.3387400577825073, 0.33829239428337315, 0.3377625717076428, 0.3372422945739244, 0.3366818005754238, 0.33607801157656025, 0.3354329525746856, 0.33474526214243183, 0.33401840502373675, 0.33326463315781046, 0.3324545936790608, 0.3316049164298732, 0.3307048812881855, 0.32977757572110106, 0.32880262073686223, 0.32779665763890653, 0.32675078779635236, 0.32568229389093223, 0.3245553586332349, 0.32339808475251514, 0.32219421981719243, 0.32095307646772775, 0.31963773934399914, 0.31832717164355245, 0.3169916398584623, 0.3156021077127778, 0.3141755057870098, 0.3127276480547971, 0.31122608074447333, 0.3096925335273071, 0.3081207046362686, 0.3065145320548164, 0.30486040198512676, 0.3031881681114708, 0.3014631963358683, 0.29972534365307585, 0.2979531639157239, 0.2961704359756226, 0.29432851874104043, 0.2924353250315957, 0.2905339388909351, 0.2886010432786374, 0.28664186656494356, 0.2846471508575183, 0.2826260500496706, 0.28057254671239484, 0.27849084509227284, 0.2763969169175272, 0.2742584697545146, 0.27207578163447776, 0.26988868195306154, 0.2676757146490097, 0.26547764837585885, 0.2632097469204528, 0.2609185680431163, 0.25860770469608213, 0.2562756841728285, 0.2538904879999063, 0.25152150340378726, 0.24916791505688357, 0.24675168798463956, 0.24431739891486914, 0.2418438854494566, 0.23937759860357893, 0.23689503643190166, 0.2343936326344052, 0.23187593294608871, 0.22935654350184667, 0.22680662986311273, 0.2242294469070608, 0.2216551531163508, 0.21906794231623639, 0.21646702390407285, 0.21385643418379874, 0.21122583606457754, 0.20859569330832364, 0.20595581314388678, 0.2032807823559001, 0.20062723836444576, 0.1979989218018251, 0.19532461601646361, 0.19264546843214944, 0.18996060867515147, 0.18727399847624304, 0.1846091987010886, 0.18191437734144958, 0.17921944906058046, 0.17652337366399912, 0.17382996383753938, 0.17113177016872327, 0.16844251058666782, 0.16575548318736955, 0.16308370539518713, 0.1604015834330907, 0.15769660922517406, 0.1550284618063063, 0.15236487235789228, 0.14970667383832803, 0.14705468241454564, 0.14441896225112982, 0.14178059923923025, 0.13915131915428744, 0.13651173244384557, 0.13390519887520952, 0.13133799182346334, 0.12874856081658578, 0.1261245385293174, 0.1235682495849177, 0.12102364479500276, 0.11852100247556834, 0.1159988406833616, 0.11347572525322144, 0.110988356606933, 0.10851723021197955, 0.10610011264526498, 0.10365889527367499, 0.10122725752475992, 0.09882853058832965, 0.09645030022736718, 0.09406524356831507, 0.09173292911212923, 0.08939780323564829, 0.08710980842667472, 0.08484222198614541, 0.08263755535089129, 0.08040793686774957, 0.07820957002310859, 0.0760296744206209, 0.0738759086774253, 0.07172696401250334, 0.0696291187315715, 0.06754323318117768, 0.06549935122202424, 0.06348151522650489, 0.061518084562346614, 0.0595504968697772, 0.057595138475738626, 0.05568837725601238, 0.05381038211980605, 0.051966174306242154, 0.05014627482712505, 0.04837040971351666, 0.04660932802703887, 0.04487974795932387, 0.04315095105478678, 0.04148876388885347, 0.03984756782609856, 0.038247471190010596, 0.03667789440876378, 0.03517167966659165, 0.033660259167749076, 0.03218231875659444, 0.030737906444355853, 0.029327070499597516, 0.027943682265629922, 0.0266009197217186, 0.025297697431700572, 0.024020970178354414, 0.022778117813282425, 0.02159077164445516, 0.020412977066480594, 0.019256404270538145, 0.018150425569709024, 0.01707844587412595, 0.01600800206077355, 0.015007996833567867, 0.014077092496745481, 0.013136695763128153, 0.012230790887171383, 0.011317518605457533, 0.010485355479145704, 0.00968328983014244, 0.008914769259686456, 0.008178088334519358, 0.007508850665935385, 0.006831594866703972, 0.006177522896939227, 0.005569312338896473, 0.004993880585816977, 0.004483438627513499, 0.003968816581591892, 0.0034387170155601235, 0.0029976986506721312, 0.00258685250560747, 0.0022122890189008437, 0.001860776584987089, 0.0015780884930956043, 0.0012819363460156508, 0.0010177372761089453, 0.0007525081929306583, 0.0005546566824138258, 0.0004038450440286075, 0.00026042748008881054, 0.00014604674865933414, 5.8723359294857694e-05, 1.3054464275195495e-06, 7.043504260579662e-06, 0.0, 2.1742519089367962e-05, 4.685103860995848e-05, 0.00012717190330316703, 0.0002606260206475192, 0.0003876814835919713, 0.0005407658963000815, 0.0006898782615374116, 0.0008967574209043539, 0.0011399863328557633, 0.0013896479063064088, 0.001661792349500554, 0.0020253915477942462, 0.002332195224730939, 0.0026391573284002138, 0.0029977446651724368, 0.0033777478575026496, 0.0037861512796262386, 0.004205833685339021, 0.004642157835732681, 0.005100972963543062, 0.0055779383744015655, 0.00615115831303531, 0.006652569518570988, 0.007160791306020814, 0.007704150505204285, 0.008265083570591327, 0.008851917081589843, 0.009444073882396375, 0.01009491589330423, 0.010711661513338437, 0.011344634015622685, 0.011957219007577685, 0.01262391087588035, 0.013378969954009638, 0.014057644291344366, 0.014750658966610162, 0.015459934799056382, 0.016177833638956148, 0.016931724780648385, 0.01766814250598666, 0.018415437379672692, 0.019171067340200333, 0.019937398782992242, 0.02073646545310447, 0.02151496909348814, 0.0223014123828056, 0.023142799244007143, 0.023936559786665076, 0.024777166225481987, 0.025581479860634273, 0.026394185198393125, 0.027227992752230746, 0.028052284572265922, 0.028908776300530074, 0.029740670428177355, 0.030578120821746844, 0.03142629390139729, 0.03227115135763795, 0.03311609614903313, 0.033966915589618486, 0.03481925907556116, 0.03570494783446774, 0.036554492816816025, 0.0374134690011626, 0.03826475968642183, 0.03911686826060402, 0.03999387748478825, 0.04084270259158035, 0.041724487828791235, 0.042569648218190516, 0.04341596182277217, 0.04424259649167183, 0.04509156424083375, 0.046004932470990155, 0.04684117036403063, 0.04767848229664114, 0.04849599620477946, 0.04933569624985288, 0.05019176925697371, 0.05102445649544349, 0.05185536263241288, 0.05275201784435697, 0.053569618864142375, 0.054382041422009884, 0.05520163706423241, 0.056020434653734755, 0.05686107838973772, 0.05767389084773268, 0.058487452024698385, 0.0592980105378248, 0.0601070099522762, 0.06089869292500622, 0.0617056449308682, 0.0625511124156984, 0.06334644787329931, 0.06414098449734952, 0.06494217467971404, 0.06573340564410671, 0.06652367366506333, 0.0673128411207724, 0.06810082981229236, 0.06895246274933421, 0.06972986960983998, 0.07046966040456801, 0.07125678411058019, 0.07204345441829263, 0.07287763412449329, 0.07365768488895257, 0.07442185870469777, 0.07520938121234563, 0.07599824746762487, 0.07683026995254952, 0.07761697226836785, 0.07839705526057442, 0.07919341344711461, 0.07999016448750648, 0.08079401543542716, 0.08160150489733163, 0.0824345085367786, 0.08324735849081535, 0.08404433106935215, 0.08487157720086089, 0.08570376922321268, 0.08660003022205073, 0.08743606774179494, 0.08827866116802426, 0.0891344041321935, 0.08999974325250432, 0.09084552989370703, 0.0917343863886101, 0.09266587966138481, 0.09356834948558056, 0.09448254486647671, 0.09543966144699761, 0.09637439266652563, 0.09729585843223246, 0.09826333580616042, 0.09924419916874648, 0.10024822968673804, 0.10125626597071033, 0.10228908293327782, 0.10332747850578089, 0.10438292786011993, 0.10545126470400651, 0.10654283110776613, 0.10764648959062309, 0.10877594684458758, 0.10992448665772021, 0.11110819714254273, 0.11229489797867186, 0.11352511771798234, 0.11475342322929429, 0.11600592437497517, 0.1172876412344903, 0.11858914585913402, 0.11991019106011946, 0.12126434947896982, 0.1226447846841163, 0.12406747686112407, 0.12550014862583492, 0.12692456927602785, 0.12841998752179778, 0.1299430577128828, 0.1315393480305017, 0.1331144180425039, 0.13470498666928205, 0.13634754348200298, 0.13802240516637815, 0.1397301323683316, 0.14147128839065634, 0.14324952568883906, 0.1450588421585732, 0.14690345236620114, 0.14878852372548412, 0.15070474153522911, 0.15262414859129866, 0.15461946781359506, 0.15665102319484703, 0.15877207517105182, 0.16087172363651744, 0.16299884637335135, 0.16518323254076545, 0.16740871171420935, 0.16964634042285348, 0.17195889289277314, 0.17434603859018166, 0.17673617403171193, 0.17917006238113298, 0.18164027393940801, 0.1841635192103507, 0.1867155257492637, 0.18932948463265864, 0.191987487244913, 0.19468073369044858, 0.1974293609408585, 0.20021665015160198, 0.20305619596628285, 0.20594112330597322, 0.20890121397870134, 0.21187449651759865, 0.21488214071302592, 0.21795380070675519, 0.2210731466802628, 0.2242249493639944, 0.2274422321078509, 0.23073161238965767, 0.2340408363379197, 0.2373993605900947, 0.24078403676674248, 0.24424411737304244, 0.24777537088634274, 0.25132872294840874, 0.25493170191050885, 0.2585749663714058, 0.2622781305519989, 0.26601933773870257, 0.2698215413537961, 0.2736719113995261, 0.27758281763051096, 0.28152798149138253, 0.2854941752226497, 0.28954032530922036, 0.29363337940268636, 0.2977934296038085, 0.3019777702802633, 0.3062008076223191, 0.31048197363716956, 0.3148100281752804, 0.31919555068430816, 0.3236153030328646, 0.3280833279999721, 0.33259594757295874, 0.3371545785209134, 0.34169702492757875, 0.346354164460946, 0.35108183392226383, 0.355817669369695, 0.36059630195835624, 0.3654312603369334, 0.37029259162254013, 0.37516386566154664, 0.380113445493691, 0.3851023861106959, 0.39015503223781595, 0.39521844372504333, 0.40028432289421517, 0.4054307685141952, 0.4106132456410047, 0.41582977750220784, 0.42108316138900354, 0.42636331616153333, 0.4316860888514567, 0.4370417367819951, 0.4424389311854874, 0.4478573339380622, 0.45332111429689836, 0.4587999274955882, 0.4643093826280388, 0.4698516064436011, 0.47541906085397845, 0.4810066955558814, 0.48662990933279066, 0.49227854852977376, 0.4979269395542041, 0.5036266283724552, 0.5093304172378347, 0.5150736052510275, 0.5208352532128371, 0.5266223269792887, 0.5324176063429606, 0.5382170184020907, 0.5440458741021929, 0.5498885808131675, 0.5557133435217874, 0.5615848720743283, 0.5674888194769206, 0.5733751638041857, 0.5792704585011867, 0.5851412042958751, 0.5910552460909984, 0.5969607623865016, 0.6028831307107305, 0.6088068037876073, 0.6147231732316896, 0.6206477116163139, 0.6265687527634637, 0.6324886045915711, 0.6384044184862524, 0.6442719098557305, 0.6501819157487432, 0.6560713764440884, 0.661962462686842, 0.667841511009811, 0.6737369984138306, 0.6795856183976398, 0.6853824772222823, 0.6912083809142918, 0.697016391781559, 0.7028379382015099, 0.7086030274255836, 0.7143134010199736, 0.7200431836807557, 0.725748990747251, 0.7314096462676767, 0.7370666940314547, 0.7426890551201496, 0.748288832078707, 0.7538576503503484, 0.7593743811917744, 0.7648806127349607, 0.7703314121325744, 0.7757684707569078, 0.7811670198720754, 0.7865215197719844, 0.7918408612068959, 0.7971216515430943, 0.8023563207116575, 0.8075274081529759, 0.8126764991425974, 0.8177787384703312, 0.822814622193783, 0.8278225382627397, 0.8327872572040926, 0.8376914492907853, 0.8425432927689005, 0.8473077754962532, 0.8520560653240788, 0.8567407410667088, 0.8613741221971299, 0.8659480516365012, 0.8704678675373132, 0.8749195653236043, 0.8792941087834789, 0.8836233580122, 0.8878880712275884, 0.8920626780801109, 0.8961988239144206, 0.9002339707657776, 0.9042363534389877, 0.9081668853512304, 0.9120744660093705, 0.915853472957155, 0.9195200418893797, 0.9231617813870915, 0.9267283749573212, 0.9301836482620421, 0.9336024324166317, 0.9369265955051298, 0.9401885473045304, 0.943369565408789, 0.9465341233689779, 0.9495439099939259, 0.9524087674539564, 0.955268871007244, 0.9580447487106369, 0.9607468236109518, 0.9633517031289823, 0.9658779145271326, 0.9683117942371928, 0.970660116291431, 0.9728821625234003, 0.9750627352378569, 0.9771630808756124, 0.9791632951883649, 0.9810741072987272, 0.9829013770647931, 0.9846316540942122, 0.9862441343595376, 0.9877975551666317, 0.9892587048384486, 0.99064600438456, 0.9919199386248995, 0.9930899434233447, 0.9941820110467059, 0.995181281400319, 0.9960459341508724, 0.996864493068922, 0.9976137975191547, 0.9982382722141179, 0.998769170296885, 0.9992080184720458, 0.9995515277003921, 0.9997752836756768, 0.9999351112998821, 1.0, 0.999962489556977, 0.9998392503648845, 0.9996522856077767, 0.9993362476446812, 0.9989279667567916, 0.998390452245434, 0.9978025997668827, 0.9971176332153847, 0.9963425824833462, 0.9954742552083657, 0.9945285745532715, 0.9934731907717591, 0.9923191266051279, 0.9910831625488673, 0.9897565560797164, 0.9883382348896664, 0.9868319695193164, 0.9852071024037036, 0.9835265484555296, 0.9817561674664727, 0.9798936761143018, 0.9779464346820893, 0.9759270179667016, 0.973803401345787, 0.9715946464402699, 0.9692798148469298, 0.966905565193402, 0.9644316065835217, 0.9618916734851657, 0.9592684065020196, 0.9565581961411284, 0.9537719005001078, 0.9509420958734037, 0.947991013771466, 0.9449634942240503, 0.9418432691523668, 0.9386672033835276, 0.935400554866398, 0.9320771057781247, 0.928679561045009, 0.925201302126508, 0.9216598452027357, 0.9180533377369021, 0.9143698120039302, 0.9106177324377014, 0.9067858563856007, 0.9029015644784905, 0.8989606355858157, 0.8949445991722902, 0.8908656349740659, 0.8867187148531882, 0.882518127890083, 0.8782592798626339, 0.8739401117220993, 0.869563676866475, 0.8651404585515899, 0.8606519833213172, 0.8560934549414035, 0.8515021536481215, 0.8468591765152593, 0.842172033191757, 0.8374289225404205, 0.8325998786666979, 0.8277682616620566, 0.8228897113423234, 0.8179781821439718, 0.8130089783798543, 0.8080260396128579, 0.8029716842056521, 0.7978801831022115, 0.792755797443725, 0.7875931540389779, 0.7823415325127376, 0.7771203312992373, 0.7718650409659298, 0.7666174898786273, 0.7612939589605242, 0.7558910321067771, 0.7505215891099473, 0.7451248115045986, 0.7396915824922493, 0.7342465305882304, 0.7287800239603816, 0.7232904341924284, 0.7177811971986171, 0.7122862938071759, 0.7067382986428185, 0.7011708684710444, 0.6955983359908117, 0.6900146034188563, 0.6844024030261631, 0.6788023911190796, 0.6732139847633435, 0.6675959041236356, 0.6619732656067074, 0.6563349161685667, 0.6507083214682212, 0.6450939710077322, 0.6394636153334111, 0.6338349729485453, 0.6281829569325307, 0.6225645434513654, 0.6169266945968586, 0.611320029357193, 0.605718502153361, 0.6001405981242044, 0.5945516544776682, 0.588953090744878, 0.5833888166263521, 0.577836301573408, 0.5723385787235813, 0.5668083065775781, 0.5612836983291001, 0.5557919159655738, 0.5503192573392169, 0.5448497487517602, 0.5394205074168877, 0.534037146007344, 0.5286482538162846, 0.52328413815616, 0.5179255963498086, 0.5126161788399783, 0.5073237524884635, 0.5020690413164967, 0.496842090133001, 0.49169026889039463, 0.48651609925423744, 0.4813197596115558, 0.47622002887414644, 0.47115177709812844, 0.46611452163160766, 0.4611125619631227, 0.4561157100328309, 0.4511872920293024, 0.44633829774634126, 0.4414746177202227, 0.4366502397836809, 0.4318287254222708, 0.42708947650072404, 0.42236147298225163, 0.4177046892173499, 0.41308708561453944, 0.40854517536504137, 0.40400437377122966, 0.3994812892881237, 0.3950322498976376, 0.3906267070109512, 0.38627151654826175, 0.38195417805772663, 0.37769184668211986, 0.37346531961196616, 0.36928601531863536, 0.36513730741072187, 0.36105564792379863, 0.3570397970452628, 0.3530507900336827, 0.34911093463848664, 0.3451725814404705, 0.34133770968261284, 0.33760239928348884, 0.3338555778145773, 0.33015981857443316, 0.3264811682804631, 0.3228918704648906, 0.3193919105954189, 0.3158962054714885, 0.3124524686522357, 0.3090266144877537, 0.3056907609889983, 0.3024108064186377, 0.29917378383565896, 0.29598712856862613, 0.2928153788127623, 0.28973407339921314, 0.2867660667292233, 0.2837737287699832, 0.2808339524722467, 0.27787843471367624, 0.2750512836533575, 0.2722718212089962, 0.2695402626712885, 0.2668567627625162, 0.2642476679416458, 0.26165721058152586, 0.25915348474168437, 0.2566574370818549, 0.25421261672855616, 0.2517921921290787, 0.24945141681069485, 0.24716797398537793, 0.24492185105458728, 0.24272367762927008, 0.24054679379701988, 0.23844659898147533, 0.2363900909914404, 0.23438034094530372, 0.23241527963151265, 0.23048229486188473, 0.2286073628779426, 0.22676629630603581, 0.2249785515041069, 0.22323289424623913, 0.2215059264735818, 0.21984661752975457, 0.21823189569827056, 0.21665174750320576, 0.21511143207296718, 0.2136476998039747, 0.21218140810663141, 0.21071739510868248, 0.20933702659157583, 0.20799394839574334, 0.2067356325122808, 0.2054598748642508, 0.20420738208763775, 0.2030101191580273, 0.2018489836883973, 0.2007201889826557, 0.19962960628041312, 0.19854664403863514, 0.19752645217379278, 0.19653732599600568, 0.1955834426982969, 0.19465447113435363, 0.19374920717731015, 0.19288021884511813, 0.1920396229748543, 0.19122378813567475, 0.19043871922823932, 0.18967555499739316, 0.1889435780219736, 0.18823672805576055, 0.18756988578496814, 0.18690964340856628, 0.18625668520695815, 0.18564639909819183, 0.18505797777760044, 0.1844939273528044, 0.18394708720275363, 0.18341587222966216, 0.18290949333782508, 0.18242182980142974, 0.1819754321919319, 0.181520436366111, 0.1810419206952499, 0.18062771913034795, 0.18022774089004093, 0.17985389891345294, 0.17947946455609776, 0.17912473655657926, 0.17877598058100186, 0.178439895262569, 0.17809112021994697, 0.1777815351333573, 0.17748128023562743, 0.17718991383018712, 0.17690697568276473, 0.176645885656489, 0.17637660565480542, 0.1760965402002867, 0.17584446670348322, 0.17559786074137873, 0.17536089632403312, 0.17512325505497478, 0.1748744970770228, 0.17464693278615118, 0.17442178161028465, 0.17423107027288498, 0.17400544119180997, 0.17377200816235822, 0.17355306309072133, 0.17333516037005073, 0.17313473083414735, 0.17291511906883034, 0.17268353014881435, 0.1724655784502198, 0.17224603556414303, 0.17204293510408208, 0.17181639861830736, 0.17156934237075255, 0.1713405633127694, 0.17110758164335751, 0.17086228671262887, 0.17062071332936551, 0.1703640966757293, 0.1701118360325155, 0.169852678344478, 0.16956787505637555, 0.16929659806998476, 0.1690089864300832, 0.1687213715001933, 0.1684245193654703, 0.1681168264653555, 0.16780149449079032, 0.16750284530668516, 0.16716496137606707, 0.16681876487986186, 0.16646391593218984, 0.1661000917908045, 0.16570537065841828, 0.1653254277839201, 0.16493442773380426, 0.16454772652124672, 0.16413240226087014, 0.1636803715322831, 0.1632472277117084, 0.1628017243830121, 0.16235314360781836, 0.16188179197144217, 0.1614032523902207, 0.16090758881908995, 0.16040019579991813, 0.15991801320647725, 0.1593821383424996, 0.15881004819215686, 0.1582571738247957, 0.1576921398197245, 0.15712412923115265, 0.1565333765874048, 0.15589836106554503, 0.1552879167340264, 0.15466360985058533, 0.1540719511000108, 0.15341462323774324, 0.15271105860107745, 0.15203655823707315, 0.15134895421971328, 0.15062523519447343, 0.14991479558802742, 0.14918884882315078, 0.14845100910784623, 0.14769975876461894, 0.14699715814237097, 0.14621216158130093, 0.1453794699468279, 0.14458091939440407, 0.1437706697526906, 0.14292572363752423, 0.142095495045947, 0.14127283784380978, 0.14041543057178438, 0.13953499872113226, 0.1386579713049982, 0.13776991059222607, 0.13686954672407203, 0.1359604304198111, 0.1350471738799575, 0.1341169144815746, 0.13317722089981152, 0.13224374475002115, 0.13128386900586025, 0.13030526270108755, 0.12933100607538103, 0.1283484350752717, 0.12739791501105951, 0.12639431011067984, 0.12534672587141685, 0.12433715778806866, 0.12331992006887202, 0.12227834066195596, 0.12124884511659906, 0.1202178340795522, 0.11917261933299536, 0.11812093102934529, 0.11706158618536762, 0.1159982207106217, 0.1149633218837194, 0.11388501069435301, 0.11280380013650126, 0.11168115510721142, 0.11059924821307282, 0.10952181495978142, 0.10842960730300902, 0.1073340136012219, 0.10623074432097072, 0.10512998588175837, 0.10402196039242563, 0.102916881529182, 0.10180962672490719, 0.10070057988991248, 0.0995901126647763, 0.09851255332079245, 0.09739602194651592, 0.09628102870410049, 0.09515682559177198, 0.09404648115827237, 0.09293886813424741, 0.09183092105453212, 0.09072469155912748, 0.08963429594028015, 0.08853041341648984, 0.08738184748915707, 0.08629050537239889, 0.08519993176321422, 0.08413228950690503, 0.08304212707135379, 0.0819323288312193, 0.08085242267039493, 0.07977529596765968, 0.0787400052879666, 0.07766489999003262, 0.07655588679939337, 0.07549839930883487, 0.07444505275117284, 0.07342252024893535, 0.07237538600983724, 0.07134895959348744, 0.07031383289291117, 0.0692865849236692, 0.06825799110947318, 0.06724780778795976, 0.0662312567085703, 0.06523804756247789, 0.06425191112437349, 0.06325922844334034, 0.062289812390697204, 0.06140159379438524, 0.06043733172902824, 0.059484995566249456, 0.0584871676879393, 0.05756508941441222, 0.05662785448299772, 0.05572502237857966, 0.05482949697723285, 0.05401739317548975, 0.053128253423507, 0.052208695167789296, 0.0513503878971091, 0.05050199171322488, 0.04963434171153561, 0.04880998119088942, 0.048002093102886126, 0.047194643436588656, 0.04639710619427279, 0.04560818575169904, 0.044831389811080445, 0.044094430796864675, 0.04333512255809018, 0.04258833072373825, 0.041843167187325225, 0.04112254610651082, 0.0404136286610338, 0.03971645289174079, 0.03903105373253262, 0.038334302962629775, 0.037675476636911884, 0.037028755275213494, 0.0363910623943058, 0.035764403503672625, 0.035156640887940314, 0.03455147953311145, 0.033948886065344186, 0.03336858071186139, 0.03279962029505197, 0.03227605055930694, 0.031725702050743536, 0.031176436924534236, 0.030654278497556333, 0.03014439824828214, 0.029640516193782794, 0.02915566504717499, 0.02872413234332886, 0.028257227450352463, 0.027804200354794573, 0.02730444832144713, 0.026885666496124287, 0.026518018192229945, 0.026113055145453902, 0.025720240202382817, 0.025322388457457875, 0.024955427532941176, 0.02462688908126594, 0.02427764670255032, 0.02394052905123535, 0.02361835640294409, 0.023304315236668142, 0.02301263633342407, 0.022720099791886512, 0.022439266407204107, 0.02215749239946794, 0.021900775557862323, 0.021657350500814854, 0.021420522379859225, 0.02119381859360288, 0.020933861447645714, 0.020732439776030776, 0.020539837069220208, 0.020352984402096586, 0.02017388121076486, 0.020019635353736236, 0.0198542232517103, 0.01971631933352529, 0.019566424077528705, 0.01942633930012987, 0.019264921070138892, 0.01914758144354872, 0.019015946431841447, 0.01891599770284387, 0.018822167931278336, 0.018793277066260067, 0.018704672372938585, 0.01857176983033165, 0.01850905046455204, 0.01845220780672428, 0.018438357316648394, 0.01838873248637237, 0.018303925881027756, 0.01827554895716815, 0.01825217514751464, 0.018267831437336707, 0.01825031675406154, 0.018213554568100396, 0.018213064581818577, 0.018217524990392017, 0.018236140025010915, 0.018249135343611323, 0.018292081156182697, 0.018312271177055216, 0.018338742889795367, 0.018337153032204238, 0.018379380744025887, 0.01847279195028032, 0.018515572258801762, 0.01856427302602992, 0.018587566230130047, 0.01865070355346614, 0.018695172396099993, 0.01876683576156449, 0.018840025923536306, 0.01893642330528981, 0.019010103191411293, 0.019094365621035347, 0.01917261933719892, 0.01925382247051667, 0.019314585911026992, 0.019403939806105518, 0.019489657047433512, 0.01958157581041688, 0.019674192940941807, 0.019784491396974444, 0.019876339367955177, 0.02000530257077944, 0.020095688396094612, 0.02016770304262769, 0.020266859260025926, 0.020367184288542593, 0.02044840678920808, 0.020553021360573097, 0.020683364203933324, 0.020783617441040816, 0.02088480688694982, 0.02099287470016459, 0.02109447251673236, 0.021190528904453335, 0.021293943334402994, 0.021397199127356208, 0.02148934299062104, 0.0215932223293366, 0.021699018600235338, 0.021800135382267057, 0.02190019143874718, 0.021971334555790863, 0.022072602581826663, 0.02218187898590008, 0.022276346466033575, 0.022368924121022843, 0.022482798808052786, 0.02256873874493684, 0.022630978563222916, 0.022718578231521673, 0.02280397760323979, 0.02288411700842083, 0.022965581304686285, 0.023063256475171302, 0.02313777129378701, 0.023211053638394603, 0.02324282003056809, 0.023318304918168303, 0.02340072548376855, 0.023467313080825315, 0.0235310312303399, 0.023638267405913953, 0.023690579545313676, 0.023719625210212394, 0.023774311075928846, 0.023826944968039974, 0.02390214639728052, 0.02394730773763047, 0.023952973846462066, 0.024000963761017027, 0.02404540110695676, 0.024081762376281953, 0.02411999263695568, 0.024185578010884938, 0.02421296545666128, 0.0242387693874046, 0.024216506959511046, 0.02424453078563361, 0.02429264375297213, 0.024308578329849458, 0.024321780726158822, 0.024353872759208535, 0.02435889526637893, 0.024365503765676113, 0.024366963831456152, 0.0243667811107674, 0.024363260771318753, 0.0243595565184877, 0.024347556441206952, 0.02434031322964765, 0.024330457734614334, 0.024313354901514594, 0.02429885678206536, 0.02426605330392203, 0.024247825429212704, 0.024225962799207384, 0.024229972821214696, 0.02419763032660286, 0.024182295642173834, 0.024144462814227104, 0.024105952209943275, 0.024009413276191258, 0.023976134076952767, 0.023952292974395772, 0.02390866603724828, 0.023861977587129754, 0.023858697116654906, 0.023800465226840463, 0.023705126388605377, 0.02365121856196388, 0.023594698659124114, 0.023544938716081168, 0.02348234020958277, 0.023467359902761442, 0.023394948992252654, 0.023323552327025508, 0.023240441773674063, 0.02317155912143778, 0.023060333209417656, 0.022995275425805543, 0.022926978293277927, 0.022871130293180584, 0.022795126744876493, 0.022756033767195694, 0.022671837354255577, 0.02258824906375912, 0.022460247068928855, 0.02238283526994391, 0.02229053644152447, 0.02220983042835395, 0.02212630649997332, 0.022085019093166375, 0.021991006651225803, 0.021855757316955163, 0.02176776046298123, 0.02167758461070566, 0.021605524594287873, 0.021509099249077533, 0.021392152670092, 0.021297366096356574, 0.021201005945042227, 0.0211125025736299, 0.021012305384975945, 0.020939293791056857, 0.020834413695502596, 0.02073057014020968, 0.02064301582518906, 0.02053875631065238, 0.020398854273124892, 0.020301862224966136, 0.02020374871973745, 0.020113894680234244, 0.020012707864158197, 0.01992050503816409, 0.019817601717534612, 0.019714969142485526, 0.01956159829788122, 0.019465787167935927, 0.019390403414052355, 0.01928657737124904, 0.019182031056786796, 0.019107752252630335, 0.018998171953866907, 0.018854378641628228, 0.01875170991229173, 0.01864801605750365, 0.018578958248812553, 0.018469154088564792, 0.018376152859713262, 0.018266936974829288, 0.018159601477409058, 0.017995206992077885, 0.017898280389635285, 0.01782702606404001, 0.01772264003037649, 0.01761824678418727, 0.017509218638484203, 0.01740540867428214, 0.017290534017647952, 0.01718761597059922, 0.01708390683853264, 0.016981065594148435, 0.016875908428843536, 0.016796594278358123, 0.01668736887955351, 0.01657932193542821, 0.016418243851284, 0.016318894369959116, 0.016248112120662073, 0.016140545835094586, 0.016032984433151015, 0.015962470274479303, 0.01585019078358242, 0.015684364875937978, 0.015582869679241159, 0.015479691379598027, 0.015412081252894809, 0.015301411299012546, 0.015171574714309103, 0.015065077712843305, 0.01495802589398881, 0.014845805818458933, 0.01473827949808617, 0.014640784162118841, 0.014530376527604008, 0.01441986755045865, 0.014324631977602071, 0.014211776102093402, 0.014091779943286194, 0.013980879606767227, 0.013869783891834218, 0.013735249272286278, 0.013626446822266634, 0.013528269757105863, 0.013414573213734364, 0.013300066453842364, 0.013212527836872275, 0.013092843755722583, 0.012975405273895528, 0.012856685388112498, 0.012738292048921889, 0.012581418527049075, 0.012467960215869243, 0.012420041932340321, 0.012293367330956782, 0.012191576431415073, 0.012064997888875774, 0.011940646128929344, 0.011791758800880063, 0.011673699379479584, 0.011589002515734212, 0.011465306916726955, 0.011342670642161436, 0.011183671858246695, 0.011066790632450838, 0.010971093738978966, 0.01084739803536316, 0.010723154355763782, 0.010601325283589421, 0.010475239633626602, 0.010354638427017403, 0.010226293312813373, 0.010097429135580342, 0.0100080763352364, 0.00987277780881702, 0.00978833672880037, 0.009649306606280167, 0.009513784293681547, 0.009374914165734846, 0.00924524163108099, 0.009158646559267949, 0.009026102329184956, 0.008896587334049938, 0.00877258870034956, 0.008647028801999313, 0.008541656185825088, 0.00841668821499838, 0.0082937177345971, 0.008197041616875195, 0.008073792928373387, 0.008003864648951552, 0.007878496631402748, 0.007757602068192142, 0.0076096176971009845, 0.007499633373915443, 0.007407639308679206, 0.0072973788581358525, 0.007188841241582384, 0.007166754692710243, 0.007050404605461846, 0.006940120583356823, 0.006835167971506007, 0.006734932170692686, 0.0066497137156184315, 0.006556118339856392, 0.006469687994692988, 0.006383517550202038, 0.006300997147316232, 0.006248156417936915, 0.006169026024740403, 0.006134689961379607, 0.006059523701618509, 0.005990807090758791, 0.005960509700956462, 0.005899323923484224, 0.005854579562363045, 0.005806113519379873, 0.00576451462313595, 0.005768028577499393, 0.00573430759698419, 0.00569182271267757, 0.0056762546579136545, 0.005667182304727044, 0.0057216198904308626, 0.005718035746473851, 0.00572398592256601, 0.005739056598581372, 0.00576293102256681, 0.005832434435503463, 0.00586861606101525, 0.005921385991232281, 0.005977286682338393, 0.006043386048915193, 0.006144181900171158, 0.006227013221302212, 0.006375070907962294, 0.00647324154428065, 0.006585305638495178, 0.006661364656068949, 0.006806103746155581, 0.007002507184240383, 0.007162139633763378, 0.007334540508160212, 0.007578313408642986, 0.007768692369992601, 0.007972023535432443, 0.008194502386382729, 0.008432207800854052, 0.008723585269614401, 0.008986477766767142, 0.009226379080533774, 0.009528393105996971, 0.009844879364806837, 0.010213128830484008, 0.010554611359327146, 0.010918072895291182, 0.011293682095579299, 0.01168699080898454, 0.01213977307597084, 0.012563516749664626, 0.012981448217384596, 0.01344925921976631, 0.013935860671434198, 0.01444611070621611, 0.014970416777189901, 0.015554683826878168, 0.016113817943715702, 0.016695584656043493, 0.017310782957048885, 0.017936478966333064, 0.018582464947239297, 0.01925536431072845, 0.019951632275468725, 0.02073011620352937, 0.021466266000834778, 0.022203458905968074, 0.022997307006673143, 0.023816650069537752, 0.02464003505506784, 0.02551362750144768, 0.026461506876948492, 0.027379047081904157, 0.02832511488318259, 0.02929821005604147, 0.030301709085147878, 0.031332378967292976, 0.03239369028556465, 0.033484036234330224, 0.034603675627513195, 0.03575288918556341, 0.036956680041739395, 0.03816283195276147, 0.03940088647749406, 0.04067715934434374, 0.04197869051094175, 0.04328056093595489, 0.04465189393416787, 0.04605454967615643, 0.04750908698930741, 0.048973298628861905, 0.05050226227494665, 0.05203060193531708, 0.053595130424855836, 0.0552051650525233, 0.05684109512538464, 0.05851399494824016, 0.060223935812665344, 0.061971021129322255, 0.06376773408133257, 0.06558796433783125, 0.06741715858158519, 0.06931779094618556, 0.0712552898815725, 0.07325010528758422, 0.07525992336577372, 0.07729339748473026, 0.07938354439372741, 0.08151229903352296, 0.08367998560127321, 0.08588691750370922, 0.08813802905539722, 0.0904237617328559, 0.0927498727205485, 0.09512894473723182, 0.09753493597270194, 0.09998884547910497, 0.10247764943306105, 0.10500876416366957, 0.10760387119320232, 0.11021707863757547, 0.11286785075707899, 0.1155692283979962, 0.11831383975133658, 0.12107080623928146, 0.12390580345490752, 0.1267962298121793, 0.12971281024683876, 0.13267222423420913, 0.13566531709746452, 0.13871188640535476, 0.14182422406490605, 0.14495323238518884, 0.14812642863590708, 0.15135608783512103, 0.1546158711436031, 0.15789561028659876, 0.16124766621015418, 0.1646426662481299, 0.16810073070537218, 0.17157920841217594, 0.17508640828900637, 0.1786549961784276, 0.18226655020118276, 0.18591331233686034, 0.18961164465559846, 0.19337242008827543, 0.19715293389479627, 0.2009768758930123, 0.20484092813339688, 0.20875142554612328, 0.21270911421764244, 0.21670393140793448, 0.22069172587935695, 0.22477729278772754, 0.22890193269666065, 0.23310127672538622, 0.23729987481148085, 0.2415289253534834, 0.2458110886749465, 0.25013325230183264, 0.2545198657783249, 0.25891812296109856, 0.2633306948315084, 0.2678128829787699, 0.27233314104210044, 0.27688963339851674, 0.28148532792819403, 0.28609644488966823, 0.29076860158371964, 0.29547586598367465, 0.30019949227185644, 0.3049786184400319, 0.309812650142224, 0.3146554348151438, 0.31953229384538434, 0.32443041217096213, 0.32937556870637963, 0.33435573570080945, 0.33936391618260375, 0.3444032990825765, 0.34945483888125645, 0.3545573913053983, 0.3596961999035888, 0.364854409462193, 0.3700406708087421, 0.37521889533811625, 0.3804639937266845, 0.3857456959902763, 0.3910373721012761, 0.3963532077856866, 0.4016972626857425, 0.4070590796891422, 0.412455848421716, 0.41786059648709495, 0.42328720120958374, 0.42873790075254153, 0.4342052718032341, 0.4396457824984616, 0.4451570331119797, 0.4506833484804965, 0.4562226534837458, 0.46177764976220287, 0.467355147734969, 0.4729347908516314, 0.47852683689061254, 0.4841088616213762, 0.48972599726521643, 0.49535337110167993, 0.5009869986641559, 0.5066279643578734, 0.5122615818483222, 0.51791657775962, 0.5235772123819785, 0.5292394370674843, 0.5349042746385373, 0.5405631556852623, 0.5462316175186881, 0.5519474895859794, 0.5576081263834638, 0.5632692344034183, 0.5688353245531285, 0.5745053904087207, 0.5802007629651805, 0.5858487294720105, 0.5914889005901287, 0.5970894968441254, 0.602715254657518, 0.6083117205079115, 0.6139142829701, 0.6195020803325547, 0.6251099382395773, 0.6306615996873993, 0.6361519449629528, 0.6416783439904903, 0.6471848897368493, 0.6526785390981368, 0.6581420639124875, 0.6635713857562272, 0.668991813768714, 0.6743877583797766, 0.6797289775226484, 0.6850769136196189, 0.6903989970311885, 0.6956879065868797, 0.7009464891379682, 0.7061630629421958, 0.7113597009627682, 0.7165087859390483, 0.721638986497099, 0.7267329562231744, 0.7317898642001275, 0.7368088409662341, 0.7417797197755224, 0.7467212683982035, 0.751621576010508, 0.756439597289227, 0.7612597676410136, 0.7660305770457687, 0.7707579465841959, 0.7754375243877549, 0.7800454274377695, 0.7846301359731844, 0.7892066878169668, 0.793682501064807, 0.7981079969781202, 0.8024342181666989, 0.8067618559349291, 0.8110162444065534, 0.8152328118309613, 0.8193907490843267, 0.8234739960374367, 0.8275147206269164, 0.8315063147867793, 0.8354219041735127, 0.8392754453996719, 0.843056889890811, 0.8467851352200603, 0.8504036359706308, 0.8540068553795963, 0.8575410787678976, 0.8609997138506191, 0.8643954245397307, 0.8677034096195758, 0.8709592818432462, 0.8741424163207222, 0.8772616413690355, 0.880296779373144, 0.8832227593344486, 0.8861144761900739, 0.8889293017751607, 0.8916869494442407, 0.8943443371342562, 0.8969031496105396, 0.8994087260331535, 0.9018348758241481, 0.9041518086114827, 0.9064214321266975, 0.9086023923313343, 0.9107075615148653, 0.9127293408280258, 0.914678263864991, 0.9165310450009235, 0.9182877870089634, 0.91997432449335, 0.9215756174145384, 0.9230928769731385, 0.924522478945123, 0.9258581838286895, 0.9271160488690771, 0.9282865897851924, 0.9293494481441914, 0.930347019936294, 0.9312506552927063, 0.9320700897643769, 0.9327997203791444, 0.9334394516113742, 0.933989179579642, 0.934453427749008, 0.9348222367834877, 0.9351009763191325, 0.9352478179299654, 0.9353512786441984, 0.9353742960271543, 0.9352908380407823, 0.9351157195167551, 0.9348567487769637, 0.9344975950114454, 0.9340258567373404, 0.9334875244190727, 0.9328570746297924, 0.9321131181886563, 0.9313018405836876, 0.9304056177819885, 0.9294084258311113, 0.9283197674179383, 0.9271291317970516, 0.9258597961117921, 0.9244792027196487, 0.9230304183234833, 0.9214900865008473, 0.9198633780334052, 0.9181409627286631, 0.9163581585267649, 0.9144530413683343, 0.9124607569805876, 0.9103336608930069, 0.9081737837382649, 0.9059309831292947, 0.9035928254065888, 0.9011672959684613, 0.8986874378804848, 0.8960849201799511, 0.8933585579283683, 0.8905940713654327, 0.8877536456857945, 0.8848183331888488, 0.8817998345514756, 0.8786880097047677, 0.875506517371258, 0.8722556146237385, 0.8689098199294473, 0.8654845254581593, 0.8619773324452835, 0.85839551372192, 0.8547376855435987, 0.8510013313035212, 0.8471890583243363, 0.8432491551765351, 0.8392940516275651, 0.8353273340920587, 0.8312123653770616, 0.8270270534124022, 0.822750452838502, 0.8184292379514961, 0.8139922733641608, 0.8095390096347158, 0.8050156366736129, 0.800471367435401, 0.7958057375189693, 0.7910380335497296, 0.7862512097023545, 0.7814005194893857, 0.7764825656595375, 0.7715084173491558, 0.7664846119305464, 0.7613894011482613, 0.7562367875357074, 0.7510201755548975, 0.7457571082314158, 0.740456570693255, 0.7350836446081787, 0.7296596084317376, 0.7241777981484468, 0.718655702118969, 0.7130281514237365, 0.7074177891132456, 0.7017582293928304, 0.6960619165028658, 0.690307453545999, 0.6845493054555545, 0.6787035222462876, 0.6728189645615797, 0.666864252521685, 0.6609093981224389, 0.6549387585838925, 0.6489077323360133, 0.6428432291285612, 0.6367139855358235, 0.6305901185399618, 0.6244298317816712, 0.618244422185878, 0.6120298345801937, 0.6057921381142443, 0.599522895543133, 0.593239782353809, 0.5869211487929645, 0.5805810949721226, 0.5741915050563093, 0.5678159793288949