0.052737075192125435, 0.05227522086321685, 0.05183145243876711, 0.05137975205941333, 0.0508742360062897, 0.05043974163899673, 0.050005739612506594, 0.04962582696230552, 0.04918572933457949, 0.048678007419548586, 0.048252926382163504, 0.04785203450014441, 0.0474207500641738, 0.046989772572825626, 0.04655587530851668, 0.04612591761992824, 0.04572403245818454, 0.04529089196011763, 0.04485957658671514, 0.04442992268002745, 0.04400179697247581, 0.04359872210302945, 0.04317037030908448, 0.042744622948621566, 0.04224606439236409, 0.04183437315516202, 0.04143551933359076, 0.041018005513887436, 0.04060004254940962, 0.04020659805723681, 0.03978538249065375, 0.03937549182317294, 0.03895636855671144, 0.03853944672629179, 0.03808599085494781, 0.03767816435312031, 0.03730779022607621, 0.03689520996040977, 0.03648512609297514, 0.03609249526102862, 0.03568527694282215, 0.03520171980387923, 0.03481066720031955, 0.03441799105831499, 0.03409402561451735, 0.03369078074795445, 0.033286926570868514, 0.03289139782038065, 0.032498939373336644, 0.032066473147606446, 0.03168525515795643, 0.03128076795363616, 0.030903532273627927, 0.03052585046417508, 0.030217942716592765, 0.029831716118203306, 0.029450044587195346, 0.029072644629194913, 0.02869926781382674, 0.02831680921481744, 0.027952488149793255, 0.027604865042765724, 0.02724421648591818, 0.026887030185317774, 0.026518141812250373, 0.026169419418702853, 0.025812254000459188, 0.025469535716014055, 0.025128615387023684, 0.024818631022612506, 0.02447804648302708, 0.02408864624125366, 0.023762218190441064, 0.023436425266414207, 0.023126644643250815, 0.022801207054723237, 0.022485685374250178, 0.02216421545707402, 0.021845799941790554, 0.021497184785011853, 0.021189209887683438, 0.02089435410125214, 0.02058779902618589, 0.02028378587367712, 0.020001791383777515, 0.019700833629161876, 0.019352334256763474, 0.0190658647556594, 0.01878041222332831, 0.018566163538240706, 0.01827499577239329, 0.017925313164510494, 0.017653840307544702, 0.017384098781339813, 0.01715718238839041, 0.01688655016423038, 0.016594905855071514, 0.01633692365948643, 0.01608199806663808, 0.015866745934819952, 0.015613602750966531, 0.015362607255446699, 0.015120385055651523, 0.014882927857088817, 0.014656533399258986, 0.014427371826686571, 0.01421906599829288, 0.01399721379702491, 0.013780744313539102, 0.01349316737045615, 0.01329643821449469, 0.01309805932851173, 0.01290306636369788, 0.012709334046988983, 0.01253335706012662, 0.012341215317668568, 0.012118961715623848, 0.011937525633721498, 0.011757644148639336, 0.01158612322089044, 0.011409573013752011, 0.011230513884959128, 0.011060543986296589, 0.010893462489428234, 0.010814285765605235, 0.010642725956018808, 0.010454533083639373, 0.010301645816380758, 0.010154325619520418, 0.010026266611357137, 0.009887538656389845, 0.009693219205079763, 0.00957318693088048, 0.00945477734338295, 0.00933717190232382, 0.00922287689519449, 0.009145183855727988, 0.009031182222105241, 0.008921663628836054, 0.00880466187801198, 0.008705161036723983, 0.008658468977700189, 0.008559506134330385, 0.008466674923233787, 0.00831833293417169, 0.008244286705224292, 0.008221213296464665, 0.008144252347139223, 0.008072000818092655, 0.007938692151139947, 0.007883419883177936, 0.007841395866543694, 0.00778556174598404, 0.007731460514532851, 0.007745838382160064, 0.00768722478353143, 0.007567883323319325, 0.007528965161656382, 0.007491320535340364, 0.007487345819627546, 0.007448671402451624, 0.007397411285782907, 0.007367662377985491, 0.007340222398580247, 0.007304339510987813, 0.007282833554314944, 0.007294124640580576, 0.007272034263695173, 0.007253433420196564, 0.007242390585860216, 0.0072295600911502726, 0.007238086838201071, 0.007228930351140209, 0.007223485333287075, 0.007238607887909451, 0.007237459477953491, 0.007165985459851139, 0.007181393536657175, 0.007195705302627032, 0.007265061981397049, 0.007270950823954114, 0.007300035726479938, 0.007308650423197489, 0.007320678963523034, 0.007334656966263727, 0.007352517924459706, 0.007312530764365213, 0.007342318767262772, 0.007370508497654762, 0.00747039566815728, 0.007486898895021641, 0.007434612992182142, 0.007466126636270788, 0.007495954093653194, 0.007597359918594598, 0.0076152333704616534, 0.00757917826454406, 0.00760978310516155, 0.007639319714635729, 0.007709762126338436, 0.0077321053658038095, 0.007769894848094309, 0.007793135296276373, 0.007818060339225092, 0.007855044577620344, 0.007880919222894552, 0.007887680952985775, 0.007918368447892746, 0.007948531031649199, 0.008021008873238944, 0.00804433441865864, 0.008083170808297188, 0.00810738538119021, 0.008133096652039182, 0.008150177203464878, 0.008178774472366278, 0.008224282602877447, 0.008249920733636179, 0.008317688512692087, 0.008338192323728937, 0.008360684578659449, 0.008356657056866796, 0.00838498104396192, 0.008435818600328627, 0.008458763864045619, 0.00848162367053234, 0.00859323962969998, 0.00860378853672323, 0.00862705976653874, 0.008643877134556537, 0.008663615613797896, 0.008713452339389532, 0.008733363041387783, 0.008757969207152612, 0.008782012666039393, 0.008807445665672207, 0.008865975668167558, 0.008888656071096393, 0.00895512233655542, 0.008975754511858674, 0.008999629287613236, 0.009017440380533124, 0.0090468581310533, 0.009118035409010584, 0.009143843775626636, 0.0091722778557451, 0.009224283338187589, 0.009253743334676963, 0.00930503885867622, 0.009336608714592586, 0.009370951705545638, 0.00942266366485911, 0.009459417617121284, 0.00950301676221793, 0.009543998958062848, 0.00958719362473519, 0.009643122245737094, 0.009688789952299845, 0.009762574136771313, 0.009809522942240478, 0.009860033475611256, 0.009950376731707974, 0.01000272066711391, 0.01008483088123803, 0.010143815007564668, 0.010208604628690054, 0.010308866092561583, 0.010380333142469953, 0.01046477518807739, 0.010548079600115176, 0.010637550160615244, 0.01073827055561979, 0.010838614213610627, 0.010997423063051945, 0.01110266947190132, 0.011216532350074386, 0.01131495636880778, 0.011447859978556062, 0.011622505625390108, 0.01176355558294094, 0.011913000467324221, 0.012124374932558812, 0.012283388476222113, 0.012476068574955467, 0.012654044771491733, 0.012843683644980572, 0.01302525720477821, 0.013239584387114726, 0.013488308066828393, 0.01371893908541798, 0.01396078439296899, 0.014191232313662424, 0.01445825372520164, 0.0147588728674355, 0.015043144907113407, 0.015339335748464467, 0.015645450002628136, 0.015966247922377434, 0.01631767530645783, 0.016661181157107453, 0.01701865676428998, 0.017440755679510797, 0.017820345463085297, 0.01821736377510578, 0.01863167524453286, 0.0190632195555304, 0.019489448471463017, 0.019958389717251165, 0.02044563796778922, 0.020946972590427722, 0.02146529975295177, 0.022013872674570924, 0.022565665248317313, 0.02316316384590363, 0.023749573147108176, 0.024356970260378186, 0.024984409063892737, 0.0256343451090423, 0.026326125595092814, 0.027016610348116834, 0.027730214518403976, 0.028450972122476353, 0.02921332885781537, 0.030057530732944274, 0.030858352898194472, 0.03168605417428491, 0.032568498923097586, 0.03344631434470439, 0.03427848411445585, 0.03522249556835451, 0.03619068602088925, 0.03719228639679058, 0.03820965016759563, 0.039266437460684644, 0.040335769745667875, 0.04143341177674836, 0.0426134802666598, 0.04376220317540558, 0.044901626658720675, 0.046120822736358584, 0.047370313991127344, 0.04872143129045741, 0.050023885377757565, 0.05129321386894591, 0.052675464317150776, 0.05408929820444847, 0.055579314866162514, 0.05705242529222498, 0.058568759496387235, 0.0601125002407549, 0.06169273938359354, 0.06329460795245193, 0.0649502786455536, 0.06666045348594579, 0.06838667515505173, 0.0701509087657196, 0.07197164218984976, 0.07381029813820993, 0.07569947418798048, 0.07761646356723519, 0.07957412877095606, 0.08151671964925121, 0.08356312988231668, 0.08571191497720551, 0.08782667330874369, 0.08998420714485547, 0.09211689494642303, 0.09436869616575204, 0.09672628614920335, 0.0990487334779452, 0.10141540679052743, 0.10382956961164626, 0.10628443630964768, 0.10877745984982091, 0.11132242187902308, 0.1139117974842009, 0.11650600886085619, 0.11918972606711821, 0.12197734422882126, 0.12473917150065299, 0.12754805371735423, 0.1303362452811952, 0.13324757479978527, 0.1362019898482251, 0.13920001650612474, 0.14224212726118823, 0.14532981856186883, 0.14846118210545597, 0.15162815337596078, 0.1548515693366234, 0.15812024348494777, 0.16152038635920654, 0.16486953222522907, 0.1682694959775312, 0.1717197559024344, 0.17521984185473055, 0.17875107041962046, 0.18235188264888677, 0.18601644679352367, 0.18971033080340385, 0.1934524198320738, 0.19716616560795247, 0.2010134510002448, 0.20491995047535452, 0.20885177258707155, 0.21282826855895973, 0.2168452495651301, 0.22091191624090376, 0.2250822858409696, 0.22923076756058575, 0.23342720125020294, 0.23762272663477685, 0.24191961400479697, 0.24623874297106188, 0.2506257119588818, 0.25505500454418295, 0.25952342404994017, 0.2640377946220614, 0.2686747823286644, 0.27326299952795546, 0.27780949127329785, 0.2825007032349587, 0.2872316933227398, 0.29205826217728287, 0.2968615409598058, 0.3017181560542681, 0.3066046103441754, 0.31153295672940184, 0.31650569061373596, 0.321515250242836, 0.3265035291001489, 0.33159999686985303, 0.3367315567008292, 0.3419323787071567, 0.3471291249668062, 0.3523180991098654, 0.35759231232201566, 0.36289905192393884, 0.36825735649747304, 0.37362576754703486, 0.3789988229970693, 0.3844353024206348, 0.3899015571598528, 0.3953960889935786, 0.40092070788414164, 0.4064564391147197, 0.4120392709061752, 0.41764828697878453, 0.4233302514990904, 0.4289841283782327, 0.4346448034005881, 0.440354654483768, 0.4460885408448326, 0.4518262911497109, 0.4576081610287549, 0.4634061231065074, 0.46922858511218757, 0.4750697061043082, 0.48096739557672985, 0.48683864585412234, 0.4927176235383459, 0.49862601255594763, 0.5045499706692197, 0.5104347530255767, 0.5163935104539015, 0.5223606186960316, 0.5283377473751145, 0.5343229565953489, 0.5403037200609507, 0.5463044013213031, 0.5523177451333582, 0.5583270178619669, 0.5643403165169943, 0.5703116341290745, 0.576335965030758, 0.5823686734233812, 0.588388583942103, 0.5944064390314805, 0.6003967079214988, 0.6064110463455031, 0.6123914018578608, 0.6183964024251266, 0.6243922144469143, 0.6303749781253826, 0.63635083352782, 0.6423839314078647, 0.6483272930050483, 0.654261340381717, 0.6601362748868338, 0.6660534298755353, 0.6719091228717187, 0.6777982703865565, 0.6836664938362226, 0.6894948397430453, 0.6953213737865179, 0.7011698692514324, 0.7069413960594814, 0.7126897827384308, 0.718409519465118, 0.7241085250442733, 0.7297751307344349, 0.7354195726251063, 0.7410343141322733, 0.7465913603237321, 0.7521466593872995, 0.757613604179994, 0.7631054507635892, 0.7685577281139985, 0.773933362028534, 0.7793093743923564, 0.7847009586445279, 0.7899820431104188, 0.7952219401429635, 0.800377667369325, 0.8055371937214989, 0.8106724320583237, 0.8157346476671632, 0.820749697927563, 0.8256757370391135, 0.8305985124442409, 0.8354354192138819, 0.8402565379595314, 0.8450217342866037, 0.8497004068568961, 0.8543559134241372, 0.858956341394817, 0.8634921045305503, 0.8679677625833714, 0.8724449941055709, 0.876790670389073, 0.8810498293435836, 0.8852806138159953, 0.8894487973071299, 0.893482548063172, 0.8975316627238866, 0.9015199737534597, 0.9054288570640759, 0.909268060890811, 0.9130134232236897, 0.9167146212285929, 0.9204011134336859, 0.9239491398521895, 0.9274268150113514, 0.9308170558378073, 0.9341531778279946, 0.9373658103171004, 0.94055925806703, 0.9436743553756495, 0.9466925152633724, 0.949652202356408, 0.9525733238152524, 0.9553665449523127, 0.9580811023100225, 0.9606583343824551, 0.9632209263735527, 0.9657404810496238, 0.9681300735875372, 0.9704377952356101, 0.9726577450210385, 0.9748008286104425, 0.9767774986540112, 0.978763180822961, 0.9806596574607258, 0.9824897455363311, 0.9842056803836399, 0.9858686446376146, 0.9874054660527082, 0.9888566830088854, 0.9901950502551512, 0.9914772966235187, 0.9926519947161985, 0.9937601554391835, 0.9947788181884214, 0.9956672295502363, 0.9965122236891993, 0.9972537589048923, 0.997917317473719, 0.9984892446863595, 0.9989666940137302, 0.9993568513991081, 0.9996486881884598, 0.9998584895043916, 0.9999776371151679, 1.0, 0.9999395724403595, 0.9997933039584757, 0.9995523727720271, 0.9992221589154275, 0.9987857330895258, 0.9982798914494565, 0.9976802718928764, 0.9969964088089219, 0.9962236108303422, 0.9953719621968895, 0.9944213193806242, 0.9934189654887482, 0.9922898640209988, 0.9910762737258613, 0.989736381859066, 0.9883593862943447, 0.9868776694998573, 0.9853306169909194, 0.9836971995272753, 0.981997464748646, 0.9801910067638279, 0.978253052271215, 0.9762869124960408, 0.9742359861150015, 0.9721753425801298, 0.9699483252202447, 0.9675887029374469, 0.9652132452655199, 0.9627575260568668, 0.9601837246708654, 0.9575749024949752, 0.9549302116953762, 0.952157165723445, 0.9493089564783848, 0.9463680582194012, 0.9433740484858636, 0.9403243642571648, 0.9371811153787085, 0.9339679043605507, 0.9306832393880291, 0.9273292047190379, 0.9238969610909329, 0.9204079127263552, 0.916845055132363, 0.9132230609899336, 0.9095352895721945, 0.90578707970731, 0.9019703432160145, 0.8980482516286921, 0.8941131843464788, 0.8901153714540138, 0.8860433151590302, 0.8819257804376354, 0.8777230789506376, 0.8734914328247211, 0.8692017339272707, 0.8648823851992778, 0.8604777897442253, 0.8560372656304996, 0.8515277532147763, 0.8469694945464769, 0.8423570997910856, 0.8377053380208097, 0.8329528893403179, 0.8282173713088988, 0.8234351515836507, 0.8186099665156475, 0.81373878654633, 0.8088245714642686, 0.8038710418223053, 0.7988783311446856, 0.7938929323722446, 0.7888202790904545, 0.7837010870612271, 0.7785659972018565, 0.7733994756651765, 0.7681757864117515, 0.7629531506065698, 0.7576859113121859, 0.7524073990865507, 0.7471011688628755, 0.7418180664091928, 0.7364544422910348, 0.7310701034466127, 0.725666009464249, 0.7202431468183069, 0.714783193469163, 0.7093282917163495, 0.7038448167149287, 0.6983591153169507, 0.6928584359972546, 0.6873537553663583, 0.6818258123141386, 0.6762207255735515, 0.6706812814921361, 0.6651299137623674, 0.6596048509895136, 0.654030080662537, 0.6484159913013494, 0.6428368873755645, 0.6372533267113994, 0.631711879378066, 0.6261180319173583, 0.6205404549448956, 0.6149504159897995, 0.6093653904850355, 0.6037529394267479, 0.598184736687881, 0.5926480738613608, 0.5870893059896338, 0.5815400610698072, 0.5759862186072494, 0.570460673820749, 0.5648864226183731, 0.5593924084514648, 0.5539085355340028, 0.5484352287961577, 0.5429761958668502, 0.537527224806243, 0.5320987500500511, 0.526686929777665, 0.5213552760280231, 0.5159724857680902, 0.5105456720388195, 0.5052192820414648, 0.4999138790046668, 0.49470363746955115, 0.48943433838815614, 0.4841321636061982, 0.478927694529455, 0.47374896362166646, 0.4685979910929343, 0.4634733993447818, 0.4584235112230611, 0.45335094510249735, 0.44831110952604813, 0.4433033227105898, 0.4383302784190123, 0.4333803905419345, 0.42847694262869984, 0.42360768616708283, 0.41874416653027663, 0.4139485855611561, 0.40919684499111647, 0.4044691420649723, 0.3997776208253314, 0.39507454741623477, 0.39046326864373826, 0.38593873019735053, 0.3813922168259967, 0.3768855334189686, 0.37236211402349767, 0.36794335215813423, 0.3636202665991776, 0.35927031057077785, 0.35496278469623543, 0.35068498513528357, 0.3464645021940196, 0.34228949803934916, 0.338153402574129, 0.3340602902214364, 0.3299480873342644, 0.32594946566535843, 0.32203069015777425, 0.3181079355951988, 0.31422879804374076, 0.3104095997314175, 0.3066162684746937, 0.3028948688398355, 0.2991883129420052, 0.2955283569147419, 0.29190726325778293, 0.2883408195372803, 0.28476517553017, 0.2812966996577944, 0.27787050936649305, 0.2745481600780714, 0.2711997508396827, 0.26781735465969253, 0.26457195262287725, 0.26136799263966703, 0.2581951022725492, 0.255076419082959, 0.2520209576326729, 0.24898330268929547, 0.24598905411077274, 0.24303602906992944, 0.2401287272880701, 0.237284916427991, 0.23446109252277386, 0.23168124896105496, 0.22894290826944932, 0.22625030457706413, 0.22356511610863153, 0.22096238524669262, 0.2183998651580713, 0.21589575926931637, 0.21341114381069495, 0.2109685480546128, 0.20856536882376941, 0.20620254233425936, 0.20391945201972655, 0.20163122661677246, 0.19932326161315644, 0.19712503007048113, 0.19496345687778377, 0.19286952938726334, 0.1907768176181721, 0.18869292404929586, 0.1866789998056759, 0.18470024018767936, 0.1827649606927008, 0.18085458563503012, 0.1789757237830119, 0.17713480444807872, 0.17532758230863354, 0.173605190805578, 0.1718575694482073, 0.1701549038546342, 0.16847576730388122, 0.16683076057848945, 0.16519216213064516, 0.16361624186451065, 0.1620661625110163, 0.16055052223170918, 0.1590637077452315, 0.15762240930992413, 0.15618958941046537, 0.1547238529346832, 0.1533547449714898, 0.152009248149659, 0.15072698723243694, 0.14942329513042812, 0.1481589212707004, 0.14690360862660717, 0.14567330609283852, 0.14444478763809945, 0.1432653610424315, 0.1421238266411564, 0.14098548426255922, 0.13986893463840455, 0.13872633133615014, 0.13765758546409493, 0.13667927534081745, 0.13563591345184983, 0.13457175705362362, 0.13357503199881854, 0.1325953994038885, 0.13161631869468585, 0.1306716107915446, 0.1297213735144022, 0.12880868114710767, 0.12790906150699352, 0.1270631343129647, 0.12618388229604663, 0.1253128642176148, 0.12446316600678602, 0.12362656595059053, 0.12280575260437525, 0.12199334931729036, 0.12115613253630832, 0.12037122030388367, 0.11959490627025961, 0.11889141547432866, 0.11812347237722944, 0.11736057542188039, 0.11661562694412227, 0.11588025373806715, 0.1151011717391202, 0.11438966987761931, 0.11367862705740803, 0.1129770423749077, 0.11227967402155226, 0.1116529641422078, 0.11095514077883856, 0.11020353985252987, 0.10952759948504853, 0.10885423183243173, 0.10822839555836139, 0.1075539998403562, 0.10682406127899133, 0.10616592066352057, 0.10550792977360725, 0.10486511947395286, 0.10420547996295582, 0.10354458338495083, 0.10288679272278888, 0.10222935862048839, 0.10162256639639818, 0.1009588754905268, 0.10029241116734355, 0.09963398645334196, 0.09897669532358745, 0.09829966579946695, 0.09764586459784393, 0.09703480360057817, 0.09637264907410197, 0.09571129165843097, 0.09496427998572608, 0.09431385020226923, 0.09369985520495679, 0.09303353388319524, 0.09236468669043615, 0.09166957433619266, 0.09099833848610873, 0.0903594569579617, 0.0896753775177039, 0.08898936731494118, 0.08823998126375723, 0.08755719998792337, 0.08689529958591818, 0.08619751775944942, 0.0854959007396476, 0.08483345099505238, 0.0841188485709208, 0.083379300491647, 0.08266473522691495, 0.08194693431993023, 0.08121940543723388, 0.08049581513700566, 0.07977603519800307, 0.07904411496675141, 0.0783089855176997, 0.07754270552643171, 0.07680465126659905, 0.07605643578374985, 0.07530971964850337, 0.07455837546556981, 0.07381876450674994, 0.07305686020713284, 0.07228548517147977, 0.07151841390469972, 0.07074810057669546, 0.07002730391604965, 0.06924424232774046, 0.0684634271319979, 0.06767999468677426, 0.06689624215508257, 0.06603355227869159, 0.0652584820869831, 0.06451792785668105, 0.06372792933419766, 0.0629359804684082, 0.06212396331776079, 0.06133084882044399, 0.06055345263212598, 0.05975324831053505, 0.05895211290139509, 0.058127616885361305, 0.05732785381455358, 0.056560658834771016, 0.05575327317376829, 0.0549466490891308, 0.05412147092150457, 0.053318886357076524, 0.05249353500884458, 0.051693607385755146, 0.05089265606232958, 0.05008463951044034, 0.04928363794704832, 0.048554345197631264, 0.047744125969056105, 0.04693843800981553, 0.04612737410136899, 0.04533130010309449, 0.0445042733648792, 0.043719355766201465, 0.042935909537917004, 0.04220042618238621, 0.04141499508991791, 0.0405571860142882, 0.03979134295866697, 0.0390259585761132, 0.038290627399835846, 0.03752423213046237, 0.036733644695256855, 0.035978476945240485, 0.03522592934968599, 0.03453873747023284, 0.033784843188785475, 0.033036141384898854, 0.03229704728837303, 0.031564904899452045, 0.030831056486059678, 0.030113735259944426, 0.029428544105582995, 0.028720747767356346, 0.02802091799424008, 0.027292428617519415, 0.026612856646156643, 0.02594112113969344, 0.02527292927417315, 0.024611083067249313, 0.02391392677742894, 0.023270753651529964, 0.02265372202460863, 0.022017693553953426, 0.02138855895320593, 0.02081277122881852, 0.020192371716485844, 0.01954461294000849, 0.018949270588023173, 0.018361759811994914, 0.017802685020533993, 0.017228835838525, 0.016611886424086897, 0.01606374022250827, 0.015522162973202188, 0.015069213421163784, 0.014531701698505215, 0.013961389817451136, 0.013453848903353022, 0.012955428181022752, 0.012471595845312728, 0.01199102231193733, 0.011496511170868183, 0.011038338886849389, 0.010588591793337768, 0.010204410593030157, 0.009764939997975581, 0.009277516370219797, 0.008869723844546281, 0.008470158797134133, 0.008116651378036443, 0.007729473186421696, 0.007334998414780347, 0.006971903324870719, 0.0066184594093928115, 0.006301539535840036, 0.005964060367022711, 0.005588374825863517, 0.005279323981306796, 0.0049782843172967986, 0.0047348778516046516, 0.00444422791223794, 0.004144503694521691, 0.003878823728248375, 0.0036228035075407355, 0.0034118185983664016, 0.003170430903258265, 0.002928667531531692, 0.0027112915250430848, 0.002504004657559455, 0.00231734455258516, 0.002128283752329651, 0.0019117555838440634, 0.0017474436694109325, 0.0015423292295388433, 0.001399273135320804, 0.001261183243549749, 0.0012101169927823876, 0.0010728617485425038, 0.0009462472110120127, 0.000829862152975901, 0.0007233260767724914, 0.0005886945701333238, 0.000505575131520904, 0.00045713228508031603, 0.0003840003313088538, 0.0003191974279711004, 0.0002076995037531436, 0.00016574721299691584, 0.0001444470793475449, 0.00010976102455709682, 8.091323748453132e-05, 0.00010301309783726114, 8.011406535210133e-05, 0.0, 1.5614071884411303e-06, 6.9223132777926555e-06, 7.6428681389844e-06, 2.210341915994571e-05, 7.028638521190024e-05, 8.834703108921162e-05, 0.00011191225441293634, 0.0001643966063962937, 0.000195337824832281, 0.0001862757965943538, 0.00023500692063086934, 0.00028652778635908805, 0.00038165508759661074, 0.00043357691414714445, 0.00043680654149964556, 0.000505138706445616, 0.0005746889410283415, 0.0006487513528122431, 0.0007205099974927523, 0.000799148548978997, 0.000873195621804109, 0.000948926971030082, 0.0010509073008421498, 0.0011264565671018035, 0.0011960335290663305, 0.0012775397120361493, 0.001360461252449404, 0.0014982319148419123, 0.001576395306396379, 0.0016635711970264938, 0.001747658120950226, 0.0018343839424428618, 0.0019102482397292681, 0.002002100032269926, 0.0021156704887846218, 0.0022049219990361636, 0.0022949245413936077, 0.0023433103233370216, 0.002438714306505047, 0.002578462725746143, 0.002662039972229268, 0.0027452966479307533, 0.002860030712138649, 0.0029373415082138902, 0.0030117615400430094, 0.003089566387780666, 0.0031664303816905898, 0.00322795624067817, 0.0033034455957065426, 0.0033975201013675344, 0.0034643035999080726, 0.003529019021979181, 0.003623552525312542, 0.0036790890788236325, 0.003681912275167549, 0.0037411525889554055, 0.003795406446107487, 0.003885515835816534, 0.003924716831433701, 0.003945182129627436, 0.003980856139126761, 0.004012409474031098, 0.0040783919997340766, 0.004096481445763372, 0.0041262737731566496, 0.004137687378114422, 0.0041468905355265175, 0.004159915163443624, 0.004162698392839676, 0.004229139550435198, 0.004217317179761796, 0.004205702986394067, 0.004248303097244482, 0.004227972784318977, 0.00415736036481945, 0.004145161909259549, 0.00412961121560443, 0.004135141668428058, 0.0041090076860509995, 0.004093141593361775, 0.004059811485523021, 0.004023995388663098, 0.004069156947226628, 0.004016904092942946, 0.0039918895141304615, 0.003938483050937295, 0.003886478481412168, 0.003808243364389313, 0.0037602218663027247, 0.0037391224053227898, 0.0036830611433711865, 0.0036261772855045184, 0.003645472501527525, 0.0035762580192199214, 0.0035377294772928084, 0.003469769936883014, 0.003404799824468967, 0.003331370969703782, 0.00327174878208678, 0.0032396297268107877, 0.003177656660873626, 0.0031174068535780647, 0.003048897120286791, 0.0029924582027344537, 0.002949405395242216, 0.0028923401536174636, 0.0028365661451809107, 0.0027971260051955524, 0.0027421055528988394, 0.0027570587444664886, 0.0026981294840672737, 0.0026454150050601766, 0.002643606264164961, 0.002596468648940326, 0.002518465669844038, 0.002491323637163357, 0.0024689452976199232, 0.00252548477544043, 0.0025034567175415833, 0.002494948309608047, 0.0024904254802404152, 0.0024946826618684583, 0.002488166777893013, 0.002511860733639096, 0.0025471544171030668, 0.00258509678013914, 0.0026309981060834184, 0.002726980789507755, 0.0027842467663200003, 0.0028408229574865235, 0.0029218310508542403, 0.0030133652582061423, 0.003142495931335738, 0.003252385480465052, 0.0033664890037764404, 0.0035031866521457616, 0.003652479632822697, 0.0038200161200291185, 0.003994687178830075, 0.004207885104426268, 0.004407400692735962, 0.004622793196612441, 0.004902565502691416, 0.005144158520619134, 0.00537813149035664, 0.005661482627457704, 0.005962438692114996, 0.00630596817323613, 0.006639842821703294, 0.006983941056782586, 0.007358978368766247, 0.007753732247301666, 0.00819323425637072, 0.008625311352950625, 0.009120370114676592, 0.009591825597070489, 0.010088187394273581, 0.010570744526234107, 0.011121744695726708, 0.011775036072394817, 0.012362073572614323, 0.012977320981149273, 0.013585181698190727, 0.014260958164471548, 0.014940193782110714, 0.015671216026070467, 0.01642774384285972, 0.017225408070221132, 0.018032824170212527, 0.018878024581832336, 0.019740911729590013, 0.02063338214104459, 0.021553681566340795, 0.02250678546084157, 0.023562533499426958, 0.02456835126741246, 0.025609787546636745, 0.026625498013330907, 0.027745613686792944, 0.028948232947604895, 0.030126578359448698, 0.03134090036400336, 0.03260637428763675, 0.03389120415091685, 0.035166126538926624, 0.036531753765118836, 0.03798391646561631, 0.03941356495962802, 0.04088222461145914, 0.04234813630390191, 0.04390053457474062, 0.04556096460723031, 0.04717924550112428, 0.04883974030287015, 0.05054346907133757, 0.052288145592012746, 0.05408474927579882, 0.05591279886907941, 0.05778383422973722, 0.05966784334811576, 0.06162887111697708, 0.06359603685704429, 0.06564510136651237, 0.0677345341057756, 0.06991762107660252, 0.07208306369289791, 0.07424855598893555, 0.07651012490557284, 0.07881454306076022, 0.08115800512482692, 0.08355010051890759, 0.08603664774393198, 0.08851072497937608, 0.09103241302048334, 0.09356299255077524, 0.09618464830594367, 0.09885271065874843, 0.10156519971134294, 0.10432366097950677, 0.10712618586470019, 0.10997755661787254, 0.11292590357904427, 0.11586406939328653, 0.1188519107580759, 0.121909567120423, 0.12499340598215727, 0.1280897539538207, 0.13127818954158924, 0.13451393897945538, 0.1378131279863396, 0.14114150387454982, 0.14450737332599367, 0.14793343019223987, 0.15140683303117433, 0.1549371969469921, 0.15850390584457513, 0.16207857947233878, 0.16574556070307592, 0.1694576921499513, 0.17323016305428754, 0.17703110710740622, 0.18093529640717454, 0.1848215914513347, 0.18875719300500762, 0.19271573006874104, 0.19675145818300116, 0.20080651720798656, 0.2049377118274137, 0.20911299352734014, 0.2133526848175765, 0.21761327519607154, 0.2219284156424451, 0.22627721015245797, 0.23067074100935359, 0.2351193137515475, 0.23959965528365287, 0.24407784771546864, 0.2486515738712092, 0.25326570143968996, 0.2579426438814905, 0.2626342548688751, 0.267358389013983, 0.272132872311002, 0.27694708527675976, 0.2818328461943403, 0.28672121362354, 0.29164340071658384, 0.2966123853082845, 0.30161983374318574, 0.30661139273210963, 0.3117006063086163, 0.31682009599405725, 0.3219764928031815, 0.32716570918787424, 0.33242073676835543, 0.3376704198530597, 0.34294298854486543, 0.34826056673222267, 0.3536097306104366, 0.3590102428236646, 0.3644180468026601, 0.36979859588228997, 0.37527435789427693, 0.3807758885790816, 0.386342538365161, 0.3918893582199791, 0.3974456607534, 0.4030471241421109, 0.4086725586231728, 0.4143308966066453, 0.4200008276274989, 0.4256489713247875, 0.4313680945060986, 0.4371052418306336, 0.4428502122981668, 0.4486229743972703, 0.4544050189452394, 0.46020944968616767, 0.4660279971066976, 0.47186646359328616, 0.4777104567794855, 0.48355290288111713, 0.48942266972018894, 0.49530239430013434, 0.5012138662069994, 0.5071083212331216, 0.5129697077620283, 0.5188860489474055, 0.5248067569530539, 0.5307429252546235, 0.5366686645605635, 0.5425659912762703, 0.5485001983670833, 0.5544334913943939, 0.5604123985221596, 0.5663356514991817, 0.5721960208318803, 0.5781247332646665, 0.5840468964644432, 0.590003685411954, 0.5959052654996317, 0.6017928446927905, 0.6076812250171665, 0.6135603366677052, 0.6193710689785937, 0.6252356377133336, 0.6311068967749677, 0.6369362360937916, 0.6427496222972404, 0.6485665239974879, 0.6543425864404023, 0.6600923687748192, 0.6658329803146998, 0.6715531042983758, 0.6772129946500625, 0.6828937883626557, 0.6885443811009354, 0.69417313499008, 0.6997741582295142, 0.7053498627834098, 0.7108925534036593, 0.7164169821636676, 0.7218971025535255, 0.7273459437340809, 0.7327313060299556, 0.7381183686296329, 0.7434123207863378, 0.7487334067721851, 0.754013480108182, 0.7592392547269029, 0.764437661650976, 0.7696530612369304, 0.7747570544342625, 0.7798202002695731, 0.7848145389894199, 0.7897960686298878, 0.7947362440882623, 0.7996250688949882, 0.8044667481705133, 0.8092002144750893, 0.8139524400020253, 0.8186460008430991, 0.8232918728047797, 0.8278832036452999, 0.8324710384546273, 0.8369451932549812, 0.8413467014912182, 0.8457156237134001, 0.8500280701152735, 0.8542208957181731, 0.8584257175888222, 0.8625615808887093, 0.866641851845833, 0.8706585181350387, 0.8746101187899535, 0.8784985040732533, 0.8823595219706658, 0.8861127385502412, 0.8898020812917933, 0.8934202539907012, 0.896980127188406, 0.9004421201577821, 0.9038717249963639, 0.9072313824349999, 0.9104819670658186, 0.9137052241227371, 0.9168678325435344, 0.9199422038665116, 0.9229809464680927, 0.9259037605271617, 0.9287547193514778, 0.9315320534405045, 0.9342373801289771, 0.9368043489437966, 0.939369391969378, 0.9418557283163482, 0.9442354037715507, 0.946567732355071, 0.9488346289207169, 0.9510042186716566, 0.9530943338016435, 0.9550941218911566, 0.9570262897281678, 0.9589392092109246, 0.960702627206433, 0.9623888509386297, 0.9639156585274392, 0.9654560821048761, 0.9669141733211252, 0.9682878581676471, 0.9695785804484411, 0.9707854010008352, 0.971910714971372, 0.9729415303106312, 0.973903056571059, 0.9747813979570832, 0.9756336416639962, 0.976338889250651, 0.9768980022142033, 0.9774522518495269, 0.9779226139092649, 0.9783340996458546, 0.9786344694678096, 0.9788231383124224, 0.9789641213031259, 0.9790219392925523, 0.9790570831010431, 0.9789419893068471, 0.978733074967707, 0.9784621543654496, 0.9781113449515317, 0.9776173540054418, 0.9771150438783268, 0.9765274788972494, 0.9758599201002888, 0.9751104906036049, 0.9742787719542341, 0.9733676809216368, 0.9724109312618793, 0.9713360475687757, 0.9701842706182073, 0.9689806157552959, 0.967672895073511, 0.9662885430153879, 0.964832326480418, 0.9633019562707401, 0.9616139741620913, 0.9599468835155363, 0.9582052387755462, 0.9563833016585879, 0.9544859486590146, 0.9525131048376623, 0.9504680208150349, 0.9483406992257908, 0.9461526194837858, 0.9438932545927071, 0.9416323083951951, 0.939224554938572, 0.936694207321181, 0.9341649513843097, 0.9315686136046331, 0.928912570065139, 0.9261840408163978, 0.9234323774459688, 0.9205716541255791, 0.9176510016085608, 0.9145893365237785, 0.911560824684331, 0.9085533470141017, 0.9053900923849263, 0.9021714185617659, 0.8988076834333277, 0.8954913608018946, 0.892154026463664, 0.8887171869089542, 0.8852266884208508, 0.8816771323070274, 0.8780832656432482, 0.8744342146527674, 0.8707402100165152, 0.866997261081605, 0.8632505240041829, 0.8594074731947698, 0.855428923957855, 0.8515120398817386, 0.8475483810799601, 0.8435427394125798, 0.839489774840589, 0.8353754244670747, 0.8312421851470544, 0.827068543334412, 0.8229300778577415, 0.818670621596258, 0.8143147470978582, 0.810000229593237, 0.8056516436233959, 0.8013165086823326, 0.7968979225396822, 0.7924582217317573, 0.7879845847057737, 0.7834855385095004, 0.7789136283643902, 0.7743725330329055, 0.7698457653742635, 0.7652501611186718, 0.7606340259595492, 0.755938180033906, 0.7512915036038811, 0.7466120530260237, 0.7419264446072908, 0.7372221518296711, 0.73248885542548, 0.7277531208616941, 0.7230388893733962, 0.7182699557710627, 0.7134908997773185, 0.7087414428544078, 0.703940415768872, 0.6990508128278817, 0.6942515062615618, 0.6894441897834425, 0.6846346254828299, 0.6798150864321649, 0.674980194794748, 0.6701563468725135, 0.6653308052627207, 0.6605091585253089, 0.655683518237184, 0.6509063543819618, 0.646080593414575, 0.6412619534661006, 0.6363995844560896, 0.6316038367846689, 0.6268338191442618, 0.6220495927017827, 0.6172751520235809, 0.6124835132971745, 0.6077349847134508, 0.6030221598527752, 0.5982936343619144, 0.5935797051533165, 0.5888694056271995, 0.5841886958086141, 0.5795448380032603, 0.5748953497007009, 0.5702652520391209, 0.5656767294962771, 0.5610848081721477, 0.5565059267397581, 0.5519611680330839, 0.547439647104562, 0.5428786342926795, 0.538413519745281, 0.5339764523423041, 0.5295548784543295, 0.5251575024893342, 0.5207756287301931, 0.5164307322678268, 0.5121713274455124, 0.5078727077376056, 0.5036055860805915, 0.4993037065098616, 0.49510901926073536, 0.4909571011790651, 0.4868191680210995, 0.48271257811901636, 0.47861760402588427, 0.4745782813507102, 0.4705700103188217, 0.46659581195035643, 0.4626551013370489, 0.458752820196383, 0.45488043252439564, 0.45102424265278784, 0.4472258424539081, 0.44346281859032827, 0.4397314477827845, 0.4360413896556094, 0.43245678133925214, 0.4288319260630669, 0.42524854002952417, 0.4216774604239806, 0.41818021982948367, 0.41474497508260605, 0.41132391648431565, 0.4079438595391289, 0.40460153467082055, 0.4013037589600743, 0.3979876253846923, 0.3947787566263624, 0.3916008632409754, 0.38846813487965254, 0.38537337695008145, 0.3823760837887373, 0.3793510057365347, 0.37629420028207805, 0.3733630402489604, 0.370469684763875, 0.3676188326877181, 0.3648016848499428, 0.36204937394525477, 0.35930727118166433, 0.35660599615182875, 0.3539787298439286, 0.3513545428561104, 0.34877696183082363, 0.3462364269233194, 0.34373761445790807, 0.34127043675161983, 0.33885504649336434, 0.33646136788414577, 0.3341279321742038, 0.33183285417973196, 0.3295147672814317, 0.32730368719919195, 0.3251656985686843, 0.32301887165817855, 0.32090914250974945, 0.31886211761480293, 0.31682278647330697, 0.3148289279819121, 0.3128641024683888, 0.31093675250473374, 0.3089830040742227, 0.3071371101918051, 0.30532149763862404, 0.3035407616005291, 0.30179233100540914, 0.30009224961013586, 0.2984061414807882, 0.2967238951146661, 0.29510683928711895, 0.29352032215926843, 0.2920050110679981, 0.29047392452617243, 0.28897508983123554, 0.2875079027197588, 0.2860717643723333, 0.2846446000578186, 0.2832714979361618, 0.28189854498800393, 0.28058471261631085, 0.279296549779385, 0.2780671315514274, 0.27682539452266447, 0.27555133826263556, 0.27436997191465745, 0.27321083631957965, 0.2721586546867312, 0.27103281738597884, 0.26986254291712625, 0.26879760560918375, 0.2677532593390444, 0.2667581943754163, 0.26575040268897154, 0.2647906547096222, 0.26382121944078063, 0.2628732209065488, 0.2619082279674981, 0.2610053686055989, 0.26007215203678236, 0.25920861888331725, 0.2583584204908379, 0.25751823934040297, 0.2566947742602472, 0.25594845323135484, 0.2551420193696712, 0.25435141205198175, 0.25355217801990115, 0.2527937684459246, 0.25200666087037443, 0.251277092349164, 0.2505562484423626, 0.24989009219580002, 0.24918015711960845, 0.24843135846537795, 0.2477480594610761, 0.24707115888437256, 0.24639287820417272, 0.2457289125933794, 0.24514308636113286, 0.2444798123539725, 0.24382514746231296, 0.243127689448578, 0.2424939105462634, 0.24189014416932966, 0.24125892142187172, 0.24063161427443305, 0.24001835910183825, 0.23939573427070007, 0.23876728597551855, 0.23815065546607334, 0.23753508094813244, 0.2369275759945198, 0.23631166549728946, 0.23561091891213154, 0.23500524534995096, 0.2343938095585803, 0.2338058168985292, 0.23317974319831242, 0.23256714853500082, 0.2319312881689632, 0.23129226457431534, 0.23062929937616009, 0.22998542030746355, 0.2293049879934981, 0.22865404565741188, 0.22799555717282213, 0.2273660766865004, 0.22668794927894528, 0.22603224662094257, 0.2253392271401212, 0.224641564285081, 0.22386673448900654, 0.2231672343305204, 0.22249292251652, 0.22176855696944117, 0.22103613816464573, 0.22033302494660592, 0.2195790545361035, 0.2187701287114344, 0.21800850660506585, 0.21723656241900866, 0.2164413674595342, 0.21565027880143428, 0.21490492249180634, 0.2140842943301822, 0.21325573571333825, 0.21238013514528312, 0.21153931196690468, 0.2107097387453886, 0.20984344601728924, 0.20896709636332053, 0.20802572162291885, 0.20713563030226267, 0.20624693476062933, 0.2053279727531033, 0.20439680239281563, 0.20350295398745555, 0.2025414812183776, 0.20156017144517238, 0.20058156088640858, 0.19959268897869048, 0.19858912654535224, 0.19757990251013918, 0.19653515151553264, 0.19550737849578553, 0.19446736364805822, 0.1933745010355023, 0.19231577637253944, 0.19124955967502405, 0.19016265934236246, 0.18906316176764523, 0.18798580937379955, 0.18685786144852684, 0.18567194747513627, 0.18453086086842252, 0.18337747970122653, 0.18226701609257726, 0.1810833936132946, 0.1799025000954537, 0.1787014016530509, 0.1774927363379984, 0.176228052552498, 0.17501004357791625, 0.1738137293182188, 0.17257096837223665, 0.1713202212675089, 0.1700476077433914, 0.16878291902149364, 0.1674786142900538, 0.1662011721990179, 0.16491400624817604, 0.16363802164704971, 0.16233029346439057, 0.16104439564183648, 0.15971891875500244, 0.15838841133164935, 0.15698308328896082, 0.15565143911296492, 0.15435718413735694, 0.15300277651227914, 0.15164344944175615, 0.15023966814359, 0.148876149171977, 0.14751041487414543, 0.1461338767608359, 0.14475212933346746, 0.1434064361492509, 0.14201043763350313, 0.14060528835696676, 0.13920703853068253, 0.13780688575295497, 0.13641144636520477, 0.13500720291240792, 0.1335880119696429, 0.1321837220709091, 0.13075329356406792, 0.12934955787305263, 0.12794360402137192, 0.12657674545596329, 0.12516266949738875, 0.1237103531948339, 0.12230440360979486, 0.12089795172720649, 0.11946783297788231, 0.11806473494711335, 0.11669658039114668, 0.11528859469936542, 0.1138832449589421, 0.11245176381880886, 0.11105605003074899, 0.10964056528606808, 0.10825145736900181, 0.10686376614555804, 0.10550708021178862, 0.10412027974348556, 0.10276501373576284, 0.10138442053789398, 0.10001048466335397, 0.09858951625561689, 0.09723574506763481, 0.09590075844788361, 0.09455308908346692, 0.09321098880392427, 0.09189518021465319, 0.09056256991561071, 0.0892676496032276, 0.08794658006620715, 0.08663504276995287, 0.08534795849119205, 0.08405327389199174, 0.08273972547372326, 0.08146884055037418, 0.0802062294921387, 0.07889728920860188, 0.07765867390122222, 0.0764429705453434, 0.07521425671828416, 0.07399341962519744, 0.07279694729137598, 0.07159093043514325, 0.07037541073182055, 0.06919166691013724, 0.06801699925593296, 0.06688071839294638, 0.06572144560918952, 0.06456621850527011, 0.06343103233285552, 0.062307013366983854, 0.061194246859333855, 0.06009281709147019, 0.05894480862400095, 0.057873631911939866, 0.05681077898440655, 0.05578364263194189, 0.05473560665725801, 0.05375792176084883, 0.05272513381108689, 0.05170723982796927, 0.050648038110317935, 0.04966598192639763, 0.04873019842495506, 0.04776553271091749, 0.04681408688325393, 0.045831705471532674, 0.04491192180256409, 0.04405949158852933, 0.043153639946349354, 0.042261919233702754, 0.041341114496451, 0.04048235517794296, 0.039663634214397225, 0.038823452155103966, 0.0379962436740944, 0.0371185265416711, 0.03632494423950955, 0.03559094112213543, 0.034809591145494825, 0.03404094778719542, 0.03325591082915427, 0.032516045723893425, 0.03183529307584294, 0.0311110140729447, 0.030400471523480684, 0.029707654780660613, 0.02902314612270271, 0.028358210113658425, 0.027698868438266726, 0.027052488541109414, 0.026351119933406414, 0.02573838452252299, 0.025141540930035705, 0.024544921441718322, 0.023957684450584243, 0.02344550638505674, 0.022869194910148223, 0.022256913491417278, 0.021713256912018097, 0.021179374509626966, 0.020671383389003928, 0.020155013611684616, 0.019684732034118385, 0.01918499772273626, 0.018697554133259096, 0.018225170204897684, 0.017760578293891514, 0.01731902073610358, 0.01687499662029147, 0.01644212932360171, 0.015949116220812437, 0.015546313354132528, 0.015161359035640967, 0.014769380175909886, 0.014384552037967378, 0.014031644973358652, 0.013658171006069602, 0.013297656571885606, 0.01294076357768383, 0.012592374984784637, 0.012315631856800485, 0.011975566375013551, 0.011666237395942749, 0.011345822222663417, 0.011036540092143656, 0.010758062819567827, 0.010466338138749953, 0.010122614216427657, 0.009858664355071798, 0.009600205602760255, 0.009438484128366046, 0.009179321635979731, 0.008951035414814151, 0.008709447088673168, 0.008477993806723854, 0.008195750553358694, 0.007989928414034992, 0.007876868828458672, 0.007669247875059814, 0.007471176199026935, 0.007232506216726615, 0.0070576465757562455, 0.006899418503447132, 0.006732601913280606, 0.006571086815441286, 0.006513522660455079, 0.006349653661681499, 0.0061425107071041785, 0.006005393925758452, 0.0058740176247293555, 0.005843725927754182, 0.005711046339296516, 0.005599587017021416, 0.005485598468823922, 0.005380993315538578, 0.005248488810625661, 0.005165080362626453, 0.0050934688722889315, 0.0050197719554103196, 0.004951472041073705, 0.004919562048423845, 0.004857692827931481, 0.004841279867661777, 0.004787798723461518, 0.004742725414310616, 0.004719513696487111, 0.0046880474053710005, 0.004695633854840972, 0.0046756431108195265, 0.004664584190344088, 0.004650132897885663, 0.004656991020933531, 0.0046901783888258185, 0.004708409103822287, 0.004734420291833277, 0.004848529948379383, 0.0048792711741215185, 0.004893854761551874, 0.004950938060795581, 0.0050168961311777924, 0.005120459711629, 0.005199765309942164, 0.00528252511536553, 0.005382127501248565, 0.005490714285373482, 0.005640389985144378, 0.005762576262077783, 0.005884622864383238, 0.00602913904929168, 0.006183263815002106, 0.006364170330636185, 0.006535349294064053, 0.006726860828167887, 0.00691811807797237, 0.007120567420711904, 0.007352446997028473, 0.007574956811985728, 0.007814052276453182, 0.008060554799054844, 0.008348551299857893, 0.008616394565006714, 0.008898439409369607, 0.00919133131350564, 0.009501852973262972, 0.00988418001245587, 0.010215047011221669, 0.010563146367547243, 0.010955006187078084, 0.011333297285556626, 0.011668401327369744, 0.012090205316197408, 0.012526109495468679, 0.013003335327340312, 0.013465167665897948, 0.01400389716393713, 0.014491809750273562, 0.0150002483464263, 0.01551393830866967, 0.016064701302474855, 0.016604606035575082, 0.017197713397090943, 0.017808617478793233, 0.01849682952005581, 0.019137180046300595, 0.019787084721236445, 0.02047392541687416, 0.02118249617835863, 0.021943062747214602, 0.022691903658823516, 0.023457321559744816, 0.02425534611036494, 0.02507718201568734, 0.02590692153417179, 0.026779059632161203, 0.027711328291549018, 0.028626497114001705, 0.02956817793726581, 0.03054080594470834, 0.03153542433119375, 0.03255303103825733, 0.03360297125119938, 0.03468040502282589, 0.0358071151335363, 0.036937744912273626, 0.03804540570997176, 0.039242185484555776, 0.04046605852929175, 0.04177138813113808