0.02348816351158741, 0.023210797262567633, 0.02296504598456935, 0.022814176706208365, 0.022610114295321514, 0.02238786940438292, 0.022232623231838347, 0.02209202124324079, 0.02184649390062438, 0.02174358712760931, 0.021765501316551653, 0.021651318412833992, 0.021545686167717376, 0.021322355842313304, 0.021246516537777854, 0.021245091044261612, 0.021157794699470434, 0.02107453053089559, 0.02097174800064177, 0.02089933763041812, 0.020756634609503336, 0.020699181788962316, 0.02064101574284159, 0.020585708750208126, 0.020528626671559563, 0.0205831982573228, 0.020517381459448463, 0.020461391368861707, 0.020391577097630162, 0.02035770765369037, 0.020232910483084333, 0.020228010967445777, 0.02022605528651311, 0.02024629755996254, 0.020250852790785524, 0.020337740909490115, 0.020346821625586584, 0.02036806809323299, 0.020372722755397144, 0.020421716402882196, 0.020525438934453882, 0.02058989301507058, 0.02066772390254428, 0.020774449978222326, 0.020876727889360746, 0.020857448409315305, 0.02100473079163382, 0.021158171846451516, 0.021370943340721094, 0.021533110149582146, 0.021777559661508912, 0.021954962716305083, 0.022148879108242127, 0.02223391591959688, 0.022475951576711225, 0.022805059496355234, 0.02305582859546189, 0.023321552214321292, 0.02355280301850012, 0.023855020696710274, 0.024161934367222637, 0.024490705257604006, 0.024832574963450243, 0.02526887468706338, 0.025628234532902205, 0.025938884198151303, 0.02634471420754276, 0.026765384710978585, 0.02718305429574516, 0.027636910675492437, 0.02811877143701704, 0.028601410564798927, 0.029100699196547203, 0.02959349674065768, 0.030130001728628113, 0.030659301459636627, 0.031231759719134566, 0.03182007084920766, 0.03251607621587289, 0.033126305236462726, 0.03368616955653306, 0.03435061921339764, 0.03503312424714751, 0.035812319308045064, 0.03652230183926106, 0.03714905054544806, 0.03791957424232949, 0.038707262971524034, 0.03958841590803186, 0.040402913189404, 0.04126159974978937, 0.04212006023314711, 0.04300292209943958, 0.04383180427172364, 0.04477288362821421, 0.045704914488575006, 0.04668945619957371, 0.0476931341550879, 0.04873752963702877, 0.0497789547301063, 0.050900023752837795, 0.051979158038704044, 0.05308452836047919, 0.054213389064957276, 0.05537117818081813, 0.056486957260509674, 0.05770482738458148, 0.05894462675094071, 0.06018605441211845, 0.06147395996353612, 0.06278413462481684, 0.06411715571170656, 0.0654735391344697, 0.0668667793327103, 0.06826956776200192, 0.0696690044556065, 0.07112628181045683, 0.0726076770592301, 0.07411879895905091, 0.07564890486741874, 0.07730091471396398, 0.07886993572934475, 0.08047021513250567, 0.08207766829235795, 0.08374163325290837, 0.08531395542943769, 0.08704938649004604, 0.08880589483014215, 0.0906285630223266, 0.09242381716940469, 0.09428895648062177, 0.09612987651940076, 0.09799908834037407, 0.09984938527373365, 0.10178028481874309, 0.1038116474714607, 0.10578285482218025, 0.10778341557091622, 0.10980236867144612, 0.11186140023381003, 0.11383563418016684, 0.11596311076192839, 0.11811096061293956, 0.12038407154634696, 0.12256122000416489, 0.12473486240451179, 0.12697102748951036, 0.12923225910052716, 0.13156008414772066, 0.1338656161813996, 0.13608588406955333, 0.13845871378473162, 0.14085103447315395, 0.14330758487290934, 0.14573446108105234, 0.1482468931613004, 0.15071166614986145, 0.15320257458068956, 0.15565112234842773, 0.1582007665701362, 0.16081764438776353, 0.16340191922001085, 0.16600899027200894, 0.16864356794505678, 0.17129407682080522, 0.17384107443203373, 0.1765501383826334, 0.17927279789405037, 0.1820095747191321, 0.18476087439889632, 0.1876234526331715, 0.19039240544461292, 0.19318191401438806, 0.19589999790538443, 0.19873996348509354, 0.2016870677293831, 0.20454180614812223, 0.20741514643873266, 0.21016808590612918, 0.2130936233313708, 0.21617879453313693, 0.21910244064751794, 0.22204361247040924, 0.22489174651087376, 0.2278786509951919, 0.2308921293018296, 0.23389333659654502, 0.236859425558174, 0.23988431576781882, 0.24291524098002867, 0.24594694982086363, 0.2489904148666728, 0.25213834959475917, 0.2551798985775942, 0.2582319435696668, 0.2612699047496489, 0.2643426045479046, 0.26736392095456646, 0.2704550140230891, 0.27354727811913476, 0.27664822280624907, 0.2797408592110136, 0.2829018143821185, 0.28598645593073546, 0.2890744078895128, 0.29207854317629595, 0.2951807422743117, 0.29828347319460996, 0.3013753650830711, 0.30446224698186575, 0.3075254441309229, 0.3106032961974487, 0.313676331279579, 0.3167386224492418, 0.31979282277019977, 0.3228905783076572, 0.32592049321640504, 0.3288315687288111, 0.33186116808276117, 0.3348757512780742, 0.33795608029532126, 0.34093016670344695, 0.3438855360465636, 0.3468378758422043, 0.3497770112334316, 0.35267341815209485, 0.3555872333672035, 0.3584159312564574, 0.36130304367787397, 0.3641677966440538, 0.36715347552885136, 0.3699550112059825, 0.37256443399510225, 0.3753572229926974, 0.3781223525222484, 0.3809433511479509, 0.38364282786785614, 0.386355833085253, 0.389003904889654, 0.39162935609235794, 0.3941815223700696, 0.3967646405063344, 0.39928519891029596, 0.4018146506120932, 0.4043122927283188, 0.4068455396601253, 0.4092698529757053, 0.4116284426992551, 0.41399789229526984, 0.41633405606868285, 0.41867277452868007, 0.4209357807592391, 0.42306911878063064, 0.42527694314339526, 0.4274442733712117, 0.4296335700921657, 0.4317116217181663, 0.433726122106017, 0.4357317284048537, 0.4376968539935665, 0.43959489949311487, 0.44148076125268143, 0.44328657003476113, 0.445089595514304, 0.446846311043036, 0.44859311566614707, 0.45025224662724966, 0.45184059031860196, 0.4534130406030563, 0.4549382276751383, 0.4564444968034997, 0.45787051614208213, 0.4592211478583135, 0.46055675120942047, 0.4618428130686584, 0.4631597936404076, 0.46433548090328663, 0.46539207602340865, 0.4664837678315445, 0.4675232871170044, 0.46853380526135446, 0.46946513473844637, 0.4703134382329282, 0.47114474749676405, 0.47192160295679336, 0.4727585186503846, 0.47341138491167895, 0.47394004291167413, 0.47450412516837515, 0.475013215902955, 0.4754930830857772, 0.4758880119889966, 0.4762754959135423, 0.4765553041619984, 0.47678252533922216, 0.47685475331707616, 0.4769875334307644, 0.47715912917733105, 0.47715921189109733, 0.4771052185401728, 0.4769105852157718, 0.47675778419646936, 0.4765342609623499, 0.4762625501987284, 0.47593065350382463, 0.4755676396926197, 0.4751128928002087, 0.4746241219326471, 0.47405151908485454, 0.47342292302988453, 0.4726835040065266, 0.47194962465934165, 0.4711852047915123, 0.4703297211422924, 0.4694175149663522, 0.46853740068902494, 0.46750109244579885, 0.46637450704871936, 0.465240301467871, 0.4640518407799343, 0.4628247825974753, 0.4615259301029852, 0.46004875653106764, 0.45865937120227523, 0.45720987587323664, 0.4557222593425905, 0.4541532289337836, 0.45261967481034976, 0.4509283328500837, 0.44918782607522034, 0.4473720479667537, 0.4455364633072857, 0.4435929845944049, 0.4416639283956546, 0.4396818610160003, 0.437618982529093, 0.43553711508518256, 0.4334448749451475, 0.43125459084865125, 0.42901656391609566, 0.42680699356783697, 0.42446572439599817, 0.4220306317961421, 0.4196125966292824, 0.4171500583523128, 0.4145862574979057, 0.41204376193161657, 0.4094892699138177, 0.40685182638198475, 0.4041725783268162, 0.4014392543200674, 0.3986803385313637, 0.3958368706604489, 0.39300397075478094, 0.39013010483526994, 0.3872503878551332, 0.3842939321304671, 0.3812758803461065, 0.3782524927191399, 0.37519376830825435, 0.37214767136767524, 0.3690154373996957, 0.3658196662165855, 0.3626330283464385, 0.3594160862372106, 0.3561828176060679, 0.3529064439729954, 0.3496476329760797, 0.34631297552096374, 0.3429557218626912, 0.33947730702300655, 0.33608893552195845, 0.33280701694773707, 0.3293502829365181, 0.3258773495938237, 0.3222555367899148, 0.31876792037765844, 0.3153463502261053, 0.31180392868234275, 0.3082469840001265, 0.30458761913047044, 0.30101508225490525, 0.2974383920188432, 0.29383137040935275, 0.2902109060111194, 0.28658873734209933, 0.2829439611593129, 0.2792849289632583, 0.27562384469020385, 0.2719556400498756, 0.26832314722312295, 0.2646387712533002, 0.2610050568974423, 0.25731186376866805, 0.25354339546204707, 0.24986631388509667, 0.24618856494209926, 0.24246174155867808, 0.23879227340102788, 0.23521652090902567, 0.23153638564873386, 0.22786424938803493, 0.22418766275196012, 0.22053496678107962, 0.21683665992146756, 0.2132099471165214, 0.20959089437496362, 0.20599639944423656, 0.20239441187696736, 0.19876549242426483, 0.19519379483486413, 0.19163405716578255, 0.18807712608464408, 0.18454639103708517, 0.18102807528206774, 0.1775289176088088, 0.17404697393754218, 0.17067720111458845, 0.16722109264614807, 0.16376196602913115, 0.16036101405085132, 0.15698459490182565, 0.153599366800302, 0.15027795664478547, 0.14703039257859266, 0.14375220425117535, 0.140502793987234, 0.13722782137852096, 0.13404412860183604, 0.13094217230781133, 0.12780644866847948, 0.12470256565809475, 0.1216126654762063, 0.11857596173426269, 0.11554262333077396, 0.11257421181199236, 0.10963739055216101, 0.10677727224958787, 0.10390037408043257, 0.10109631971022509, 0.09828782812427896, 0.0955183970663162, 0.09278025860971385, 0.0900901379098172, 0.08744934508373249, 0.08483593090813207, 0.08226246930516998, 0.07965092557045668, 0.07716779674684038, 0.07474427013940896, 0.07233130594376926, 0.0699574319264335, 0.067573645624764, 0.06528576413645211, 0.06313473227595251, 0.06091071868143906, 0.0587316085333111, 0.05662855014229256, 0.05453491596757512, 0.05238594798972879, 0.0503975266294282, 0.04844915418670035, 0.04658573863266194, 0.04471356478257554, 0.042807294064558236, 0.041033275764396505, 0.03929905980704553, 0.03761051177394129, 0.03595710595099038, 0.03432202322886631, 0.03275551284159834, 0.031230121152157644, 0.029795798715085996, 0.02834755905074154, 0.027001593820046292, 0.025635747422309254, 0.024317630220643847, 0.02309869580443094, 0.02186743621923925, 0.020601488107945657, 0.01947725930409096, 0.018395199151886428, 0.017295192119764012, 0.01630456219694239, 0.015367851639627582, 0.014452069050614354, 0.013575902580386042, 0.012830587892815156, 0.012022047398024375, 0.011245042151843274, 0.010526409329144261, 0.009849905715962988, 0.00923049366484968, 0.008634260049600374, 0.007985223198898382, 0.007482211045464941, 0.0070135368183108174, 0.006652270900659704, 0.006243203078207598, 0.005776138082572277, 0.005455478035152019, 0.005166469854918829, 0.004922249589020006, 0.0046951171489086905, 0.004547351265185654, 0.00437893471796869, 0.004245072092839989, 0.004118983701150123, 0.004055397365545589, 0.004103595695621593, 0.004091240415934557, 0.004113384047747173, 0.004056742071428823, 0.00415855567046187, 0.004287796408974877, 0.004438796112435006, 0.004614443582417049, 0.004822281364099534, 0.005045345920834869, 0.005258612533065265, 0.005533654275750217, 0.005829868925443906, 0.006162614508579398, 0.006498285494670251, 0.006852371757692976, 0.0072298409613380955, 0.007627005311847061, 0.008079751712932811, 0.008509836407526786, 0.008946726428074366, 0.00941716774926513, 0.009904793940220003, 0.010356636759562174, 0.010882738572438008, 0.011553572564800255, 0.01208602309979231, 0.012636867395390243, 0.013209761206131345, 0.013792154901621625, 0.014287168313303854, 0.014909656618916363, 0.01553812648467695, 0.016284299252278187, 0.016909392351856116, 0.017449063076185524, 0.018107038594743947, 0.01876795786805056, 0.01944180405033333, 0.020105931893535784, 0.02080867411416353, 0.021471821899241014, 0.022137926082542902, 0.02279564984052301, 0.023466288488473885, 0.024227902846622264, 0.024885732690691824, 0.02554695213736794, 0.026264862023012696, 0.026921710094424636, 0.02749235597897213, 0.028163678648143314, 0.028829396535148783, 0.02958011962911783, 0.03022121613393412, 0.030875634989029288, 0.031508808261592525, 0.03213803325269263, 0.03272037126893739, 0.03334339319998599, 0.03396456394872614, 0.034566642630446606, 0.03515830209067958, 0.0357285075773982, 0.03629886195484283, 0.03689299255009486, 0.03743286644623187, 0.03796123532224275, 0.03852173081382035, 0.039019479048824066, 0.0395923276918452, 0.0400564406115527, 0.04051273239111819, 0.04092066475091428, 0.04136210967839579, 0.041901782807756464, 0.04230061821232595, 0.04269055652264511, 0.04300236481177135, 0.04337889394691571, 0.043866608095506514, 0.04419344454873972, 0.04451008963238424, 0.044770881608135665, 0.04506889190798763, 0.045439340134702515, 0.045693241979080174, 0.0459897378220424, 0.046211358886999836, 0.04642194625399039, 0.04657598607659274, 0.04676670316278966, 0.046946053429875574, 0.047102603795844064, 0.0472422616955571, 0.04735698467225418, 0.047463256423052165, 0.04767688097515158, 0.04773181623983162, 0.04777612761364132, 0.04778287047070561, 0.04780676507980197, 0.04785551783832407, 0.047845748126605255, 0.04782356089336289, 0.047872007655585434, 0.04781344084733188, 0.04777763825905776, 0.047697343160760214, 0.04760897914585145, 0.047501445063904905, 0.04739640569611986, 0.0472915960825375, 0.047164697426052025, 0.047028004285847164, 0.0469205965969744, 0.04675939560779038, 0.04659601706655234, 0.04641929623831401, 0.046235428536045654, 0.04601321486808834, 0.045819351378862574, 0.04562492051062756, 0.04541387104132962, 0.045196063327732613, 0.0450581033675748, 0.0448176681128019, 0.04451717175799856, 0.044284087383491, 0.04404759164113424, 0.043860483670658236, 0.043612582544479764, 0.043441857764261425, 0.04318786396413418, 0.0429403890380072, 0.042665384913119726, 0.04243489080364726, 0.04215417801239153, 0.04194013143179458, 0.04172854566066279, 0.04152827029879674, 0.04132369773246089, 0.04111727199252189, 0.04092657018174307, 0.040743291582332156, 0.040667510184586454, 0.040489578372430515, 0.04029374998364, 0.04015228270242428, 0.040025384678252465, 0.03995540692738902, 0.0398543353814258, 0.039759178240718375, 0.03969806722574128, 0.03965607281994243, 0.03963645410526521, 0.03963436274363043, 0.03963536620121778, 0.03967901408538159, 0.039744503820098996, 0.03991099478316695, 0.040013141601292705, 0.0400713982950524, 0.04024131862670414, 0.04043700019399451, 0.04069080062670934, 0.04093726334880083, 0.04124311326658883, 0.04154816567993172, 0.04188714592659655, 0.04216941313526355, 0.0425896322602319, 0.04307968961093357, 0.043557880974772624, 0.04407183317701994, 0.04456259842923457, 0.0451586717620381, 0.04587354967988588, 0.04653128892574053, 0.04723191253173613, 0.04791870127886449, 0.04871426364856923, 0.049582729439427646, 0.0504587210118498, 0.051380329888704876, 0.05239006980144774, 0.05340003972903363, 0.05444992218600407, 0.055562330820859596, 0.056725405580862365, 0.05784066540257824, 0.05911935501743796, 0.0604840331339837, 0.061852953128196254, 0.06327366758416293, 0.06481486460240798, 0.0663332811320003, 0.06789425677438692, 0.06953129788397153, 0.07122618571374091, 0.07297674509391656, 0.07478895892220726, 0.07664454734731453, 0.07857723905235205, 0.08056900267070202, 0.08259174915215019, 0.08470702172984403, 0.0868319210717381, 0.08907252413575126, 0.0913709573413088, 0.09378301583833176, 0.0961932417015765, 0.09868027524619338, 0.10121674367723123, 0.10381838441142748, 0.10644629099345485, 0.10918380424788952, 0.11206046202204958, 0.11491598796600341, 0.11784021752379527, 0.1207338656582936, 0.12380739114119561, 0.12688612636648416, 0.1300926752519536, 0.13335977973717067, 0.13675355986903134, 0.14013624642055264, 0.1436481736137708, 0.1471563622411279, 0.15073482771400712, 0.15434134934238272, 0.15806414157012544, 0.16188991972161615, 0.16574097478005892, 0.16966034022486087, 0.17355893595728678, 0.1776248053687876, 0.18181266502356558, 0.18599530642080325, 0.19024383891611982, 0.19454486951067923, 0.19892574163890253, 0.20331329880731241, 0.20782919428706895, 0.21240527212131333, 0.2170755192072037, 0.22176788071416012, 0.2265067211082293, 0.2313248825568384, 0.23620341322300123, 0.24115498374410307, 0.24615146385476327, 0.25118434607936424, 0.2563029134104412, 0.26147878368497746, 0.26674015719454963, 0.27202552992226886, 0.27729524584965304, 0.28270367272631686, 0.2881636285800832, 0.29367743001945296, 0.29923915562741477, 0.30487749850160206, 0.3105364695477238, 0.3162462760414298, 0.3219721359020218, 0.32778519072023676, 0.333675693998753, 0.33957641618926393, 0.34552358284594925, 0.3515291529875885, 0.3575643135521654, 0.36371635733448154, 0.36982882964841973, 0.3759868072418601, 0.3821754212068876, 0.38842062167966185, 0.3946088308146652, 0.40094360536861695, 0.40730936216301217, 0.4137366689596051, 0.4201582164969036, 0.4265762537708175, 0.43306167690818365, 0.4395732140486142, 0.44616205601578746, 0.45271632899532604, 0.4593148805468705, 0.4659173815204273, 0.4724474381103347, 0.4791084991932653, 0.48578486357882855, 0.49255650413274965, 0.49925065312236855, 0.5058393599493827, 0.5125814575140047, 0.5193303634999515, 0.5261792403834165, 0.5329277310585543, 0.5396937490434373, 0.5464589334633092, 0.553230817505918, 0.5599685331402765, 0.5667534883166875, 0.573441259223031, 0.5802355588935477, 0.5870209037309663, 0.5938565876234938, 0.6006143304577921, 0.6073328695065808, 0.6140772658139202, 0.6208090410677225, 0.6274565546549442, 0.6341681764156623, 0.640940137379685, 0.6475997712480952, 0.6542417230055496, 0.6608252243172222, 0.6674317611384938, 0.6739847495084039, 0.680543818169349, 0.6870736709875981, 0.6936096196958026, 0.7000728164103893, 0.7064660299815197, 0.7128707907110399, 0.7192392359558496, 0.7255857045865233, 0.7318755992415733, 0.7381130169970577, 0.7443241602797744, 0.7504920964477081, 0.7566336592029912, 0.7627086180960037, 0.7687371185328112, 0.7747175744578748, 0.7806484159512623, 0.786475951617025, 0.7923095148885564, 0.7981093939654733, 0.8038246182514761, 0.809481821001292, 0.8150927088826794, 0.82062823818567, 0.8260633966449435, 0.8314799144693099, 0.836830148507293, 0.8421755999846046, 0.8473821445520869, 0.8523975438842099, 0.8574862772993428, 0.8624988193361648, 0.867486818622851, 0.8723388431068045, 0.877035108215206, 0.8817463600792237, 0.8863759353064118, 0.8909781409421282, 0.8954360558977282, 0.899764319027382, 0.9040671951123938, 0.9082850609791001, 0.9124224929625665, 0.916467733096752, 0.9204366768289762, 0.9243063899256629, 0.9280884334797618, 0.9317376305691073, 0.9353473697258646, 0.9388930808079303, 0.9423133186113934, 0.9456414997279371, 0.9489159820173692, 0.9520528815302146, 0.9550820832789492, 0.9580358361769767, 0.9608946909888163, 0.9636370233745701, 0.9663064519095262, 0.9688567692188284, 0.9713318404405976, 0.9737065385893002, 0.975936269079348, 0.9781149938431811, 0.9801796039138602, 0.9821523627234191, 0.9840209936652132, 0.9857986417864586, 0.9874576680807862, 0.9890891402439207, 0.9905322274482947, 0.9918762608279648, 0.9930188953940011, 0.9941757325922261, 0.9953120551424045, 0.9962453055633371, 0.9970775628989141, 0.997698966169374, 0.9983420366971578, 0.9989083387859049, 0.999332052361184, 0.9996508218335429, 0.9998936795802732, 1.0, 0.9999519079966481, 0.9998603972101073, 0.9996639703216763, 0.9993840957681557, 0.9989770216916077, 0.9984367110100094, 0.9978300926937889, 0.997120597104755, 0.9963845192315978, 0.9954617824581523, 0.9944085758058708, 0.9932970305302357, 0.9920872124420993, 0.9907352909304128, 0.9893360257276105, 0.9879261988388403, 0.9863182778449239, 0.9846180130644222, 0.9827448045169541, 0.9808707982039172, 0.9789451221287991, 0.9768746395574461, 0.9747128493284544, 0.9724448365957646, 0.9701046281917313, 0.9676562827528237, 0.9651395706242947, 0.962533897585604, 0.9598586639765998, 0.9570762191724942, 0.9542275484629277, 0.9512748633040424, 0.9482407840857152, 0.9450793045871158, 0.9418911672058006, 0.9386792332637324, 0.9353229619696819, 0.9318915797728711, 0.9283156346152034, 0.924745785346846, 0.9210789733006052, 0.9173611890905956, 0.913569383888587, 0.9097835216567273, 0.9058390133717373, 0.901793525013258, 0.8977256823228852, 0.89359339375062, 0.889369391662489, 0.8851160695965132, 0.8807748702264052, 0.8764028891445014, 0.8719709382561346, 0.8675720916639984, 0.8630141197031672, 0.8583102204952124, 0.8536664913094725, 0.8489699200164489, 0.84433188310341, 0.839521398778511, 0.8346306473160521, 0.8297436717795286, 0.824815200491702, 0.8197970594319827, 0.8147959580958549, 0.8098433661527575, 0.8047526350732018, 0.7996303808518382, 0.7944489884233468, 0.7892705614764709, 0.784025876056282, 0.7787940073154938, 0.77353328065046, 0.7682507041817169, 0.7629369626046323, 0.7576338620132507, 0.7522710265271294, 0.7468902087743062, 0.7414067711327935, 0.7360050594102728, 0.730527418096411, 0.7250979399231785, 0.7196508661209906, 0.714277289205414, 0.7087910704388232, 0.7032731873096054, 0.6977804937012354, 0.6922835794117597, 0.6868596710908857, 0.6813496067862073, 0.6758026500659573, 0.670308436281323, 0.6647430321494193, 0.6592685718654615, 0.6537970263645273, 0.6483929402277545, 0.6429251706238047, 0.6374643193507777, 0.63202273148845, 0.6265955006062619, 0.6212256383355255, 0.6158257438701484, 0.610376042734989, 0.6050271514655617, 0.5996968094592531, 0.5943344475089799, 0.5890524563851763, 0.5838740779871301, 0.578623776210457, 0.5734019642482927, 0.5682331118139299, 0.563068340525291, 0.5579025215875807, 0.5528085477341371, 0.54774719228776, 0.5427691274575631, 0.5377701492011494, 0.5327395464216256, 0.5278276759112741, 0.5229520138229992, 0.5181660008391394, 0.5133600194277999, 0.5084874385685814, 0.5037818203112674, 0.49911443017884094, 0.4945260006142756, 0.48993490054802086, 0.4853496892040707, 0.4808545315007302, 0.4764041507382292, 0.4720180303718736, 0.4676585193493668, 0.46330134975480713, 0.45904716255052996, 0.45484127731926677, 0.45074218836603114, 0.4466289919826525, 0.44247663023840644, 0.4384850976070386, 0.43454382759710236, 0.43072175468473606, 0.4268757946488345, 0.4231235430900571, 0.4193876997408461, 0.41571171495921955, 0.4120225750131318, 0.40847549528643495, 0.4049815634957918, 0.4015469354691805, 0.39816907648070354, 0.394809391611602, 0.3915514823073043, 0.38842249415988495, 0.3852678675414804, 0.3821744911596253, 0.37907187989170743, 0.37610960621688516, 0.3732330052377429, 0.370381554988918, 0.3675895457760206, 0.3648153442188384, 0.36214768504661654, 0.3595945988577199, 0.3570344347991778, 0.354535246271288, 0.3520289549178394, 0.3496593853847109, 0.3473434644545616, 0.3450869591217272, 0.3428869329613464, 0.3407356611659225, 0.3386498012640175, 0.33666438596230214, 0.3346851443211883, 0.3327643899911965, 0.3309381117288517, 0.32912818445403463, 0.32730946205716077, 0.3256252453587469, 0.3239945782657789, 0.3223989771876393, 0.3208769623187371, 0.3194639766748005, 0.318037839498572, 0.3166660907077068, 0.3153348991828936, 0.31407119372788694, 0.3128327087265434, 0.31167420554389674, 0.31056417249177587, 0.3095620845645032, 0.30853992204572867, 0.30754978748010664, 0.30662941734601323, 0.30575619452439684, 0.3048901510552998, 0.30411357903777875, 0.30337937936918696, 0.3026870114109424, 0.30203589596700686, 0.3014071695409266, 0.30083898781794416, 0.3002699876168399, 0.2997827587242851, 0.29933045145081844, 0.29900918749840033, 0.29861344833113407, 0.2982489975610584, 0.2979311468185231, 0.297649368178121, 0.2973868390272295, 0.2971756630847588, 0.2968841103386724, 0.2967495581244375, 0.296638454681542, 0.2965454978028613, 0.29648157437906875, 0.2965549223422321, 0.2965212804301925, 0.2965158572160756, 0.2965241824795618, 0.2965725829076852, 0.29662865375568115, 0.29672444957983146, 0.29684028937511586, 0.2969803493222102, 0.29713250853454815, 0.29722108800102476, 0.2974168662969859, 0.2976232163694769, 0.29793097964732834, 0.2981456630760113, 0.29829642190484384, 0.298548232747265, 0.29880732412018424, 0.29917474562751784, 0.2994336399091313, 0.29961490190188117, 0.29990545848374967, 0.30019901586826614, 0.3004505583890729, 0.3007535996758308, 0.3010966940174109, 0.301390734460857, 0.3016845737990934, 0.3020347030365918, 0.30231830016638767, 0.30258407016436334, 0.30286948640500305, 0.303151696419422, 0.30344266305596324, 0.30371362975849225, 0.30396336072531593, 0.3042240328041852, 0.3044761062016053, 0.30458314238137035, 0.30483254185355674, 0.30506315763543146, 0.30527525814450457, 0.3054689944882637, 0.30577736624464447, 0.3059176120411076, 0.30593994577819844, 0.3060703815522661, 0.30618132584667845, 0.30634289269170606, 0.30640509108237474, 0.30648990494606837, 0.3065132281675464, 0.30652039235389933, 0.30642679249330007, 0.3064087139563298, 0.3063586534510704, 0.30629294797424317, 0.3062020357845829, 0.30614300271336803, 0.3059936063930562, 0.3057926904219339, 0.3056004565918772, 0.30538226558859954, 0.3051845898372433, 0.30490720991134285, 0.30458433950852665, 0.3042595430263022, 0.30390743782615937, 0.303582276050699, 0.3031671869017458, 0.30265088407965524, 0.3021932940476891, 0.30170426597992445, 0.3011863441096168, 0.3006339191896638, 0.30010214541830366, 0.2994800665040241, 0.29882664973603656, 0.29814694311982043, 0.29743742758917213, 0.2965778245408968, 0.2958228204437364, 0.2951867530172582, 0.2943377547072101, 0.29346145527437256, 0.2924242338592962, 0.291508231848712, 0.2906078746537189, 0.289612952707207, 0.2885857223922348, 0.2875914848752713, 0.2864917884789988, 0.2852804244132908, 0.28413440886207536, 0.2829547906001474, 0.2817967529041823, 0.28054430112381235, 0.2792782172356014, 0.2779651878351514, 0.27662370101384653, 0.2752380216856486, 0.27384137104354056, 0.2724256904682267, 0.2709689892385344, 0.2694838095028856, 0.2678660275268089, 0.2663375688863764, 0.26489265156363373, 0.26328290895365, 0.2616480816910924, 0.2599542829189855, 0.25827363797951913, 0.2565166520052864, 0.254789084981002, 0.2530328085181453, 0.25119132457630955, 0.249387403947303, 0.24768174371529578, 0.24580392633492232, 0.2439061389205773, 0.2418841321429959, 0.23995973268398887, 0.2379915239142859, 0.23601934504548858, 0.2340225948752275, 0.232098804662377, 0.2300438798757333, 0.227931132569957, 0.22584939177341484, 0.22374951926862316, 0.22157994816035373, 0.21945212242114123, 0.21738056511316894, 0.2152055190795037, 0.2130173424206487, 0.21074334800510894, 0.20853909731059111, 0.2064125004461138, 0.20416499325622445, 0.20190851532950793, 0.19964844608001125, 0.1973739243927271, 0.19504968588922186, 0.19276471431879114, 0.1904700233140273, 0.18820543653402377, 0.1858885218590117, 0.1835375649465452, 0.18121394818618541, 0.17888420322571008, 0.1764786508292184, 0.17414767341893347, 0.17179310327545358, 0.1694494773712446, 0.1670995043640536, 0.16478876893546957, 0.16242422547975027, 0.16002291103893912, 0.15766314225715866, 0.15530245651971283, 0.15293661991788504, 0.15057765312536717, 0.1482046407369666, 0.14585173886757863, 0.14350130590876164, 0.14122467349225534, 0.13887306497362276, 0.1365696734129806, 0.13423159473374557, 0.13190535373500623, 0.12955184580721513, 0.1272542886865371, 0.12501349046716737, 0.12273016327550992, 0.12046030131838982, 0.11815711341205742, 0.11592056740933122, 0.11359894826890679, 0.11139801292291174, 0.10920433396264002, 0.10703234646725376, 0.10485562500763221, 0.10276116296724822, 0.10060028413565432, 0.09845715201271422, 0.09633988464274483, 0.0942321606438993, 0.09217222342708369, 0.09009935917071482, 0.088047757501193, 0.08599140921215256, 0.08398584715010145, 0.08206294106570342, 0.08009001920514251, 0.07814144001178862, 0.07612582697667129, 0.07423712551549407, 0.07237262684600942, 0.07052199918219959, 0.06869211139010387, 0.06693050075790968, 0.06513795783207904, 0.06337572233755293, 0.06163282959180547, 0.0599155808108921, 0.05825797030036618, 0.056588051172919554, 0.05487042829511941, 0.05326572593153898, 0.05168444554678106, 0.050153201555197376, 0.04861705831972926, 0.04707601637301078, 0.0455968016656603, 0.04414261202538437, 0.04266955996158415, 0.041272269458023154, 0.04001338032639598, 0.03864964176252254, 0.037317278903419425, 0.035924634153111416, 0.03466535903418746, 0.03348857813211272, 0.0322727762246589, 0.031086156357937565, 0.029845161370128815, 0.028727051493890585, 0.02763304977550302, 0.02656370263370723, 0.025519473991285898, 0.024505965889416302, 0.023512410180129707, 0.022597366065869418, 0.021650119742196886, 0.02073243513008688, 0.019859598109668065, 0.01899800432589521, 0.01808239589422874, 0.01728971232020782, 0.01652087449665435, 0.015849137819784576, 0.015119481356393143, 0.01440793207614558, 0.013736157318448176, 0.013091341865235947, 0.012413146311815124, 0.011828696424411957, 0.011274539628955773, 0.01073416352598711, 0.010216877823654654, 0.009837333586400019, 0.009351526660735169, 0.008759413722197169, 0.008348170851204147, 0.007956491517771667, 0.007626252283979499, 0.007268856307130131, 0.006988411074854058, 0.00666814998202289, 0.006372449296798352, 0.006032717370054779, 0.0057923185595284135, 0.005627727788492302, 0.005416847762532158, 0.005227325173834028, 0.005050671322045411, 0.004902877139173722, 0.004745403969753928, 0.0046387009691752626, 0.004548340148400142, 0.004406265458268747, 0.004356310228617883, 0.004367537167716032, 0.004334833155119365, 0.004316900795840806, 0.004362926459824744, 0.004367220572562122, 0.004325409681644363, 0.00436974154182278, 0.004425468398398983, 0.004612283713170301, 0.00467493102855902, 0.004679332467141217, 0.004784969740646434, 0.00492211328104562, 0.005045926916373527, 0.00518058751404134, 0.005294161053437192, 0.0054525407937416484, 0.005620732124443875, 0.005792854043254232, 0.005971637293963971, 0.006266186448017292, 0.006443281953942513, 0.006522509744772688, 0.006735405026799888, 0.006951302069506403, 0.007326402635698442, 0.007527862080673867, 0.007628293202876419, 0.007864527442620185, 0.008102604249698393, 0.008391682315063272, 0.008626064505294809, 0.008957803283344825, 0.009186567339543303, 0.009422622418373737, 0.009685399544497285, 0.00992926245828958, 0.010107320878438549, 0.01036802451128678, 0.010627033600496815, 0.010972554099366734, 0.011215706782981066, 0.011395757159428428, 0.011650222308140624, 0.011901069261008862, 0.01229915742751907, 0.012522646978084707, 0.012637944360589194, 0.012881919065506259, 0.01312067607762853, 0.013494706196670894, 0.01370440337401631, 0.013895145744629876, 0.01410992780120646, 0.014322890014197669, 0.01464263467056428, 0.014835554997648595, 0.014999160635657437, 0.015198492320884952, 0.015395261434228596, 0.015599019794069618, 0.015786836806254086, 0.01604078046662947, 0.016210539233774798, 0.016378806899765265, 0.016601912797750883, 0.016757024875059034, 0.01686429620600534, 0.017022420675378475, 0.017174981203121314, 0.01729811166680718, 0.01744138196112124, 0.017610688642392625, 0.017733972382737724, 0.01785134928986019, 0.0180460370088048, 0.01814050088211273, 0.018181161569626708, 0.018278172392239608, 0.018369285288615683, 0.018595213110632954, 0.01865659718712113, 0.0187042994828794, 0.01877051776074213, 0.018835866288494024, 0.01884499335399083, 0.018913829792204486, 0.01904243933951551, 0.01909240626775364, 0.01914100681851633, 0.019169704682412334, 0.019217107772791554, 0.019352764262763403, 0.01938275956660904, 0.019415146539355964, 0.01944938779083687, 0.01948507450140083, 0.01960533488669535, 0.019632589429059946, 0.01966539295750518, 0.019687421189719043, 0.019731409957892358, 0.019788906885857927, 0.01983760799421165, 0.019889812606495194, 0.019856857032883174, 0.019927277881933318, 0.020144990753336922, 0.020194938873318403, 0.02025373712583204, 0.02024806583163533, 0.02033294010916864, 0.020416736833485334, 0.020511139263930226, 0.02061059412993643, 0.020760086780240404, 0.020866052359276768, 0.02091379736951046, 0.021047776460337134, 0.02118820697926745, 0.021468998604144855, 0.021608361432465265, 0.02173574146928284, 0.021911919567464282, 0.022102896239837008, 0.022314125430240715, 0.022534819789942942, 0.02275324924205398, 0.02300857607049404, 0.02327962592517662, 0.023522675346899086, 0.023832575986135137, 0.02421490125241602, 0.024548695034520843, 0.024902747383433385, 0.025233217791004667, 0.02563485173669005, 0.026076629566767005, 0.026515116287582463, 0.02697586333820441, 0.02745174898917521, 0.02796010287178094, 0.028557548572943597, 0.02910626143304985, 0.02968406527806683, 0.0302625049862776, 0.03090283660629788, 0.03158190588551534, 0.03227814437118488, 0.033004500661214596, 0.03372241437827149, 0.03451559912168158, 0.03528364464690148, 0.03614386823925815, 0.037032406921643155, 0.038026151331841174, 0.038965552099644876, 0.039894224901722675, 0.04091241573767571, 0.041965112150990566, 0.04311314156693367, 0.044229836966761554, 0.04538690261581118, 0.04658462501796605, 0.047823322106973765, 0.049056414856109495, 0.05038405475227681, 0.051761568464885784, 0.053167566876301336, 0.05461513385420238, 0.056110121731467365, 0.057642064031084156, 0.05929854395816968, 0.0609082591732402, 0.06256731124170181, 0.06415304804689688, 0.06592595370331372, 0.06777242095130166, 0.0696269695293458, 0.07152755888614157, 0.07352957831741856, 0.07551722591136581, 0.07750889529276658, 0.07960447673052405, 0.08174861291886071, 0.08393401533397259, 0.0861778172997127, 0.0884842796978177, 0.09082619573510747, 0.09321945590548693, 0.09566700612077328, 0.09816362377824163, 0.10066055595184788, 0.10326893485121129, 0.10592735111601187, 0.10862342020969097, 0.11138544072135946, 0.11422719200419716, 0.1170882588133343, 0.1200030465361701, 0.12298739692544614, 0.12600821922123395, 0.12914150373830563, 0.13226528259616882, 0.13544735551396397, 0.1386507308996345, 0.1419525677649954, 0.14527801344673255, 0.14869350624499478, 0.15216196095492288, 0.1557356668671958, 0.15930386439646513, 0.16288656931361442, 0.16657208965324835, 0.17033419100779457, 0.17412295856457916, 0.17796608150844886, 0.18191542194239985, 0.18585982781957547, 0.18975638769014258, 0.19382611919877055, 0.19794502958339955, 0.2021028845071857, 0.2063219759840659, 0.2106708353168842, 0.21497768233438214, 0.21933808029932725, 0.22375130878157287, 0.22821666625835785, 0.23265004493499344, 0.2372281602647176, 0.24185169497651518, 0.24654933451600927, 0.2512600299617925, 0.2559654084342825, 0.2607758931762532, 0.2656293456362867, 0.27061169698384185, 0.2755398317871246, 0.28040312636857684, 0.2854389255485198, 0.29051366293602626, 0.29569763747062744, 0.3008409892401907, 0.3059302210326783, 0.3111695132580204, 0.31644386714848993, 0.3217635443882873, 0.32710610113339345, 0.3326034219839769, 0.33799997315949865, 0.34343696161949866, 0.3488945094818036, 0.35440985428270866, 0.359850414993234, 0.36544770197435306, 0.37107094714899386, 0.3767901502238876, 0.3824551606670147, 0.3880756611142292, 0.3938056663854369, 0.3995576561899244, 0.40531537459324224, 0.41111139400720437, 0.41694731699596077, 0.42277810429289425, 0.4286276550652228, 0.4344402274482522, 0.4403311984080267, 0.4462451851582596, 0.45215935058316387, 0.4580852785629329, 0.46408202088749373, 0.47002111274300495, 0.4758864129516946, 0.4818593078199649, 0.48783653332146715, 0.49392936356927597, 0.499898535747031, 0.5057322724705852, 0.5117335456878372, 0.5177309414548549, 0.5237342358800113, 0.529720509643264, 0.535680408479213, 0.5416572896497506, 0.5476254421104131, 0.5536178232341159, 0.5595613687812979, 0.5655211658544285, 0.5714403959113182, 0.5773484904432411, 0.5831447695239954, 0.5890382843075191, 0.594886841264825, 0.6007395595573115, 0.6065678377759338, 0.612376147382662, 0.6181525689313515, 0.6239753491075788, 0.6296882459199254, 0.6353764960993328, 0.6409862419288206, 0.6466266622185857, 0.6521640512370599, 0.6577468654683445, 0.6632906252037494, 0.6689093350481273, 0.6743582949809235, 0.6797018963897757, 0.6850879550574314, 0.6904314312828684, 0.6957598146479801, 0.701010918508856, 0.7062278549230829, 0.7113869785272032, 0.7164991668235914, 0.7214768717700253, 0.7265015357507518, 0.7314908166384317, 0.7363996210162983, 0.7412518058729374, 0.7460698080598347, 0.7508026869760688, 0.7553832696776053, 0.7600098463625216, 0.7645701721284308, 0.7690976405291159, 0.7735196100385695, 0.7778077305681819, 0.7821051510429836, 0.7863307179610148, 0.7905282793128131, 0.7946030488795889, 0.7985885711863224, 0.8025226207920512, 0.8063825830173876, 0.8101858165415616, 0.8138926110737614, 0.8175079871685951, 0.8210641337867604, 0.8245414970670929, 0.8279600179509854, 0.8312744372802571, 0.8345424020125972, 0.8376907828032786, 0.8407586240606565, 0.8437264048285849, 0.8466317229281782, 0.8493606128776825, 0.8521061580692975, 0.8547595604120126, 0.85735197489412, 0.859816697862508, 0.8621539980109008, 0.8644409648946246, 0.866633919275945, 0.8687534926636769, 0.8707550825946688, 0.8726161474397619, 0.8744360025426516, 0.8761586967712442, 0.8777997979693563, 0.8793259367587304, 0.8808467155498514, 0.8821678296527227, 0.8833968941351921, 0.8843869074579257, 0.8854473859082752, 0.8864961075254729, 0.8873394856676555, 0.888085789034908, 0.8887737026469773, 0.889319700963394, 0.8897775175675943, 0.8901299214928097, 0.890385642187114, 0.8904294700908705, 0.8905048917157248, 0.890541085271388, 0.8904001072529336, 0.8901596235849452, 0.8897440645182338, 0.8893142521169964, 0.8887913048896904, 0.888153780443159, 0.8874146966468641, 0.886647612359801, 0.8856978557795616, 0.8845532126215279, 0.8834242653529767, 0.8821938634197541, 0.8809462840184257, 0.8795049533787364, 0.8778806709594085, 0.8762620008840483, 0.8745442757803618, 0.8728118376051321, 0.8708881847663009, 0.8687972301820177, 0.8666999056294961, 0.8645070481957295, 0.8622951693944751, 0.8599044054982905, 0.857422437714402, 0.8548550813347556, 0.8521995977935798, 0.8494694551415516, 0.8466374313327742, 0.8436751763539917, 0.8406774323829537, 0.8375923596141037, 0.8343870532811614, 0.831134575827913, 0.8278636411608429, 0.824431416942896, 0.8209193350674263, 0.8173281136969037, 0.8136585267960557, 0.8098305860528288, 0.8060170132343383, 0.8020918778366429, 0.7981233136152099, 0.7940758980340109, 0.7899409906873012, 0.7857424906063317, 0.781560979439596, 0.7772041438609493, 0.7727815391177411, 0.7682731880453402, 0.7637243690128732, 0.7591635379119998, 0.7544810200698844, 0.7497396892947968, 0.744898655057514, 0.7400475059690776, 0.7350779183063402, 0.7301187490368845, 0.7251004655400226, 0.7200353641531669, 0.7149030934563408, 0.7096916967873731, 0.7044582694316057, 0.6991736219073716, 0.693881294258928, 0.6884943783073918, 0.6831108735521695, 0.6776323795206822, 0.6721157817237337, 0.6665699308025465, 0.6609792852237416, 0.655236924625509, 0.6495934323471299, 0.6439112607747485, 0.6382186486298217, 0.6324622561098073, 0.6266879731016339, 0.620869838600045, 0.6150249937607721, 0.6090820405607762, 0.6031977800502701, 0.5972874670863669, 0.5913532530393864, 0.5853972076206965, 0.5794526096146956, 0.5734548665328502, 0.567484551580305, 0.5614545322101734, 0.5554156784777625, 0.5493222590750843, 0.5432752760233032, 0.5372413375480789, 0.5311777384164188, 0.5251107556469811, 0.5189844578053809, 0.5129222181002074, 0.5069619046089648, 0.5008836502546495, 0.49481257793443234, 0.4887704583545886, 0.4827139119928981, 0.47657737409837597, 0.47055575334424393, 0.46454209493637205, 0.4585250914775998, 0.4525341393953041, 0.44655024476181887, 0.4405861908397392, 0.43463745524228736, 0.42877866736716164, 0.42285619499828014, 0.4168536169947653, 0.4109935755583521, 0.40515369174881194, 0.399330549686479, 0.3935369512676008, 0.38776836895243927, 0.382026411470511, 0.3763126161321801, 0.3706467024386433, 0.36499127583315844, 0.35934580622641604, 0.3537613369010713, 0.3482112428667404, 0.34270723055496943, 0.33722835244715244, 0.33176465472260314, 0.32636707551290717, 0.3210088833084471, 0.31570949746140964, 0.31043123101977427, 0.30517587529464374, 0.29998865067689695, 0.2948457409007286, 0.28977941738016677, 0.2847241013898081, 0.27967076180768435, 0.2747197875890426, 0.2698162867282099, 0.2649351570177178, 0.260132742666462, 0.25545727891105996, 0.250743477494032, 0.2460847652082544, 0.24145531778900145, 0.23691082901580096, 0.23235817470573467, 0.2279308849191612, 0.22355543750053553, 0.2192275656279214, 0.2149592188318857, 0.21083886478221933, 0.20666769281949582, 0.20255736561362325, 0.19847124488556436, 0.19448682788919217, 0.19055826248024127, 0.18669132080146297, 0.18288312900193585, 0.17918603543725453, 0.17548935842701294, 0.17185752619861971, 0.1682847182574401, 0.1647737697895362, 0.1612149457366067, 0.15784084814277108, 0.15454525448820738, 0.15127896078135256, 0.14807029926494353, 0.14490393336322832, 0.14181336539843362, 0.13876985277129122, 0.13579582097602264, 0.13287912190577889, 0.1300043170961786, 0.12720480000800122, 0.12451167252448533, 0.12181974158012658, 0.1191876413833299, 0.11660714673548332, 0.11409447117650537, 0.11169989601650625, 0.10929554293419727, 0.10695191762162364, 0.10466551191789877, 0.10244100856880718, 0.10023800234775161, 0.09813332712721048, 0.09608307187479073, 0.09405290772041022, 0.09211443958984081, 0.0902114684898542, 0.08837702635071876, 0.08659233338539712, 0.08491192750266155, 0.08321912653685713, 0.08154705954153373, 0.07996142705988274, 0.07842441947730006, 0.07691722778212433, 0.07547806641710861, 0.07417076693266199, 0.07281189995370825, 0.07150266155567221, 0.07008276197436981, 0.06888913332349851, 0.0678524667021798, 0.06671790639231248, 0.06562728151987185, 0.06447786413819309, 0.06348480721573546, 0.0625659569383111, 0.0616379642238012, 0.06074678362029188, 0.05984219903796737, 0.05902881548992546, 0.05824730596647399, 0.05749728572325466, 0.05677829370049185, 0.056178435317812275, 0.055508641888181644, 0.05475316463550613, 0.054165592995516536, 0.053602751141359276, 0.05309034658543388, 0.05257250012971164, 0.052037810088653304, 0.05157417586330274, 0.05113144256324139, 0.05074818999618662, 0.0503406750368278, 0.05004573122013065, 0.049668319937585165, 0.04931531544907736, 0.048961492289906386, 0.04865506621897841, 0.048314558717777366, 0.04804950650464177, 0.04779696486030818, 0.04760563712330537, 0.04736935554874361, 0.047143232988035084, 0.04693155095288447, 0.04662051545110746, 0.04644178963701341, 0.046264765193117535, 0.046110078163131785, 0.04593308027431757, 0.045778916200222265, 0.04560263281202079, 0.0454282508955078, 0.04528099865381758, 0.04510459447215076, 0.04485602164434346, 0.04468943335585348, 0.04451747202114874, 0.044391848667467725, 0.0442012176424941, 0.04399628824361902, 0.04379825828022279, 0.04359384055512155, 0.04333265142325737, 0.04311917333614346, 0.04293049621131794, 0.04268858757669522, 0.04243614502208984, 0.04214891839118329, 0.041876019709697454, 0.04169060438580082, 0.04137590896867252, 0.04105158399604137, 0.040640623712041725, 0.040302479082737014, 0.040009093770820355, 0.039626894702150875, 0.03922934028141066, 0.038731978877663414, 0.038311236516999844, 0.037862345466804836, 0.03739621659080946, 0.036906477631693906, 0.03636686853024325, 0.035832605502666565, 0.03538732342704049, 0.03478706027144074, 0.034167369586658634, 0.033506348106808144, 0.032847380501916316, 0.032081498490362445, 0.031385448577372035, 0.03065998282660539, 0.029970391257450588, 0.02917816289677652, 0.028282200091429045, 0.02744829041700678, 0.026583471641792072, 0.02576092570072988, 0.024825581546239497, 0.023783052763913397, 0.022804676793765143, 0.021794422609351768, 0.02075252031051058, 0.019679160786278828, 0.018608391415786966, 0.017468276695258567, 0.016298999517645203, 0.015152513174129186, 0.013917782883756292, 0.012562469985384732, 0.01128559289572683, 0.009975695618848271, 0.008729581424063425, 0.007342459077340674, 0.005902614647020349, 0.004464976306579306, 0.0029982882840361162, 0.0015284751576572792, 0.0