0.042257916599553504, 0.04195527105656529, 0.041538379812085434, 0.04107432243009746, 0.040682027265316105, 0.040293423409513, 0.039982281806757704, 0.039590032704125255, 0.03921064199957549, 0.03882942142266532, 0.03845320814534865, 0.03801338627012996, 0.037653667648527, 0.037214070969706, 0.03686310188909635, 0.03650723913964951, 0.036215131395336365, 0.03584314219154737, 0.03548187083927098, 0.03511072554175435, 0.03474121289059834, 0.034416939925684675, 0.03404510883731055, 0.03355126872853198, 0.03320314031968767, 0.03285137487746983, 0.03255978408611659, 0.03219504129325821, 0.03180644802778424, 0.031449038288705766, 0.031092282355618773, 0.030823707369415723, 0.03045796871930311, 0.02996757022337484, 0.029630358797762858, 0.02929108162105062, 0.029037672975272873, 0.0286851453818538, 0.028358230315062627, 0.02801200838235387, 0.027671112294699592, 0.027222060839119915, 0.026905108480194964, 0.026621764630536424, 0.02629710752686292, 0.025973786987874878, 0.025660131079480716, 0.02533917569748699, 0.025020669740832346, 0.02470471840655427, 0.02439141449391188, 0.024054981921200966, 0.02375047819831071, 0.023534659312526036, 0.023222214837207253, 0.02291658076115612, 0.022614028905037418, 0.02232099881621473, 0.022065613832790185, 0.021778843360415905, 0.02149865549035308, 0.021092053020795906, 0.02084042803241605, 0.020646515518580988, 0.02038393558446264, 0.020124091865630373, 0.01987681620316297, 0.019621615971315995, 0.019300584128591796, 0.019061527784411666, 0.01882230430762244, 0.01871118585433534, 0.01845721465153247, 0.018118109232780264, 0.01789258290313547, 0.017669258548511334, 0.017553478699366593, 0.01732213139842096, 0.017067359346145682, 0.016857266326630153, 0.01665308516589205, 0.01642066882754863, 0.01623201301029353, 0.015982198173535102, 0.015808848472815346, 0.01563566991234974, 0.015531203390678549, 0.015351704282252503, 0.015182816076232918, 0.015014150875308422, 0.014851378332051112, 0.014607137896115037, 0.01446693101793071, 0.01435658577537901, 0.014214898391638716, 0.014076848708036872, 0.013941097258749275, 0.01381132435133558, 0.013800577700029102, 0.013665061169328755, 0.013540643241402082, 0.013366759231574007, 0.013269889027410706, 0.013185196287881748, 0.013098904703430626, 0.013018639038636719, 0.012929791268654263, 0.012863241883250725, 0.012738725390099894, 0.012690359683104745, 0.012643695493618877, 0.012649419888934853, 0.01260151834394839, 0.012640500944908178, 0.012594538778561256, 0.012559190007075331, 0.012427141434028606, 0.012424638591577749, 0.012526864501943255, 0.012517741321945141, 0.012518051443702733, 0.012483677600155186, 0.012506987806181572, 0.012448746402629217, 0.012494565385965248, 0.012541279598774891, 0.012712453331494029, 0.012747558448238473, 0.012676055061853387, 0.012744890528078886, 0.012816032082922016, 0.012943369007018354, 0.013013981605365803, 0.013107523540705924, 0.013189567394243044, 0.013279164696129877, 0.013292088481370049, 0.013406869336332285, 0.013674270228784043, 0.013775222848626577, 0.01388792786335275, 0.013866125205802165, 0.014018389761029731, 0.014301372618144167, 0.01444075712819738, 0.014589968438342945, 0.014759742760253587, 0.014925513157366817, 0.015096974019746592, 0.015280509625035557, 0.015471868163388858, 0.015610902821602093, 0.015824460956660378, 0.01595914050024179, 0.01619045501106273, 0.01642115382514018, 0.016718351357246693, 0.016941893664724105, 0.017241895902786495, 0.01746717607379318, 0.01770183910232367, 0.017849963840902996, 0.018113798027556374, 0.018439922927171927, 0.018701542918273497, 0.018969677093906127, 0.019185923728869663, 0.01947379523318104, 0.01972389727277191, 0.020022435431676915, 0.020321875194429233, 0.02071001401640647, 0.021001724996722426, 0.021360384949654688, 0.021658453252068638, 0.021966285721793412, 0.02216671131698089, 0.02250643781160306, 0.02279549583298304, 0.023144209344629102, 0.023491719804379772, 0.023992223258220417, 0.024319812799530518, 0.024632288066654264, 0.024980366946495847, 0.025334634030530163, 0.025647743613137923, 0.02601892192651838, 0.02646507568164169, 0.026831576027008246, 0.027204427879160255, 0.02746667537562137, 0.027865217194585106, 0.02828459437410147, 0.0286771970565916, 0.029070210837642958, 0.029510684583198873, 0.029899101441559408, 0.030324933768006476, 0.030715716454076357, 0.031111306248810092, 0.031490160729108214, 0.0318964722350299, 0.03228233152092774, 0.032695621261317025, 0.03310937084486859, 0.03346538053685784, 0.03388733669479635, 0.03436457701172032, 0.03477380159783086, 0.03511790109763622, 0.03553759662317324, 0.03595435470896368, 0.03636691814329598, 0.036779018283295835, 0.037208374233675054, 0.03761394455559882, 0.038018812026184415, 0.038398684082783296, 0.038805038759245944, 0.03933356190542799, 0.039719728526330225, 0.04011075244025155, 0.04049757460357089, 0.0408964945450933, 0.04126968542379948, 0.04167491541178293, 0.0420791039995615, 0.04239143506198087, 0.04280406721994982, 0.04321778717228535, 0.04361588891211694, 0.04400833126935916, 0.044511746327255394, 0.04487891965029472, 0.045225001572524084, 0.04559729963656065, 0.04596833149963152, 0.04626974681730376, 0.04664545025323455, 0.047035788464172654, 0.04739627094575532, 0.04775189045732477, 0.048162388591988625, 0.0485005475983495, 0.04883054324351295, 0.049165561228511054, 0.04949744939518749, 0.04983711312646002, 0.05016012596571635, 0.050476296868238554, 0.050792101340687276, 0.05110335785885677, 0.05127562943559642, 0.051593880490386684, 0.05188792421810328, 0.05218266808491612, 0.05246547011411057, 0.052804930060323635, 0.05305732864189261, 0.05327275007677899, 0.05351637993665335, 0.053751787401048925, 0.05395969903657394, 0.05418143648547669, 0.054494315040897696, 0.05468544335386233, 0.05487344532593085, 0.05504306321754749, 0.0552245788652638, 0.0553662656552972, 0.05553987565069258, 0.05570489376765279, 0.05591134431790499, 0.05605261396904679, 0.056058576324282405, 0.05620366968305785, 0.056334560779412665, 0.05648421380083675, 0.0565844491975406, 0.05676608052645536, 0.05683336227623857, 0.056895337907306005, 0.05686569160486542, 0.05692596750662908, 0.05693878570713632, 0.05697996084371993, 0.05700762207501127, 0.05710462063107653, 0.057096056758175265, 0.0570748605612563, 0.05705093838646892, 0.057018190863237415, 0.056908448454085846, 0.0568657818680436, 0.05680483302254975, 0.05673623877025204, 0.05665454583893509, 0.05656326365251365, 0.05645575392617798, 0.05646855838663713, 0.05632001612898242, 0.05616695541400761, 0.056011634609711924, 0.055846319932170096, 0.05568862135787855, 0.055506920159980565, 0.05531781581501677, 0.055025319434451936, 0.054831638295654316, 0.0546736411175049, 0.05444515816630237, 0.05420576801347399, 0.05386971720764093, 0.053619068769364835, 0.05348823065607881, 0.053189182655115914, 0.052883046279290774, 0.052451275771102625, 0.052144251727281155, 0.05183335395809305, 0.05149512034625068, 0.05114346296252614, 0.05077392200116554, 0.0503971576647049, 0.05004492333253823, 0.049638501760801444, 0.049222141126579674, 0.04880711790613314, 0.04836935075298228, 0.04803856385198758, 0.0475672281408032, 0.04709287299143646, 0.04660157987142266, 0.04611998619121893, 0.04555772740249295, 0.0450723661026439, 0.044575554842158124, 0.044146724361880066, 0.04361771862462544, 0.043156758288408065, 0.04260535275623132, 0.042051082985822476, 0.04139288755154431, 0.040843107519359066, 0.0403165840778229, 0.039741457850908, 0.03915816970663816, 0.03872513071724779, 0.03810561840794264, 0.03736257496531591, 0.03675945822242222, 0.03614812908899572, 0.03555624281785056, 0.03492557899356492, 0.03441328759294135, 0.03375476519419833, 0.033097224674070946, 0.03241874568041525, 0.03176324857171838, 0.031232946602418703, 0.030556029233267317, 0.029883249014781774, 0.029152019865236058, 0.02849195812780029, 0.02783934179632838, 0.027173410324100276, 0.02650557109121771, 0.02595211924566916, 0.025265628463311592, 0.02450619996658871, 0.023837982020227428, 0.023168596147802083, 0.022515947185268823, 0.021842413520517922, 0.02133085716154783, 0.02063774464697134, 0.01995436897837103, 0.019278038118547405, 0.018611313742917444, 0.017937044539434163, 0.017285638156362824, 0.01663951384297709, 0.016000149662882296, 0.015364067395036847, 0.01481887589480871, 0.014182541272511619, 0.013556526652150389, 0.01287734469236121, 0.012278699009286954, 0.011732719187963347, 0.011140154659142946, 0.010556870281576817, 0.010079923842517161, 0.009503279333106083, 0.008985460289352366, 0.008433170833506568, 0.007897646352570611, 0.007302339146279714, 0.0068083342438564655, 0.006378843546186959, 0.005900897825218204, 0.005438036436564116, 0.004951542619409022, 0.0045240403733556945, 0.004247244943296987, 0.0038296299661673004, 0.00343423925908276, 0.0029975446185012545, 0.002653216721862505, 0.002410530699872053, 0.002091176876468228, 0.0017464824975687262, 0.0014793326235880968, 0.001232291357273248, 0.0010671585276105203, 0.0008537703131657785, 0.0006005654219460642, 0.00044500111387519794, 0.0003107098342796903, 0.00025008062778948453, 0.0001538174676614108, 9.668051808768816e-05, 5.143363374308292e-05, 3.367088984652456e-05, 0.0, 4.3500962382490316e-05, 0.00024704618580379006, 0.0003261238235044281, 0.00044007398581721315, 0.0005691284623450973, 0.00075427450422186, 0.0009401139482574897, 0.0011954902605479398, 0.0014823596187989172, 0.001875562263788968, 0.00221753429306796, 0.002557937549521144, 0.0029792014075840064, 0.0034354943234159896, 0.0038367364073764584, 0.004375826148171232, 0.005020552983911512, 0.0056140533222834065, 0.006245384842384605, 0.006894015786919994, 0.0076051098625347716, 0.00835755044026332, 0.009145135376237599, 0.009972341173015582, 0.010817153855667195, 0.011728284355266561, 0.012773297625101944, 0.01375362769188118, 0.01478084289447399, 0.01574983082133294, 0.016883967845606102, 0.018199686109784945, 0.019398952393446304, 0.020648926335758176, 0.021931533811379467, 0.02328436952676784, 0.024563457127242873, 0.02603006134204571, 0.0275390627981845, 0.02911908966737297, 0.030712784664033814, 0.032371397021523765, 0.03405780998095421, 0.035793689648175024, 0.03756010368045551, 0.039398733164780465, 0.04123535205404773, 0.04318049265220692, 0.045173522890849686, 0.04720726844054444, 0.04929973466016744, 0.051479282260526026, 0.05366761034788284, 0.05590934373309841, 0.05818377614945895, 0.06053586305752752, 0.06299758181575238, 0.06544905894441906, 0.06795755201062416, 0.07047445305041804, 0.0731027575910402, 0.07581413867116671, 0.07854706192050348, 0.08133621814868117, 0.08426082180474075, 0.08715250463971452, 0.08995463691260906, 0.09298620422673386, 0.09606892766050597, 0.09931182089285284, 0.10248527571393426, 0.1056484056453026, 0.1089485955075834, 0.11230331444186363, 0.11578875995293941, 0.11924361120943774, 0.12270775257661048, 0.12628723071981848, 0.12992235373373165, 0.13354846917026733, 0.13730301316399685, 0.14116120886925396, 0.14501353983685902, 0.14892153392108295, 0.15293032083254834, 0.15694353544779466, 0.16089170515978915, 0.16503546764476068, 0.16922905873917243, 0.17353438429970602, 0.1778212434479459, 0.1821043732926864, 0.18650720245014865, 0.1909606210499958, 0.19544860789058133, 0.20000559170141316, 0.2046027559938785, 0.20926077635616713, 0.2139681652516191, 0.21876208039778514, 0.22356339305991946, 0.2285112557512973, 0.23340239422097975, 0.2383490312880143, 0.24331105975591197, 0.24836971493771487, 0.2534133106641411, 0.25857850951334355, 0.2637880796282428, 0.26909186709847016, 0.2743830294885577, 0.27963156653216237, 0.2850256802029698, 0.290459452106006, 0.2959247146210847, 0.30143847637522186, 0.307084662216595, 0.31266368758995716, 0.3182860613821395, 0.32394415832527396, 0.3296505941343175, 0.33527379445417144, 0.3410739090659368, 0.34690467184186086, 0.352790303456521, 0.3586791190468134, 0.3646431800567602, 0.3705891669240209, 0.37656808581930085, 0.38250459135461307, 0.38855575267189085, 0.39469242991070713, 0.4007870348573687, 0.40690976254811057, 0.41303691313360924, 0.4192155152528178, 0.42537893325540693, 0.4316087255996795, 0.43785807386485714, 0.44407297833334464, 0.4503661129787835, 0.4567657357273388, 0.46307554334075074, 0.46940395149510206, 0.47573667800036806, 0.4820998706022437, 0.48837023845011246, 0.49477336845651476, 0.501181889209976, 0.507713393041604, 0.5141165125589202, 0.5204768316915446, 0.5269061190093323, 0.5333397027387821, 0.5397861366665176, 0.5462236342771292, 0.5525622742023866, 0.5590138379447234, 0.565458539016532, 0.5718522453957887, 0.578287141298799, 0.584715774030343, 0.5911273980365622, 0.5975271895245218, 0.6040130267428422, 0.6103744806768439, 0.6165914975857094, 0.6229510038788135, 0.6292907485967146, 0.6357297330512826, 0.6420129525207542, 0.6482309406280526, 0.654488393697198, 0.660724272905852, 0.6668645043264607, 0.6730623745363838, 0.679300006377183, 0.6854288367203542, 0.6915301782329126, 0.6975799113560287, 0.7036246635340786, 0.7095650941720435, 0.7155511295881065, 0.7214973833007073, 0.7274273634100321, 0.7332887091785323, 0.7391108228138878, 0.74488913064369, 0.7506243775580245, 0.7563347532278575, 0.7619777962527755, 0.7674459131954998, 0.7730126247820945, 0.778638387422892, 0.7840788587833775, 0.7894692691948592, 0.7947289409164693, 0.8000248013965593, 0.8052310551986406, 0.8104122138942524, 0.8155311252822938, 0.8205677532672009, 0.8255626211509753, 0.8305825186050043, 0.8354343190066893, 0.8402243029955564, 0.844902458235438, 0.849570394876886, 0.8541386247122591, 0.8586714241391226, 0.8631314518014698, 0.8675664017720295, 0.8718723528476667, 0.8761235652126323, 0.8802809723653015, 0.8843643638386511, 0.8883530008600904, 0.8922868254013259, 0.8961465013412359, 0.8999206688593167, 0.9036140349777808, 0.9071075811331399, 0.9106511644780234, 0.9141527689888808, 0.917509288272656, 0.9207779580941394, 0.924018007627656, 0.9271016963103024, 0.9300651964375184, 0.9329795830058919, 0.9358036815788973, 0.9385674821406342, 0.9412049886078538, 0.9437518287198552, 0.946207089554424, 0.9485699081960897, 0.9508039151236594, 0.952983946475467, 0.9551302615329065, 0.957108438775937, 0.9589926250689846, 0.9606946635879084, 0.9623993166878007, 0.9639557700623756, 0.9654637063221592, 0.966867697396685, 0.9682036490279476, 0.9693962443926422, 0.9704812982277768, 0.9714724588004036, 0.9723619803861254, 0.9731772883930934, 0.9738599095757464, 0.9744988474642249, 0.9749735549009604, 0.9753506904548829, 0.9756166734843957, 0.9757984363181825, 0.9759400118172953, 0.9759139570807288, 0.9757907590659277, 0.9754776526397533, 0.9751699935101992, 0.9747164052468043, 0.9742066582014721, 0.9735914824043972, 0.9729766869591211, 0.9721396191815855, 0.9712342897190339, 0.9701986668714183, 0.9690670641806258, 0.9676970221035034, 0.9663908227068739, 0.9651143815076318, 0.9635836545405004, 0.9619584018921709, 0.960212771194141, 0.9584018442021344, 0.9564806783512345, 0.9544806705372784, 0.952385135652263, 0.9500945514404275, 0.9478226911941655, 0.9455778533445688, 0.9430935499216674, 0.9405203434678427, 0.9378538008610673, 0.9351047176233845, 0.9321515512406243, 0.9292423876827158, 0.9262403284027222, 0.9231987790090376, 0.9200093894756567, 0.9167284124916092, 0.9133706863717748, 0.9099296649363767, 0.9063968099946512, 0.9027939027259494, 0.8991849847259923, 0.895413225445247, 0.8915677896259332, 0.887549133223388, 0.8835710572646084, 0.8796306198819246, 0.8754855021245669, 0.8712730376772085, 0.8668775534582678, 0.8625472585013414, 0.8582035858775113, 0.8537246847886933, 0.849181176026581, 0.8445533604284406, 0.8398872463352626, 0.8351480302706887, 0.8303613124897476, 0.8255152582928802, 0.8207084700428063, 0.8157363789221009, 0.8105795192251991, 0.8055273979205704, 0.8004204047290939, 0.7952719554410648, 0.7900600389287812, 0.7848355813050608, 0.7795248344880721, 0.7741716715453402, 0.7687404380444025, 0.7633117049432938, 0.7579367931667935, 0.7524182350085361, 0.7468687068525343, 0.7411567406821634, 0.7355652640646905, 0.7300858244861839, 0.7244080152632469, 0.7187079977707486, 0.7128768709005333, 0.7071494017784639, 0.7013660812101591, 0.6955943119439368, 0.6897998415510145, 0.6840059420311695, 0.6781701295082065, 0.6722757410430426, 0.6664174640724785, 0.660545564639456, 0.6546670794549075, 0.6487738163956008, 0.6428703300316545, 0.6369654494688607, 0.6310572600599299, 0.6252268416243577, 0.6193076487398783, 0.613319178459638, 0.6074240858550235, 0.6015337285181057, 0.5957452915782143, 0.5898578120167657, 0.5838775274888467, 0.5780356486212056, 0.5722051515557183, 0.5663976838640513, 0.560594519002322, 0.5549172435949203, 0.5491373191656799, 0.5433844699423556, 0.5375479561977219, 0.5318657506861976, 0.5263135635304845, 0.5206664521580959, 0.5150523655548179, 0.509325136321475, 0.5037984468296255, 0.49833170414921135, 0.49285839853096747, 0.4874188618374994, 0.481979283583392, 0.4766169479433314, 0.4713431439866942, 0.4660497486079298, 0.46079967730670324, 0.4555246969657436, 0.45037381528973003, 0.4452531331009155, 0.4401918862188984, 0.435176434388566, 0.43029733006433896, 0.4253671335727725, 0.4204342639999178, 0.415623129347474, 0.41086563321022274, 0.4061160916936862, 0.4014752986154398, 0.3969988117822514, 0.39245436040578446, 0.38800232061722284, 0.3835811950425237, 0.3792257784587376, 0.3748005041694875, 0.3705942835680761, 0.3664436292437463, 0.3623568241058544, 0.3583313502266083, 0.35448964921115256, 0.3505751159636812, 0.3465980000609904, 0.34284353221633124, 0.3391531249250047, 0.3355602546178634, 0.33199724083861365, 0.3285808362479966, 0.3251466922126542, 0.32178710136024635, 0.31839205304051915, 0.315195151692828, 0.3120486037790029, 0.3089910578340742, 0.30600224308890184, 0.30306842131524586, 0.30022122855169603, 0.2974440780941707, 0.2947376138765421, 0.29210238451158516, 0.28956309196910396, 0.287068565546857, 0.284607371136719, 0.28226545865310554, 0.27999504214656795, 0.2778497310725993, 0.2757163170973565, 0.273645065312115, 0.27166309767882724, 0.2697547442585865, 0.2678938594028664, 0.2661351158999492, 0.2645720399004956, 0.2629398624339722, 0.2613855417340613, 0.25975914743076767, 0.25837567799876027, 0.25704366511400906, 0.2557941974731358, 0.25461013852969044, 0.2535239027267985, 0.2524667535432944, 0.2515285355521646, 0.25059884118001474, 0.24973834626356853, 0.2489929798868279, 0.24826215534723264, 0.2475939156976842, 0.24700072176266974, 0.24647369505525368, 0.2459923051178854, 0.24559668614613903, 0.24518040429254817, 0.24491782543733492, 0.24471057923842657, 0.24457781681902496, 0.24447796940341635, 0.24442547944911283, 0.24443688810407938, 0.2445019476865812, 0.24468947777243705, 0.24485098029091637, 0.24496119805615738, 0.24524556915909498, 0.24557660859556385, 0.24600718103617192, 0.24642332617682147, 0.24688748059117, 0.24739851221881154, 0.24795527668252418, 0.2485436888854933, 0.24919007413595748, 0.24979877505090758, 0.250537099280375, 0.2513102922027091, 0.25210493204929285, 0.25294791981517845, 0.2539687361384925, 0.2548574312491478, 0.25578526670787854, 0.25667752870431965, 0.25768695126552377, 0.2587822538629948, 0.2598419613398295, 0.2609317544553896, 0.26194490757767963, 0.2631031651653745, 0.2643324249869778, 0.26552200485689387, 0.2667322790926993, 0.26798137887117585, 0.26922679741521954, 0.27049989323570883, 0.2717786157120178, 0.2730730179411834, 0.2743800084326705, 0.2757015737220393, 0.2769131669627127, 0.27827113972926154, 0.27963078165597494, 0.28102564939126956, 0.28238308842300835, 0.2838121466760043, 0.2851641158438659, 0.28652020079812984, 0.2877883309135281, 0.28915942656733895, 0.2906445653576964, 0.29198871311865476, 0.29333251233663066, 0.29453033468224743, 0.2958863187225049, 0.2972933698971342, 0.29861360045615426, 0.2999229498102666, 0.3011912285151119, 0.30247919633049125, 0.303849939787647, 0.3050929700027493, 0.3063239877249831, 0.3074120127546724, 0.30863036486142087, 0.30981169345676746, 0.31098307354996635, 0.31212873635716715, 0.31336461329362586, 0.3144427822945176, 0.3154550562955513, 0.3164961418319173, 0.31751108821491686, 0.3184487954544495, 0.31941482170333074, 0.3203344244850828, 0.32123800857829365, 0.32210782350340494, 0.3230824021111725, 0.3238657148729705, 0.3244680817730864, 0.32521433307770325, 0.32592138732123666, 0.32669735158324736, 0.3273117549186289, 0.3277986499169807, 0.328356194380067, 0.3288724575428228, 0.32942637451485807, 0.3298492754227435, 0.33015208959142156, 0.3305091373281201, 0.3308220736187312, 0.33107943742300333, 0.3313051159146023, 0.33148554593354224, 0.33162062136204273, 0.33171021662790934, 0.33182206853793245, 0.33181169011714573, 0.3317850510947286, 0.3316864611668602, 0.33154586227191196, 0.33128813305888627, 0.33107066331297724, 0.33088896635525, 0.3305644019352549, 0.33019640943500317, 0.3297779080457782, 0.3293221140780331, 0.32881931718845453, 0.3282726313058319, 0.3276798861232026, 0.3270198853512948, 0.3263371718933584, 0.32552116420762756, 0.324754135171436, 0.3239349508839558, 0.323048318776821, 0.322129409960958, 0.3211614787263831, 0.3201419197649011, 0.31907341761581326, 0.31803264027280664, 0.3168587374885028, 0.3155468165445828, 0.31429962967841935, 0.3130044638951011, 0.3117591470660886, 0.3103582964840985, 0.30898199739352294, 0.307492743492948, 0.30596700612818106, 0.3043865774202065, 0.3027889538601977, 0.3010543379663529, 0.29939241779305875, 0.2976447287665067, 0.29590162179366314, 0.2941143745988187, 0.2922874972215235, 0.2904153284730849, 0.28854486366966287, 0.2865878285561217, 0.2845949487474131, 0.2826557730973913, 0.28058196350934844, 0.27834841376756175, 0.27623347057319964, 0.27408241476681283, 0.2720419268445539, 0.2698038988824202, 0.2674994606761309, 0.2652179043538534, 0.2629095958618457, 0.26058634690015076, 0.2582246541867277, 0.25579324659144614, 0.25338890468492603, 0.25095872475698816, 0.24855221062534805, 0.24606728340925624, 0.2435913854149445, 0.24106328514316033, 0.23851805834983378, 0.23586407052634917, 0.2332977590830287, 0.23069464013201432, 0.2280904879314701, 0.22546755635888666, 0.22279336277216713, 0.22014147891861327, 0.21757332596192713, 0.21487742156337283, 0.21217377030098672, 0.2093579655442437, 0.20665406609829476, 0.20392078602775965, 0.20119752047297734, 0.19846476284280776, 0.19581137320575764, 0.19305328507295594, 0.19022402740325592, 0.18747547771476838, 0.18472423993907927, 0.18199907876164587, 0.17924281365636652, 0.17656508873498636, 0.17380532028249104, 0.1710542592190924, 0.16819100382459648, 0.1654736724250155, 0.16279815018286622, 0.1600834223759874, 0.15737674697431184, 0.15466620654904228, 0.15198028269995145, 0.1492884926325804, 0.14662625363151208, 0.14397547359445143, 0.141376059044591, 0.13874660782852638, 0.13615664881930734, 0.13355875621965027, 0.13098037674918817, 0.1283735382099644, 0.125841873431046, 0.12341587428298846, 0.12091092884775567, 0.11843116957925377, 0.11592022907232574, 0.11349864153122503, 0.11109982035725406, 0.10872456774221434, 0.1063736671289182, 0.1040527315940819, 0.10175219738804189, 0.09955933148252082, 0.09730297497514816, 0.09507934253671801, 0.09276560219858333, 0.09062299313299227, 0.08848699017335425, 0.08639998526207297, 0.08434011726052267, 0.08231177222215316, 0.08030914161640386, 0.0783935940628108, 0.07644572889829578, 0.0745332487433077, 0.07270654815986985, 0.07085938630173391, 0.06900119936896598, 0.06723840420812144, 0.06551168190019517, 0.06381816793796961, 0.06216508573057492, 0.0606184388146536, 0.0590307952020928, 0.05748465473865847, 0.05597975819498131, 0.05451589513251242, 0.05301209109456925, 0.051640042474466435, 0.050304088765051054, 0.04894177283399383, 0.047687632106797676, 0.046530613646367604, 0.04533759702801927, 0.044183910023988596, 0.04314245964569617, 0.04205874826719621, 0.04088475679762886, 0.03990522322414283, 0.03896106635187198, 0.03820486215990565, 0.03731413137238779, 0.03632192190388847, 0.035540121616568006, 0.0347940463568538, 0.03409063763166028, 0.03341653539025152, 0.03281200943305337, 0.03220850210256881, 0.03164434629547145, 0.031224380865807144, 0.030724997264875997, 0.03015057629491615, 0.029754309195630643, 0.029393740226560234, 0.029060796240595096, 0.028772615902619657, 0.02864237663085567, 0.028408827244973223, 0.028217096063992954, 0.027918964042498214, 0.027826088527584385, 0.027765170304202294, 0.027733018287411298, 0.02773169834390728, 0.0278453073422818, 0.0278951272614002, 0.028009544746187068, 0.028125880137226944, 0.028277740373185895, 0.028415638136265315, 0.028641717174755135, 0.02893975273424374, 0.029219913779810567, 0.029531397081168864, 0.0298895199148886, 0.030259102131485353, 0.030640689625412675, 0.031071189212156115, 0.03152871837846242, 0.03191724039663878, 0.03243883734933214, 0.03308997860357571, 0.0336370807431459, 0.03421011640547315, 0.03477096319657509, 0.035397745647917284, 0.036000369744601614, 0.0366744997503152, 0.037366050146672915, 0.03800692192413703, 0.038741172378610245, 0.03953991755281757, 0.040293353944169386, 0.041062695140592756, 0.04189273364516715, 0.042686748158952924, 0.04353327484270871, 0.04435578432411751, 0.045195416272147744, 0.04599766467792203, 0.04687481455822576, 0.04780474215561397, 0.04869749381818837, 0.04960214371387873, 0.0505193427068035, 0.0514447209689798, 0.05225322817310764, 0.053212027125171556, 0.05417118278984245, 0.05514056396131318, 0.056099619080948224, 0.05706463772242169, 0.05802512247961182, 0.05898655377240652, 0.059953429842575075, 0.06091504428435495, 0.061968812181317376, 0.06291833704858381, 0.06387201823339658, 0.0648447186865027, 0.065800848790675, 0.0666274591226877, 0.06760169072460706, 0.06856759198090055, 0.06952675142371226, 0.07047563673815026, 0.0714240833840454, 0.07235468558338673, 0.07327188233979628, 0.07418561021324128, 0.0750897360715553, 0.07600488642830844, 0.0768859792427469, 0.07782692692457333, 0.07867934619018974, 0.07952481528698885, 0.0803250130153818, 0.08115791011157526, 0.08205127867345377, 0.08284984315403512, 0.08363900271655988, 0.0843513341811618, 0.08512667178247481, 0.08584204561018223, 0.08658987960572133, 0.08731821657924362, 0.08807554298987129, 0.08875872900147998, 0.08944767192095023, 0.09009378024985154, 0.09072335647836072, 0.09130993148015966, 0.09190792513827697, 0.09257512288394146, 0.09312223788944435, 0.0936541205925796, 0.09402596995762905, 0.09454277519845777, 0.09501912260043273, 0.09548640475347256, 0.09592781657365917, 0.09638906100067984, 0.09677429693613326, 0.09723755900135109, 0.09756568504690769, 0.09787707146067932, 0.0980415279383106, 0.09833318160416869, 0.09863237177480934, 0.09886734784842288, 0.09907861062804271, 0.09935832779226053, 0.09951065772110033, 0.09956377034353077, 0.09968879226087195, 0.0997895544397215, 0.09989365304032298, 0.0999427844992847, 0.10002773496352428, 0.10002468208341918, 0.10000235012545139, 0.0998422434666366, 0.09979479629587995, 0.09984619098257844, 0.09972903142176649, 0.09959299118839295, 0.09933741276687466, 0.09917498916739204, 0.09897238418399175, 0.0987611020641868, 0.0985244802869688, 0.09828899864248787, 0.09800025009525627, 0.09764894968533734, 0.09732130935745661, 0.09696984320388585, 0.09670667850556344, 0.09629526443881577, 0.09581629170537934, 0.09537933925344648, 0.0949229417893727, 0.0944375864033612, 0.09394409469471196, 0.09334879679509568, 0.09282727150544165, 0.09228236822974124, 0.09182658581405422, 0.0912237103462484, 0.0906597859150183, 0.09002129092731063, 0.08937123703926428, 0.08863646677586115, 0.0879712962175921, 0.08733150515557614, 0.08662817419871381, 0.08591142927172137, 0.0851231919560266, 0.08438732657427674, 0.08357057500011482, 0.08281109333376442, 0.0820331031313693, 0.0812474658215848, 0.08043464144122552, 0.07970891531438998, 0.07885463869940594, 0.07799301822231529, 0.07701571218572542, 0.07615296929118831, 0.07531396444364843, 0.074420627256739, 0.07351782166459334, 0.07269336949499777, 0.07176223246450347, 0.07073601865254703, 0.0698104248185611, 0.06887640349872019, 0.06803970126039775, 0.06707761038031493, 0.06600833612418283, 0.06505846867230242, 0.06410173050427877, 0.06310982239907961, 0.06214535438686132, 0.06116979271485648, 0.06019436327640903, 0.059214189365640456, 0.058331928539572975, 0.0573318646894, 0.056254334736089734, 0.05527104535152541, 0.054286377866212564, 0.053372085935831357, 0.052377573855382914, 0.051355196189063965, 0.050373673570272864, 0.04939481946142114, 0.048343015065408175, 0.047380123992068354, 0.046479699138058814, 0.04550867629827317, 0.044542479708252945, 0.04355718307318243, 0.04260465241053443, 0.041650074200963956, 0.04070770826583686, 0.03977039893290656, 0.0388661384200731, 0.03793699544615918, 0.036967441081816224, 0.036060793118526994, 0.03515994237909892, 0.03441580772666733, 0.0335093620641001, 0.03247180995668929, 0.0316151681986655, 0.03076492429769903, 0.029916917909844, 0.029082092217708, 0.02836842555497792, 0.027535933672799936, 0.026718927112943474, 0.025947689412693636, 0.025156576302343435, 0.02424747804539634, 0.023505158397402123, 0.022770600627103486, 0.022093048638756302, 0.02137009591246719, 0.020664552489478745, 0.0199662868781051, 0.01928120475613758, 0.01859488770405169, 0.017938389410389288, 0.017356043547301664, 0.01671749484975142, 0.016095583421107347, 0.01538496577517156, 0.01480876766927865, 0.014255478988742203, 0.01369827086874568, 0.013153020326576444, 0.012649231505633522, 0.01212540865928943, 0.011585561723607451, 0.011095023594384398, 0.010617508769826381, 0.010226005074862286, 0.009766087659196588, 0.009362729197639957, 0.008933016426277371, 0.008522422807332591, 0.008054320957905698, 0.007689631252538818, 0.007304054797885718, 0.0069698902526065315, 0.0066471073435508, 0.006458883391196866, 0.006144333517595776, 0.005698649369630091, 0.00544064023278755, 0.0051918535328042284, 0.005096686979979528, 0.004849760378856209, 0.004574695082757736, 0.004370318987187654, 0.004180452875769107, 0.004033877406586235, 0.003868440025651908, 0.003603515939799058, 0.0034825983195825166, 0.003484273541613015, 0.0033650344633692013, 0.003260978833042515, 0.0030664647472499287, 0.003004319715915324, 0.0029352619235180565, 0.002890587725768897, 0.0028533891680089974, 0.0029419845249616544, 0.002905768711314329, 0.002858594647850857, 0.002854633203323491, 0.002862552599717561, 0.002791359671963036, 0.002833036065453344, 0.002939907473282875, 0.002985120592005692, 0.003039614804382944, 0.0031240788769846166, 0.003193515781456606, 0.0033193161190659295, 0.0034013279335825897, 0.0034945045313911904, 0.00357377598547865, 0.0036899266810572497, 0.0037990373596711877, 0.003931577078439449, 0.004069907587256236, 0.0041038313792047, 0.004266737268833975, 0.004575436942853473, 0.0047177901209844554, 0.004868192730467886, 0.005025845626110233, 0.005190008316942533, 0.0053228226329495336, 0.0055026905238632065, 0.005685059240613957, 0.005880983331435587, 0.006066146540243378, 0.006239119849968666, 0.006430477741004912, 0.006622674636050937, 0.006707210549845505, 0.006914109207944424, 0.007118321195786751, 0.007313603209693866, 0.007504293531414693, 0.007721485647079539, 0.00790018239526618, 0.008060752225367144, 0.008237459929499041, 0.008411059358433212, 0.00871727084611203, 0.008867346622359178, 0.008987774488710625, 0.009149489281228874, 0.009311231695572094, 0.009422148735699864, 0.009588077526918173, 0.009846094394732899, 0.009989809903404135, 0.010133692935485413, 0.01029292005126828, 0.010432234083587639, 0.010581253108175311, 0.010715062187805853, 0.010846267027608979, 0.010978931107243623, 0.011102042164963882, 0.011130202680328645, 0.01125526083425679, 0.011369656332933345, 0.011454245949260164, 0.011550480771596035, 0.01173418780030039, 0.0117960377638637, 0.011852865988748915, 0.01198004991468953, 0.012015550374646676, 0.012011556081094117, 0.012046082828767039, 0.01207426946075578, 0.012045519819536187, 0.012065933025827997, 0.012169618842061575, 0.012157329070227683, 0.012139979637773737, 0.012123346027931914, 0.012093082451829853, 0.012145201768252626, 0.012090194976468434, 0.012032751412223788, 0.011994423597529395, 0.011926174063776078, 0.011849118623994171, 0.01177271310687433, 0.011690500492059327, 0.011655245366489066, 0.011553073483699581, 0.01136425344500944, 0.01126332458855764, 0.011152215706670554, 0.01112644942362999, 0.010983456159358383, 0.010810339427585233, 0.010661533208155017, 0.010506012569921128, 0.010510093578525885, 0.010319722747846281, 0.010016971254596878, 0.009844510925527551, 0.009665530744499023, 0.009606077490001403, 0.00939813973979158, 0.009263601716907875, 0.009046933737504034, 0.008833416448405955, 0.00852815406044021, 0.008329509807684618, 0.00820343326385303, 0.007985107262444054, 0.007766457619485904, 0.007566489339556425, 0.007343691237854421, 0.007088505853308951, 0.006869431477396684, 0.006648111795667212, 0.006533042465411428, 0.006294234683774831, 0.006110138537945886, 0.005873687790004472, 0.005643734688562962, 0.005343648846774236, 0.005134436802484165, 0.004937216928235173, 0.004728300704032373, 0.0045214708749296085, 0.004389798330778102, 0.00417902069746297, 0.004043434112446983, 0.0038385632164275414, 0.003644634777023136, 0.0033625641349022003, 0.0032016253080031183, 0.0030708664979278767, 0.002915979919423685, 0.002768224690039181, 0.002694335696473348, 0.002553912463360077, 0.0024597720101717973, 0.0023397528961881645, 0.0022340776731049282, 0.0021297052120462802, 0.002054113984651796, 0.0019565330194946657, 0.0019128212050130164, 0.001881242552905014, 0.0018721376012060024, 0.0018655376106427037, 0.002004471218954857, 0.002011157030549492, 0.002040992580047484, 0.0021339325291476804, 0.002203752890195398, 0.002249564020488948, 0.002374064914724685, 0.002519661910788668, 0.002618733131086101, 0.002815932424941178, 0.0030717661113684276, 0.0033012846684814827, 0.003553205513974674, 0.003942861559120663, 0.004226860005643951, 0.004455856255078266, 0.004811694798236801, 0.005192912365461077, 0.005658315121613066, 0.006084823797219325, 0.006558048156115379, 0.007043808512988408, 0.0075614654048739675, 0.008054628844438218, 0.008643817705561331, 0.009357787730917649, 0.00999458009557668, 0.010667739473760613, 0.011353030545583785, 0.012102089870356842, 0.01290257105258331, 0.013720526215872272, 0.014575516159146557, 0.015503441421399634, 0.01642908151797667, 0.017330254211649368, 0.018344581780279527, 0.01939583547051677, 0.02043955185048653, 0.021572722390433344, 0.022858941978331587, 0.024051866814937366, 0.025181844814061393, 0.026479155260376745, 0.027815838101199458, 0.02921229641659803, 0.030628237908065393, 0.03214728116918766, 0.03364295082480392, 0.03518660684090882, 0.036834950766353236, 0.03846787176458416, 0.04012821591405236, 0.04186729851121286, 0.04365629537823184, 0.04545652530890043, 0.04735060716944358, 0.04927183450568836, 0.05126539072403738, 0.053306920758941174, 0.05545847813127142, 0.05759007482291833, 0.05979590970174041, 0.062031344078096594, 0.06432128809665469, 0.06668828763312395, 0.06908419174582746, 0.07154868220513509, 0.07405411134860468, 0.0766156615128428, 0.07914104429345525, 0.08182602326725422, 0.08449370469852523, 0.08728911914387476, 0.09013262875019135, 0.09313847884912309, 0.09606710216661944, 0.09894972770072469, 0.10200616221141641, 0.10511397344904691, 0.10834984541288693, 0.1115528922055207, 0.11478277978540513, 0.11810466162724832, 0.12148208722864894, 0.12492647912597447, 0.1284138601529105, 0.1319576580712401, 0.13555780376990673, 0.1392142128628269, 0.1429801178659996, 0.14674199723765988, 0.15056117393095736, 0.15444051203264, 0.15837756644219583, 0.16234760772876064, 0.16640172388227173, 0.17050272879478873, 0.17466758071816665, 0.17888649003283502, 0.1831560454593863, 0.18748292201311045, 0.19187600909839903, 0.19630760373037465, 0.20079276257544032, 0.20521799848271277, 0.20982350417520249, 0.2144670396075116, 0.21916630712054494, 0.22391214514770394, 0.22885034906461352, 0.23367185815118743, 0.23854557275510876, 0.24347723102316193, 0.24846193454446738, 0.25335485035290634, 0.2584608780623165, 0.26375768843504993, 0.26892938485484086, 0.27415194682884914, 0.279408065018168, 0.28473100837181964, 0.29010222967485877, 0.2955174099175627, 0.30097759591573603, 0.3063380900985817, 0.31190389813369335, 0.31761398302203553, 0.32323498055849437, 0.3288970343677152, 0.33454275508615194, 0.3402915915772018, 0.3460386438924409, 0.3518625614773082, 0.35771893079144496, 0.3636948043728226, 0.36960429674451795, 0.3754273907502408, 0.3814240931998198, 0.3874479988922998, 0.39355228365856887, 0.3996232733647571, 0.4057462941867782, 0.41187234605881534, 0.41802726738084695, 0.4242390214241823, 0.4304446205837857, 0.4365496604554751, 0.4428242624757879, 0.4491161024571124, 0.45553478303457906, 0.46184621617822325, 0.4681491568362708, 0.47450743137500084, 0.48088328923511875, 0.4873014237789743, 0.4937056789890769, 0.5000398023834085, 0.5064845426066609, 0.5129372384182739, 0.5194634874949395, 0.5259216575054726, 0.532274565860174, 0.538764824438427, 0.545255369713363, 0.5517150587936286, 0.5582086466216559, 0.5647799936447411, 0.5712567998009769, 0.5777340456201282, 0.584186166781541, 0.5906633842539488, 0.5970645893548184, 0.6035398511006569, 0.6100039112139404, 0.6164319083705576, 0.6228746798922258, 0.629325390353342, 0.635735255138031, 0.6421302682587606, 0.6485207185381232, 0.6548814774289166, 0.6611698598438357, 0.6675014662264926, 0.673810052747472, 0.68005599181497, 0.6863208509320126, 0.6925707191474091, 0.6987773891586743, 0.7049553493722788, 0.7110535188944329, 0.7171773960800086, 0.7233409935691048, 0.7293855075097633, 0.7353980452456075, 0.7413221805565811, 0.7472732878034596, 0.7531671507853207, 0.7590405649602106, 0.7648714576579617, 0.7705635335936408, 0.7763185573627639, 0.782009805050669, 0.7876644621682112, 0.7932668058238473, 0.7987986167580803, 0.8042971433850926, 0.8097746487940193, 0.8151583684331423, 0.8204877471497627, 0.8257067932126612, 0.8309312699275591, 0.836112864489622, 0.8412130810086427, 0.8462521748820884, 0.8511936174695943, 0.856112002714645, 0.8610240406851434, 0.8658017988177217, 0.8705151570712233, 0.8751869984378714, 0.8797644374479272, 0.8842861408403445, 0.8887265685130772, 0.8930976638280802, 0.897241184613981, 0.9014890572075429, 0.905791901286789, 0.9098575505652478, 0.9138482892630831, 0.9176496260365548, 0.9215008127598415, 0.9253104463655911, 0.9289854403568547, 0.9325770313145137, 0.936071517871123, 0.9394956149310906, 0.9427944663512632, 0.9460498745793008, 0.9492152865537953, 0.9523743610567701, 0.955347975200231, 0.9581380867806801, 0.960949731552971, 0.963667141826153, 0.9662367244687392, 0.9687715834596652, 0.9713392180943841, 0.9736613270845518, 0.9757763390812713, 0.9779305552603603, 0.9799853134882812, 0.9820585371499411, 0.9838992528908215, 0.9855191569415995, 0.9871886112992373, 0.9887555957367196, 0.9902056361234555, 0.9915696835794051, 0.992853143831651, 0.9940079676891065, 0.9950609317836158, 0.9960150716670962, 0.9968633114462645, 0.997715932754068, 0.998345892469405, 0.9988791067062694, 0.9992143092501173, 0.9995636208325608, 0.9998319552416746, 0.9999678362522344, 1.0, 0.9998766038316111, 0.9997075177461405, 0.9994428233062276, 0.9990588324125843, 0.9985692662000318, 0.997964660197981, 0.9972658622409578, 0.9964600168609934, 0.9955508683092661, 0.9945368081755684, 0.993560369566054, 0.9923194483554976, 0.9909259807946563, 0.989499428940699, 0.9879722345023189, 0.9863572522328532, 0.9846269870413622, 0.9827369965057169, 0.980814457975696, 0.9787887544474272, 0.9767478002748899, 0.9745066674286587, 0.9721934530667793, 0.969756567084229, 0.9672247313495613, 0.9644653721395688, 0.9617603431365969, 0.9589385355532724, 0.9560321843456627, 0.9530253447147036, 0.9499209614756916, 0.9467168741942497, 0.9435180402463504, 0.9401091336136651, 0.936611704351027, 0.9330745387150625, 0.9293949222773752, 0.9254900448790412, 0.9216590261726847, 0.917735845105133, 0.9138561231656551, 0.909736062869987, 0.905471045475616, 0.9011988226817105, 0.8968433420162013, 0.8923538978353807, 0.8878414952991722, 0.8833365382205466, 0.8786480746848245, 0.8738845967418893, 0.868988638615449, 0.8640847006838297, 0.8590450317149099, 0.8539981582006001, 0.8488747360897924, 0.8437719633841849, 0.8384888680645446, 0.833102770433034, 0.8276936311839844, 0.8222184670147146, 0.8166511260523556, 0.8110513617096717, 0.805365399671738, 0.7996429236076077, 0.7938587311713825, 0.7879951496452547, 0.7820951035941193, 0.7762488265733057, 0.7702209793160032, 0.7641451748934285, 0.7580383851135563, 0.7518671345907081, 0.7456563470847881, 0.7393966141687999, 0.7330946485569704, 0.7266787360523985, 0.7203046033507167, 0.7138954723668491, 0.7074359450908368, 0.7009373411163087, 0.6944643690641528, 0.6878846732797542, 0.6812227360131127, 0.6745896768631949, 0.6679255439303335, 0.6612126151273423, 0.6544937945351611, 0.6476653849770334, 0.6409044605780299, 0.6341153351524856, 0.6273780042944498, 0.6205298300748087, 0.6136890138001158, 0.6068055220654868, 0.5999095380077238, 0.5929296573035098, 0.5860218712378665, 0.5791500279052578, 0.5722130000480657, 0.5652700368291214, 0.5582337252931583, 0.5512945526333275, 0.5444636259621479, 0.5374991391944773, 0.5305388870184828, 0.5235435658687968, 0.5166002306568385, 0.5096768243106454, 0.5027439513274997, 0.49582033380733975, 0.48892514208483373, 0.48202196973275135, 0.47499263428499877, 0.46813737243481585, 0.46129118357148025, 0.45456314508556733, 0.44772872642353556, 0.44080956519376363, 0.43403367491346867, 0.4272761252297872, 0.42058100373670665, 0.4138609247193116, 0.4071674493285708, 0.40050202447333555, 0.39386605981788986, 0.3873142624052393, 0.38073456788902704, 0.3740960058122716, 0.3676021894464774, 0.36114124126018676, 0.35475200117366607, 0.3483570202419649, 0.34191127372090263, 0.3356083668596922, 0.32934240737902026, 0.32321058315683043, 0.31701185997472575, 0.31078465912398034, 0.3046912591493338, 0.29864260263659037, 0.2927144143716038, 0.2867499228534165, 0.2808609118152375, 0.274999854940027, 0.26919411150690814, 0.26338593633737023, 0.25769951490992343, 0.2519631103842987, 0.24639765113738357, 0.24088177057712667, 0.23543821892262773, 0.23002392122405219, 0.22474923283066256, 0.21943663663234178, 0.21418661047873253, 0.2089380830567326, 0.20382199460992445, 0.198816177323858, 0.19381495110794156, 0.18887835610033965, 0.1840067279774606, 0.1792003999491565, 0.17444353976063656, 0.16977083621801617, 0.1651634931829466, 0.16050558596530237, 0.15604495723485423, 0.15172519153923686, 0.14737575028623007, 0.1430933392942771, 0.1388977194223938, 0.13474797926936932, 0.13068996805469776, 0.12667567118250642, 0.12273192707040632, 0.1187422592516114, 0.1149539914289581, 0.11126173531630543, 0.10759758746745982, 0.10393260378822812, 0.10041146129548921, 0.09695416305716956, 0.09367782288963544, 0.09033563265465631, 0.0870430788682146, 0.08384774001641726, 0.0807223439275035, 0.07756313899844554, 0.07458973494071948, 0.07171664465334093, 0.06886530145512328, 0.06608002003156775, 0.06329287531767233, 0.060648094079952364, 0.058076553552010926, 0.05555452289386274, 0.05309558801205303, 0.050798341890754245, 0.0484530761148099, 0.046182679717486914, 0.043972385605777264, 0.04182884987290538, 0.039731666827140966, 0.03772109418862307, 0.03577001147662984, 0.03388451651777383, 0.03206001195567679, 0.03023271882505455, 0.028535907709619966, 0.02695246109140149, 0.02535839863550518, 0.023822187791558206, 0.022257306798067516, 0.020845024500188807, 0.019497720981890086, 0.018184277207785447, 0.01692161287092731, 0.015647834237524687, 0.01449298805902346, 0.013417788343315007, 0.012349907419183546, 0.01132921061094267, 0.010367985533699872, 0.009438041632721545, 0.00852482859213527, 0.00768930467585462, 0.0068961391337041865, 0.006244808559526601, 0.005521468932352766, 0.004845404343871034, 0.004211506003378565, 0.0036200741731343944, 0.0029515634538596373, 0.0024553269899412634, 0.001972601654398404, 0.0015407079875979337