0.02167861080722308, 0.021576768570733262, 0.0214842417907831, 0.021427462001179627, 0.021386969889147175, 0.021352882359278572, 0.02133897885548593, 0.021355161116091915, 0.02135630967203371, 0.021365454597641893, 0.02134034206669703, 0.021367266703932773, 0.021408060871584308, 0.021438590204937286, 0.02147186852666007, 0.021489941274517352, 0.021530363121698808, 0.021593565559425626, 0.021634061603574818, 0.02167740952507121, 0.021684464959904923, 0.02173864148945066, 0.021800258335464597, 0.02185590317342596, 0.02191376235006776, 0.021951841252675266, 0.02201814341862842, 0.022103362440651687, 0.02217233595064754, 0.022245438268880847, 0.022337011594408162, 0.022417630232874828, 0.02245751385954681, 0.022556052430240208, 0.022658273218955922, 0.02278060398112276, 0.022889836368319018, 0.023014530875897877, 0.02313515420763684, 0.023263024255530087, 0.02336754248323851, 0.0235143602585957, 0.023655112497997434, 0.023816003472413926, 0.023983065514069042, 0.02418566024190024, 0.02436268190267185, 0.02451696983734361, 0.0247160695719679, 0.024922558233192046, 0.025161037208464028, 0.025380235629474862, 0.0255634063129495, 0.025807825219812192, 0.026059494668126744, 0.026354302684513106, 0.0266172511357393, 0.026885021651724895, 0.027169552939500886, 0.027464265912979218, 0.027759922399322116, 0.028076453989311193, 0.028399188848026835, 0.028736232599952942, 0.02908333461105556, 0.0294378825782634, 0.02980600645244455, 0.030178969313087937, 0.03056886229154219, 0.030969245303514505, 0.03138406863965705, 0.0318056039258123, 0.032224467512774836, 0.03267057828237165, 0.03312754299935305, 0.03360122593988114, 0.034079973822224954, 0.034560379880793995, 0.03506444619643098, 0.03558020958150786, 0.03610325613969067, 0.03664374233319674, 0.037172117859491094, 0.037740215194596846, 0.03831958324805839, 0.03890130874349041, 0.03950561141816173, 0.04013580058161205, 0.04076251029396585, 0.04140264768303766, 0.042073219343633665, 0.04273871225575239, 0.043388382058572955, 0.04408773648802844, 0.04480040984450529, 0.04550990485142891, 0.046252203067761406, 0.047012356917490776, 0.04778080752308319, 0.04856339624506409, 0.04934265094630684, 0.05015649621800065, 0.05100190300693505, 0.05184150561641406, 0.05269656005026963, 0.053545725403064307, 0.05443473818404522, 0.05536630684576486, 0.056281170829791276, 0.057212656937849424, 0.058122487548710876, 0.05909198205099067, 0.06006935384955511, 0.06106878011477165, 0.062082790562755355, 0.06314431187104907, 0.06418414140532305, 0.0652373651604551, 0.06631182813990215, 0.06740303142001507, 0.06848200107698332, 0.069610187978597, 0.07077106454869096, 0.07192711617005286, 0.07309945640492044, 0.07427873633550931, 0.07548476914681618, 0.07668969479539403, 0.07792925947440156, 0.07918362306496343, 0.08046318834855194, 0.08174624154600711, 0.083058062768663, 0.084370850767198, 0.08570001283760854, 0.08701180515191874, 0.0883774949697459, 0.08975907535403654, 0.09115269523417371, 0.09256064450951357, 0.09399135760552074, 0.095426990259186, 0.09686906243197714, 0.09833532690666626, 0.09981573907898825, 0.1012990444819788, 0.10280897280564942, 0.10437137470921973, 0.10590290348170646, 0.10744985118187884, 0.10899783715257838, 0.11057625199046997, 0.11215513089735639, 0.11376202166544677, 0.11538124818786952, 0.11700521923322288, 0.1186496631295034, 0.12030093035693946, 0.12196882861406373, 0.12364770880000656, 0.12533465789138507, 0.12703549135789513, 0.12874487634072898, 0.130466627261565, 0.13219836366014495, 0.13393897492833995, 0.13569024819416722, 0.13746112854135642, 0.13922956938414408, 0.14100746804626055, 0.14276929752797918, 0.14456828455264967, 0.14641161617356946, 0.1482197909702934, 0.15003676946889632, 0.15181913635400127, 0.15365766859984184, 0.15550207430124993, 0.15735025239080982, 0.15920315527283127, 0.1610549957274383, 0.16291746083100714, 0.16478928715097754, 0.16665835183310743, 0.1685310292640528, 0.17044619064904257, 0.1723201801929699, 0.17415794084554945, 0.17604609313455383, 0.17793544539632913, 0.17984529884168785, 0.18173368011884344, 0.18362716289091408, 0.1855173103210273, 0.18740803986992802, 0.18924938195210103, 0.19114597191158397, 0.1930481571420224, 0.19493599466828318, 0.19682036985550608, 0.1987028858254828, 0.20057928484826565, 0.20248691294054433, 0.2043500293114851, 0.20621019115824732, 0.20803687327343207, 0.20989291331240056, 0.21173957695766205, 0.21358244407001084, 0.21543088058880214, 0.2172567353221424, 0.21907506464051954, 0.22089655690378104, 0.22269689924892386, 0.22448043091936054, 0.22626441570671094, 0.22803834519657867, 0.22977652955212788, 0.23153203856152352, 0.23330351119730866, 0.23502915595168486, 0.23674286349470677, 0.23844220301497196, 0.24013058832779496, 0.24178567595663222, 0.24344860882180175, 0.24509570420548762, 0.24672194782393164, 0.24833689644786486, 0.24994585444745326, 0.2515246666188177, 0.25308621108991936, 0.2546160293955078, 0.2561434177493488, 0.2576690914630959, 0.25915500793047713, 0.260621770388618, 0.2620464745749599, 0.2634762314146345, 0.2649064580418063, 0.26628923319098396, 0.26765071563226966, 0.26895307293590104, 0.2702751617990768, 0.27158728794154763, 0.27285752969970994, 0.27410333488273564, 0.2753420817857104, 0.27653572170616986, 0.277704859843745, 0.2788489932739513, 0.27996763523120893, 0.28102579380969295, 0.28209641825136544, 0.28315783626946717, 0.28416823378190303, 0.2851506078586945, 0.28610927519203333, 0.28703397183653634, 0.2878869571798748, 0.28875912028921474, 0.2895993465263953, 0.29042069050083885, 0.2911953370414486, 0.29193120005509265, 0.29264395275450933, 0.2933245621070092, 0.29397754030662765, 0.29459280306466856, 0.29517289396415974, 0.2957235460651678, 0.29624123006990233, 0.296716420003295, 0.29716875840121043, 0.2976056756651602, 0.2979873737032629, 0.298335793409254, 0.2986450573527733, 0.2989268059507144, 0.29919469797084003, 0.2994049006155284, 0.2995815110067275, 0.299695276382672, 0.29980740018238655, 0.2998974054020072, 0.2999355243479286, 0.2999382959177267, 0.2998748073485639, 0.2998104189136392, 0.29974314624044157, 0.29959974947698687, 0.29942120052263765, 0.29921762028648574, 0.29896706674154677, 0.29865265733315716, 0.29833573675238473, 0.2979819754894701, 0.29759617309146, 0.29716854288633626, 0.2967187290572162, 0.296217068745839, 0.2956802146569972, 0.2951146955248724, 0.2945066433452364, 0.29383210009529, 0.293158527553271, 0.292448446345661, 0.2917170966911589, 0.29093303918028857, 0.29009556384702395, 0.28924452114980365, 0.2883580277174254, 0.287449489560196, 0.2864914683664861, 0.2854876130364732, 0.2844639372904295, 0.28340633114387354, 0.2823048729784443, 0.28118172601826674, 0.2800652120824493, 0.27887044504592523, 0.27764528271082073, 0.2763776829598834, 0.2750935593828479, 0.2737572657589628, 0.27241471684375757, 0.2710408373930234, 0.2696463799030502, 0.26821000477204937, 0.2667583226707634, 0.26526196839429766, 0.26373789405611797, 0.26218919715615957, 0.2606102470625183, 0.2589655106654653, 0.2573386534168488, 0.25568369754752623, 0.2539985405468982, 0.25228981039951476, 0.2505865773008892, 0.24882205309863617, 0.2470344006001919, 0.24522400155652005, 0.2433912580084365, 0.24151886426816876, 0.23964495418734932, 0.23774902052832775, 0.23581861535165444, 0.23388212474324654, 0.23193870585353307, 0.229959311809826, 0.22796119074454851, 0.22594771558772833, 0.22391351213172, 0.221867136688967, 0.21979923241616522, 0.21771588554895974, 0.21560363997353055, 0.2134928044361184, 0.21135432715972355, 0.20921666498508182, 0.20706504793324892, 0.2049403714487945, 0.2027580862386301, 0.20054212239189628, 0.19834447197462238, 0.19613688664464862, 0.19389763308417818, 0.19167498327300314, 0.1894711038438709, 0.18722731230488537, 0.18497752086373753, 0.1826989718582397, 0.18044183996601043, 0.17817539466665808, 0.17590835071694028, 0.17363705698366336, 0.17135296027477756, 0.16907665884712647, 0.16682211983823253, 0.16453856352089954, 0.16225545599034408, 0.15997802641156683, 0.15769692462118126, 0.15541917437122055, 0.15314333241617437, 0.15087105077559618, 0.1486010116102623, 0.1463377377756222, 0.14407491843388018, 0.1418230537612814, 0.13957720957133463, 0.13732494505913093, 0.13509465221363437, 0.13285843512154227, 0.13064478150864195, 0.12843893948297092, 0.12624075851515962, 0.12405297587260401, 0.12190320424650898, 0.1197326342560967, 0.11757505006131946, 0.11540756426866561, 0.11328021965872845, 0.11119853783522372, 0.10909372257924045, 0.10700501161896254, 0.10492434851997993, 0.10286994399616088, 0.10084529786454642, 0.09882308075096244, 0.09677813350633215, 0.09479808958783148, 0.0928347543160785, 0.0908925496488864, 0.08896419581399476, 0.08706032814107241, 0.08516960726380456, 0.08329919301920424, 0.08143276350575727, 0.07960648520557813, 0.07782332991205893, 0.07603624242134067, 0.07427223005506865, 0.07251575021768857, 0.07080084264744667, 0.06913984642454155, 0.06746771941134751, 0.06582127633658354, 0.06419972071164005, 0.06260518330797957, 0.06100032928777612, 0.05946270108461422, 0.05794944159294486, 0.05649740385494872, 0.05502964490084464, 0.05358585928688522, 0.05217405618225618, 0.05078990249947304, 0.04944564223819063, 0.04811559894179624, 0.04677224438836758, 0.045504868857247034, 0.04426384438151436, 0.043076592388917374, 0.04188590574673862, 0.04069235081107498, 0.039563422754923354, 0.03846164574026789, 0.03743208992871769, 0.036379775492145466, 0.03536254094609435, 0.03437028858178796, 0.03340837115823323, 0.0324738001610652, 0.031572352028470085, 0.03067349635588812, 0.029834635351386883, 0.02902364506115445, 0.028238751659445473, 0.02748398918718125, 0.026786115113581588, 0.026083660231779895, 0.02541083605648244, 0.024757133055127042, 0.024144134902621017, 0.023525883016325924, 0.022973650663602584, 0.02244756158173739, 0.0219999675127606, 0.0215198298470107, 0.021044699360325957, 0.020625725080752697, 0.020233805672410093, 0.019888329325346548, 0.01954741775690561, 0.019196694652437063, 0.018915123035620127, 0.018658184547935035, 0.018446326167246688, 0.018235790715775503, 0.018045113201800363, 0.0178858648654358, 0.017751088303106368, 0.01764981554187901, 0.017561898222379295, 0.01747006013636414, 0.017433414403239252, 0.01741845564994234, 0.017454857152678936, 0.01747892071755775, 0.017485594349675157, 0.01755968260952462, 0.017653244329979216, 0.01776797440343586, 0.017899697993949124, 0.018090500502318568, 0.018254787832653878, 0.01843969250933689, 0.018658553874948934, 0.01888097639112361, 0.019107962622478682, 0.019370539077774057, 0.01965036371643799, 0.01993569626548494, 0.020249806682602543, 0.020601315724250117, 0.020942172906463635, 0.02129841530249413, 0.02166195041641066, 0.022048037757787475, 0.02241273292029994, 0.022828917389200978, 0.023255248201186178, 0.023724140482142504, 0.02416588534554404, 0.024628129234877415, 0.02509044511834928, 0.02556328790449516, 0.02602175520123355, 0.026516801832780334, 0.02703125829194307, 0.027538930158119465, 0.02805374591329771, 0.028570518316736224, 0.02909864778314284, 0.029607843586757703, 0.03014921193155073, 0.030693588316698515, 0.031277074329870605, 0.03182198600556753, 0.03233090128952137, 0.03288848437691892, 0.033446666051884524, 0.03403221597003582, 0.03458728891520504, 0.035106229401308336, 0.03566782695950395, 0.03622739162091107, 0.03683319169500948, 0.037381788031760045, 0.03789013645484961, 0.03844283771360257, 0.03899177092515043, 0.0395459382514717, 0.04008515881991533, 0.04065463334317654, 0.04118051850742989, 0.04170320113429761, 0.04221170757407927, 0.04272718800689988, 0.043239666667443145, 0.043742668357009136, 0.04423899954639902, 0.044703895325326204, 0.0451884514432953, 0.045671911170374335, 0.04613616470667522, 0.0465908805379777, 0.04702826035748553, 0.047463845432899596, 0.047898746442066334, 0.04831087934513517, 0.04871211788123286, 0.04907599218834119, 0.04945771663893047, 0.04982234057800057, 0.05017769380460045, 0.050519240948850075, 0.05086273706322397, 0.051174334371016456, 0.051494114704834414, 0.05177617658697722, 0.05204563328007126, 0.052296459704900884, 0.052540162403686134, 0.052783747522663335, 0.052997158853682065, 0.05319666867996722, 0.053333390426356826, 0.05351014966136129, 0.0536879240947082, 0.05382714281313328, 0.053949957571642324, 0.05405441853619782, 0.05414441181362978, 0.05419992505102183, 0.054258592695276615, 0.054299393608797916, 0.05437652856600847, 0.05437500271106445, 0.0543168862068914, 0.05429107474566746, 0.05424758425761803, 0.054200455357196704, 0.0541199729658917, 0.05400873539351191, 0.05389643310633328, 0.05376646301653153, 0.05365901757347332, 0.05348886174914576, 0.05328578717365459, 0.05308724448869873, 0.052872069524204014, 0.05264584130479279, 0.05239665645247504, 0.052131153276828573, 0.05184932241357618, 0.05155117639425219, 0.051287129759503905, 0.05095010233234809, 0.05059507920089634, 0.05023166360869073, 0.04985875414117001, 0.0494662796863338, 0.04905965631079036, 0.04865931824957722, 0.048221574368787656, 0.0477893558691182, 0.04732285662253619, 0.0468440717277213, 0.04636962476464951, 0.04586369938256603, 0.0453582373411698, 0.044827318714767785, 0.04428522250840845, 0.04378969081419938, 0.04321768085595929, 0.042623623228499594, 0.04203688454647392, 0.041440627327365004, 0.040870224088729264, 0.04025027472900542, 0.03962742311097218, 0.03899157412061376, 0.03834815465569593, 0.03775495962222706, 0.03708900758304408, 0.036435586189773245, 0.03575866627228627, 0.03507789870845214, 0.034433156213077194, 0.033738987752786886, 0.03306144712268515, 0.03236056746941281, 0.03165824065475275, 0.030990630154711058, 0.03028024791774944, 0.029567306602477, 0.028857533709012076, 0.028147507015637587, 0.027491349618551326, 0.026774088102338018, 0.026089740932941374, 0.025374624066273853, 0.02466395774934654, 0.023956582634444484, 0.023254373894719012, 0.022593543231502797, 0.0218948280948153, 0.02120253633818196, 0.02052314452599558, 0.01984280927266768, 0.019215101347943648, 0.018542962683961686, 0.017880684113727098, 0.017210463936957982, 0.016570023332734277, 0.015967437479593876, 0.015341540515666562, 0.014726922317268484, 0.01414710596109996, 0.013552757396314516, 0.01298204440842113, 0.012413328104541143, 0.011858995571187159, 0.011336066423986553, 0.010809115788218738, 0.010314202558760338, 0.009817848458764917, 0.009339114156982128, 0.00889875050063976, 0.008453393319157834, 0.008030446956746245, 0.007624170233775936, 0.007238141226858435, 0.006890382375282741, 0.006543540522533112, 0.006258145678974867, 0.005951145526718804, 0.005669199237416762, 0.00544127501461108, 0.005205990210828459, 0.004989335265852057, 0.004809174751395228, 0.004655666376156464, 0.00451410626902344, 0.004416513327559438, 0.004381941845864882, 0.004333497526530955, 0.004314707156218106, 0.004326723278262244, 0.004367828979938373, 0.004467425336470098, 0.004566330023355981, 0.00469800939476584, 0.004839306865276676, 0.005040038751148323, 0.005314867524127013, 0.0055750012450735, 0.00587058293690034, 0.006179383133694231, 0.006549223964631794, 0.0069660013808518885, 0.007404384261784155, 0.007879181927667603, 0.008400096754380013, 0.008947675535721131, 0.009527750337519606, 0.010152554566243274, 0.010815812814219018, 0.011534719978977424, 0.012273969515029081, 0.013061290753409704, 0.013881082617123876, 0.014742456950815856, 0.015673640698846678, 0.01661536966911965, 0.017573021268438724, 0.018606167109617204, 0.01968179712150122, 0.020830112201467587, 0.021987969988699323, 0.023192883349460194, 0.024440981090238196, 0.025734590975544706, 0.027063576795373207, 0.028449907374117858, 0.029882540091039897, 0.031359746599704676, 0.03288288502042167, 0.034464329194412176, 0.03607853013209576, 0.037762460890171545, 0.03946864254114883, 0.041223696288662875, 0.04300426300421917, 0.044859931079848744, 0.046756596937007455, 0.04870836256737801, 0.05070770939857279, 0.052748353145783994, 0.05484441042321696, 0.05699676646809266, 0.05918781250903226, 0.06142770140712906, 0.06372402978995682, 0.06606104519437946, 0.06845607640535407, 0.07089129963448199, 0.07337667013645338, 0.07593546365077711, 0.07851803355718388, 0.08114724921861094, 0.0838327926346471, 0.08656892996405263, 0.0893396377351232, 0.09217848968663926, 0.09506191833084804, 0.09799982956742127, 0.10098668018775367, 0.10404579276367473, 0.10712754886513182, 0.1102510971478477, 0.11343405124687574, 0.1166662460056508, 0.11993538925747946, 0.12326710326429334, 0.1266692612519919, 0.1300941635787348, 0.13356818491564837, 0.137079825361423, 0.14065259186220835, 0.14428694120738303, 0.14795290662245764, 0.15166681831452414, 0.1554283323422604, 0.15923710667665514, 0.16309373276856717, 0.1669958843410841, 0.17094432040652768, 0.17495361398978954, 0.1789916642657359, 0.18308602550415898, 0.18721438807919266, 0.19138841167349005, 0.19561594134120242, 0.1998785855217631, 0.20417268911665187, 0.20852544721095537, 0.2129208498722145, 0.21733979239630297, 0.221821506586625, 0.22634720784830187, 0.23090865585708503, 0.235509935538717, 0.24014973282652294, 0.2448296325209415, 0.24954998064521355, 0.25430638322705984, 0.25910060346039043, 0.26392656823479627, 0.2687956917015725, 0.273715778378393, 0.278654613269155, 0.28362935876173034, 0.2886608452406287, 0.29370281177538266, 0.29875761001644374, 0.3038720460710665, 0.3090281795189526, 0.31420557533403026, 0.319414661598006, 0.32464355300900366, 0.32991536739084854, 0.3352292365070755, 0.3405567833188575, 0.34591283903703274, 0.3512976036916671, 0.3567083611275984, 0.3621436164282738, 0.3676065969812374, 0.3730943552249571, 0.37858190638812306, 0.3841201022443269, 0.38967392397827255, 0.39525473113933185, 0.4008553309419583, 0.4064844987201965, 0.4121218103072753, 0.4177954131315262, 0.42346689938142856, 0.4291565050762657, 0.4348484199742849, 0.44057351031626873, 0.4463029881126287, 0.45205792853744586, 0.45782543528702085, 0.46359549023703683, 0.46938722419246387, 0.47518701075097164, 0.48099814839422844, 0.4868177361504583, 0.4926721287217737, 0.49850306753627815, 0.5043203455185967, 0.510168613180008, 0.5160215246968232, 0.521872694558224, 0.5277332260817622, 0.5335891566319132, 0.5394535966105144, 0.5453180307724632, 0.551178907269615, 0.5570414066201473, 0.5628706424113519, 0.568731304520736, 0.5745861873615198, 0.5804440577836267, 0.5862844700160753, 0.5921066161470048, 0.5979335485840466, 0.6037512510530793, 0.6095338272524908, 0.6153341100342482, 0.6211122217056213, 0.6268874239799604, 0.6326480617572527, 0.6384019456461029, 0.6441305898159203, 0.649816198016981, 0.6555155331775558, 0.6611958059167632, 0.6668536225809836, 0.6724942972174207, 0.678073725584923, 0.6836765304605426, 0.6892545506747049, 0.6948288209722312, 0.700353222799241, 0.705830196213873, 0.7113065890882181, 0.7167551329063419, 0.7221714679774799, 0.727562864486803, 0.7329092829987838, 0.7382417700262378, 0.7435419482898997, 0.7487979941061496, 0.7540330522956036, 0.7592238609407631, 0.7643896318141312, 0.7695186716407816, 0.7745991716485184, 0.7796542934563282, 0.7846458659164187, 0.7896248641298632, 0.7945619636491248, 0.7994688237949692, 0.8043191376850616, 0.8091108320557354, 0.8138769466418309, 0.8185980208358193, 0.8232380107141561, 0.8278716893813153, 0.8324536932905722, 0.8369896025247231, 0.8414756855850046, 0.8458891085187676, 0.8502770037786469, 0.8546562261179553, 0.8589331654599127, 0.8631592666728778, 0.8673057372690391, 0.8714313028142995, 0.8754712938209852, 0.8794906360035918, 0.883452360664141, 0.8873794691086871, 0.8912220003219243, 0.8949782187348263, 0.8987090152267917, 0.9023795757246613, 0.9059727295550268, 0.9095237857517846, 0.9130329879474467, 0.9164563854879172, 0.9198179178467916, 0.9231123971678242, 0.9263492207279733, 0.9295158211901442, 0.9326256082458906, 0.9356703822785373, 0.9386338619496626, 0.9415493523128607, 0.9443864799400603, 0.9471687610195965, 0.9498826532330793, 0.9525540594070602, 0.9551271917705281, 0.9575916412612141, 0.9600342312699714, 0.9624059652435148, 0.9647272676154935, 0.9669543690682031, 0.9690936758902445, 0.9711825646102047, 0.9731997641759842, 0.9751479192750746, 0.97702091840679, 0.9788303059111103, 0.9805580408406432, 0.9822138719732549, 0.9837593042258048, 0.9852754523584132, 0.9867047409174822, 0.9880730742966789, 0.9893662011514592, 0.9906206798793186, 0.9917592828699596, 0.9928055715001016, 0.9938010238700717, 0.9947223086327299, 0.9955507844832742, 0.9963261517185736, 0.9970562259175285, 0.9976777035256746, 0.9982260623669714, 0.9986825667565861, 0.9990868444068068, 0.9994130703637498, 0.999669327638747, 0.9998513552070197, 0.9999668056232205, 1.0, 0.9999506331105908, 0.9998386893729633, 0.999653296149952, 0.9993583181596636, 0.9990313870638338, 0.998631605300763, 0.9981555718866203, 0.9976060336932631, 0.9969993544812911, 0.9963022937752254, 0.9955350144681526, 0.9946958688965749, 0.9937863055155112, 0.9927674862764169, 0.9917230957564611, 0.9906323567515294, 0.9894424019652501, 0.9881836943426813, 0.9868286937824279, 0.9854373755536746, 0.9839920336009238, 0.9824616248347784, 0.9808644846314483, 0.979176903428879, 0.9774510155439852, 0.9756614906438491, 0.973803134942936, 0.9718799994868039, 0.9698731964265427, 0.9678250854507408, 0.965736513027071, 0.9635587260758246, 0.96132013197218, 0.9590026906991705, 0.9566467100540108, 0.9542204997297665, 0.9517466823296913, 0.949201784051857, 0.9466124645339681, 0.94396523521035, 0.9412815627227682, 0.9385187205793714, 0.9356888228048198, 0.932820368366149, 0.9298986436881898, 0.926908635256473, 0.9238849141749208, 0.9208422212208944, 0.9177120883120213, 0.914534086630818, 0.9112921030574328, 0.9080225520273193, 0.9046680464877803, 0.9013108086071034, 0.897906485687521, 0.8944879932025233, 0.8909890366781039, 0.8874305313634814, 0.8838510201120674, 0.8802303965178347, 0.8765500753939016, 0.8728527178213024, 0.8691394695887089, 0.8653618741246863, 0.8615486318153763, 0.857683857506863, 0.8538041752978717, 0.8498915763461289, 0.845945134267244, 0.8419669979794283, 0.837940468430213, 0.833904260173752, 0.8298430879413741, 0.825748181359214, 0.8216261836440901, 0.8174772307635911, 0.8133043623084732, 0.8090879260626658, 0.8048706256835343, 0.8006303222437695, 0.7963849886187335, 0.7921000653911461, 0.7877816111469423, 0.783462338431047, 0.7791255603956573, 0.7747331746664531, 0.7703695722162582, 0.7660099889650964, 0.761612127921216, 0.7572015593708958, 0.7527905642419754, 0.7483563979852895, 0.7438918841530838, 0.7394435875515081, 0.7349870605434116, 0.7305280639445532, 0.726057747652319, 0.7215640140826716, 0.7170875282271328, 0.7126071944827196, 0.7081231861980877, 0.7036385617620904, 0.6991831188285276, 0.6946943975256374, 0.6902087049077549, 0.6856698664691593, 0.6811996486683487, 0.6767697548822181, 0.6723000597336172, 0.6678369632366954, 0.6633691455762314, 0.6589232015172928, 0.6544464003157155, 0.6500229569497888, 0.6456074034427749, 0.6412009086581695, 0.6368045859232366, 0.6324055027141754, 0.6280344335356259, 0.6236758008821666, 0.6193269177024506, 0.6149967140093664, 0.6106761263510753, 0.6063779933567459, 0.6020965870701164, 0.5978766553709942, 0.5936258086083652, 0.5893668640864334, 0.5851637372971354, 0.5809815626595096, 0.5767930401955548, 0.5726583555344604, 0.5685842411929922, 0.5644882232586214, 0.5604174459457296, 0.556327572842116, 0.552314279381854, 0.5483698345797801, 0.5443998114710836, 0.540457923608391, 0.5364932069531588, 0.5326151322116486, 0.5287727030770695, 0.5249468494442905, 0.5211493221353483, 0.5173937778923247, 0.5136530014630389, 0.509957894335694, 0.506277105209943, 0.5026286632763349, 0.49898481986612947, 0.4954053341994624, 0.4918452177634072, 0.4883307241535107, 0.4848479413157902, 0.4814001671429176, 0.4779819086574461, 0.4746108920618097, 0.4712577222087546, 0.46793928284437736, 0.46465390136906637, 0.4614057264175334, 0.45817499276097007, 0.45499956591324153, 0.4518586391364977, 0.4487366360843557, 0.4456675364208864, 0.4426412034237361, 0.4396401035910612, 0.43667444625070706, 0.4337490688831806, 0.43085419596696994, 0.42797027086550715, 0.4251509147710666, 0.4223663737857222, 0.41962619747064006, 0.41691072336696905, 0.4142348539600897, 0.41159067922500653, 0.4089826134556149, 0.40641340349120386, 0.4038770273364736, 0.40133658904441055, 0.3988772717271819, 0.39645149349103465, 0.39409674433883524, 0.39173378492018235, 0.38937229758769965, 0.38708541449377015, 0.38483203598801236, 0.3826317515575016, 0.3804428567541386, 0.3782641864118771, 0.37614705585053476, 0.3740625011963895, 0.3720029656553138, 0.36998419391293524, 0.36801959312676247, 0.3660614219780933, 0.3641359995095145, 0.36224202136263706, 0.3603810941489625, 0.35853120569694713, 0.35673562146558807, 0.3549696808563499, 0.3532602116500022, 0.35154942430204505, 0.3498681025677047, 0.3482177114971596, 0.3465966356787643, 0.3449903815442908, 0.343428213528478, 0.34188282768797407, 0.34037567115545037, 0.3388942193534794, 0.33741949575490215, 0.3359908417947296, 0.3345867678327995, 0.33320506616253365, 0.3318465817921921, 0.33055113613624376, 0.32923309530485506, 0.327904099130964, 0.32663884351797795, 0.32539472854322415, 0.3241919089633217, 0.32298634811944976, 0.32176272634232184, 0.3206037816950399, 0.3194625940899953, 0.31834170257102806, 0.3172348618710554, 0.3161907748850195, 0.3151118557141128, 0.3140517729550369, 0.31298269009904744, 0.31196139075323187, 0.3109570208117035, 0.30996513036627316, 0.30895851678513475, 0.3079981767329859, 0.3070494005656158, 0.30613896960491915, 0.3052090449704351, 0.30429315821182445, 0.30338677052137625, 0.3024915244361815, 0.3016143115573926, 0.3007386966500414, 0.2998794818427602, 0.2990221724761335, 0.29817390018164425, 0.2973153757233889, 0.2964856687188277, 0.29568638028437905, 0.2948655053135211, 0.29405130533236257, 0.2931937110427399, 0.29239727393223913, 0.2916262674526764, 0.29083093514255126, 0.2900386714944351, 0.2892154861477595, 0.28843239771636076, 0.2876614126855346, 0.28687660761817463, 0.28609216146932726, 0.28532457841095554, 0.28453784558587614, 0.2837496446173211, 0.2829634881949469, 0.2821767248928753, 0.2813544146909212, 0.28056955240150777, 0.27979957275341577, 0.27900468072487694, 0.27820680092511696, 0.2773888259129991, 0.27658615276558957, 0.27581312949822295, 0.274996174422434, 0.2741759206344366, 0.2733164363985874, 0.27249265875980366, 0.2716622331848896, 0.27082503893601884, 0.26998094171588616, 0.26914192495709205, 0.2682820431290198, 0.26742294212236806, 0.2665484869087883, 0.26566724940327796, 0.2647733263597881, 0.2638783331435141, 0.2629679142452469, 0.2620577305870376, 0.2611387551555779, 0.2602127236684985, 0.2592755409155666, 0.2583320889254838, 0.257376281826738, 0.25641130256578193, 0.2554388751082945, 0.25445490021117556, 0.25343627311064315, 0.2524364351524539, 0.25142548424081573, 0.250396058533863, 0.24936411849903772, 0.2483087867858231, 0.2472559837191865, 0.24619148078740122, 0.24517892128857907, 0.24408357559707528, 0.24293957750626208, 0.2418338549073773, 0.24071754680310378, 0.23956832276737935, 0.23843386074676262, 0.23730360816847837, 0.2361440876517254, 0.23497428693778352, 0.23377096968771674, 0.23258382548329984, 0.23143481434640842, 0.23021907348820658, 0.22899534617862, 0.22773456423427327, 0.22649812032659733, 0.22527226145311466, 0.22401352850798922, 0.2227463821458853, 0.22145965017704147, 0.22017718559151472, 0.21890447473039523, 0.2176020144638927, 0.2162920537842571, 0.214924250919562, 0.21360580358839415, 0.21231733958312277, 0.2109740642237116, 0.2096239045894606, 0.20825300112890452, 0.20689126444806252, 0.2055139145150719, 0.2041390998949664, 0.20275718295649497, 0.2013815847985676, 0.19998488113882182, 0.19858286210288228, 0.19717576034908946, 0.19576381644095972, 0.19432208770487136, 0.1929043955690212, 0.1914653512906598, 0.19003915195608242, 0.188607491848029, 0.1871625347437974, 0.1857226654048496, 0.18432976962290223, 0.18287527442475104, 0.18142037539178754, 0.17994928544083214, 0.17849583231221441, 0.1770423181535829, 0.17558703465491454, 0.17413136563736323, 0.17267932065400587, 0.17122324677282505, 0.1697482521358457, 0.16829626154085203, 0.1668443751066141, 0.16537623311170316, 0.1639279671568402, 0.16250624975290134, 0.16105606298509195, 0.1596088053624691, 0.1581600835175191, 0.15672009291562222, 0.15528639546088274, 0.1538533596602231, 0.15242461405136695, 0.15097712828587084, 0.1495607962751113, 0.1481324703937991, 0.1467263614377547, 0.14532417356105437, 0.14392554039128586, 0.14253297709281398, 0.14119159587559893, 0.13980466107634024, 0.13842668522830417, 0.13701667470751017, 0.13566200375581697, 0.13435248049879728, 0.13300721313156855, 0.1316718628068751, 0.13030174140578643, 0.12899219086688007, 0.12771557094245725, 0.12641881680582498, 0.12513218665462153, 0.12383632381189087, 0.12257312451937129, 0.12136070141373154, 0.12011214645141315, 0.11887636834125831, 0.11760766278393975, 0.11640327664062326, 0.11520080329620676, 0.11401853480368591, 0.11284694654727956, 0.1117182038966699, 0.1105652615533431, 0.10941667882142034, 0.1082923870746605, 0.10718144953900258, 0.10607564414011234, 0.10499299445483926, 0.10394612389845154, 0.1028876404241273, 0.10184423138181026, 0.10079911694448156, 0.09978803122646863, 0.09880327433226437, 0.097819227297768, 0.0968503938773525, 0.0959033570689295, 0.09496428279333523, 0.0940026958058905, 0.09309993904732498, 0.0922107834967919, 0.09134674353419257, 0.09048429528623747, 0.08961733669852595, 0.08878766138844552, 0.08797221387044862, 0.08717778086055455, 0.08639069613195499, 0.08561700655278498, 0.08486078794172408, 0.08411992119017606, 0.08340755173277953, 0.08269596858369054, 0.08198760250275894, 0.08131015317468693, 0.08066115804977333, 0.08001286627149187, 0.07938073270246668, 0.07878610485913898, 0.07818324025835799, 0.07755355182078674, 0.07698999805145891, 0.07644045604051142, 0.07591435813899157, 0.0753919386511314, 0.07488987587281781, 0.07439621398009517, 0.07391750748266793, 0.07345083469267856, 0.07300201870921798, 0.07257787792234367, 0.07215647129505623, 0.07174980933487744, 0.07136513968760273, 0.07098637736785532, 0.07059787985981326, 0.07025095980364322, 0.0699166695367445, 0.0695930836305872, 0.06928409226328999, 0.06898832715716037, 0.06870370902233104, 0.06843122939340601, 0.06816888781698213, 0.06792050457183502, 0.06770517204568424, 0.06747710370388278, 0.06726150774282194, 0.06702537784425161, 0.06683781122640205, 0.06669997942830541, 0.06652651311307203, 0.06636477002735611, 0.06618353164003234, 0.06604785738620486, 0.06596106308250148, 0.0658377089142366, 0.06572509025674457, 0.06559100056996865, 0.0655024348678299, 0.06542237771435139, 0.06534868516477806, 0.06528228744958946, 0.06524445073374854, 0.06518934177750864, 0.06512159928428946, 0.06508447729829137, 0.06505332393386778, 0.06501767456919612, 0.06499914129664228, 0.06500122854074271, 0.06499006401233744, 0.06498424145129054, 0.06498998611706149, 0.06499310659813431, 0.06499635910067109, 0.06500931050821027, 0.0650260996164442, 0.06503056597556417, 0.06505613914940821, 0.06511922108886527, 0.06514425640130324, 0.06517299177414489, 0.06518162618340652, 0.06521930646124109, 0.06529440712134205, 0.0653293333638193, 0.06536688899962725, 0.06539535659276917, 0.0654380550621582, 0.06545236378122156, 0.06549944406672324, 0.0655447659722784, 0.06560877296598498, 0.06564771865082455, 0.06566803389535315, 0.06570711947517202, 0.06574372647506327, 0.06578891494305693, 0.06581873131936897, 0.06584532700909954, 0.06587043272518023, 0.06589269637288804, 0.06593987081517054, 0.06595220464940998, 0.06593551119804726, 0.06594687416680668, 0.06595387863522892, 0.06598434210404207, 0.06597857405628903, 0.06594617723644026, 0.0659363539488779, 0.06592115407947918, 0.06593121310943824, 0.06590090914757595, 0.06586930036913448, 0.06583003934723126, 0.06578607343759055, 0.06573518188722996, 0.06568100841277566, 0.06556880281271599, 0.06550941005606452, 0.06544081017503138, 0.06540239383008443, 0.0653110065679677, 0.06518140658724282, 0.06508084639097046, 0.06497162673638512, 0.06489861349856521, 0.06476664154882347, 0.06459513035875218, 0.064455175871758, 0.06430676541527233, 0.06416856537743579, 0.06400089777160889, 0.06378570648435515, 0.06360814333332009, 0.06342062382705277, 0.06324293588811541, 0.06303358575604594, 0.0628280178638697, 0.06260040935766394, 0.06236507375449703, 0.06212281956279575, 0.06187155348685188, 0.061585227122336904, 0.06132128573062702, 0.06104765787994629, 0.06077662753529857, 0.06048254390328236, 0.06020040363978268, 0.05988657965337882, 0.05956536756281476, 0.05922449970622058, 0.058889652726694094, 0.05853799451556668, 0.05818740673398274, 0.05782799298005787, 0.057477588008430974, 0.057098603439703986, 0.05668785018885517, 0.056296873574701, 0.055896968097045786, 0.05547339806956256, 0.05505808976229773, 0.05464009659444301, 0.054205819936611985, 0.05376325156189948, 0.05334617722686331, 0.052883364098500835, 0.05240818193348952, 0.05193442333540864, 0.05145429835909405, 0.050959421843729855, 0.05046767838293197, 0.049968250360053146, 0.04946324926127373, 0.04895170467002779, 0.0484393600403886, 0.04791446122879235, 0.0473641886850354, 0.0468303171513534, 0.04628979805954908, 0.04573732031230515, 0.04518506251944711, 0.04466585477004383, 0.04409667175071214, 0.04352413922582116, 0.04294821676043101, 0.042368892359769636, 0.04176845313523288, 0.041184631373142516, 0.0405965228153403, 0.03999221904760129, 0.03939773141567813, 0.03884092115856364, 0.03823282805364853, 0.03762340615803555, 0.036967828419198726, 0.03636131217349272, 0.03578823469124936, 0.03516964089246059, 0.03455004449255212, 0.03390058452640929, 0.033282844245996375, 0.03269070903287203, 0.032065007145386314, 0.0314391695697002, 0.03082635110861666, 0.030198885006713368, 0.029567674954505886, 0.028942670197847676, 0.028318407601318398, 0.02770339633003519, 0.027079907524216382, 0.026461742223084065, 0.025841047518839245, 0.02521860558808992, 0.02460243894751802, 0.02398823871621046, 0.02336122687347989, 0.022753305955060022, 0.022175913307824664, 0.02156784143834535, 0.020963578708352495, 0.020374365499926803, 0.01977645962363008, 0.019182251104227943, 0.018593733032655695, 0.018009836235350612, 0.017469809967038476, 0.016890410978480166, 0.0163143450195983, 0.01574934551309594, 0.015190848059210189, 0.01462664822895966, 0.01408249836092953, 0.013582301395339624, 0.013044835223148017, 0.012515468069484828, 0.01199123665966973, 0.011477975548418898, 0.011000288847070641, 0.010498641989065704, 0.010006147588896517, 0.009573934063741562, 0.009092749080174177, 0.008605457155621048, 0.008149289028646273, 0.007702903135449501, 0.007301593116860037, 0.006869859281659709, 0.0064990100731029095, 0.0060835844077349426, 0.00568181479961748, 0.005284724895039112, 0.0049096938410721465, 0.004607051560040184, 0.004247606385030737, 0.0039029020162216176, 0.0036143199009158506, 0.0032920892489313475, 0.002979865200326632, 0.0026889040857706464, 0.0024120565520344105, 0.0021899941876954605, 0.0019351305862255436, 0.001689264109887577, 0.001465802796108684, 0.0012566431103398577, 0.001117524035259048, 0.000929239184339086, 0.0007634768802406068, 0.0006078284335187684, 0.0004685104872227878, 0.00037875219367624696, 0.0002668577376348534, 0.00021153219271102954, 0.00012904516286830358, 6.542085425247856e-05, 2.850521488766414e-05, 0.0, 5.348526442575201e-06, 1.0492912474344473e-05, 3.394045509834916e-05, 0.00010057693235629625, 0.0001566092080505385, 0.0002503281642939075, 0.0003417536146038442, 0.0004527270546462978, 0.0006221262314073016, 0.0007663948035184675, 0.0009363734709201487, 0.0011217228496331842, 0.0013276297779493931, 0.0015929917196241096, 0.0018342691862612084, 0.0020761934891247403, 0.00236398758296741, 0.0026719554263676757, 0.003001892902766954, 0.003349808288230665, 0.0037309859022111812, 0.0041176852520330215, 0.00452541787433558, 0.005006416998947039, 0.005449602352252555, 0.005903747686495561, 0.006396283330064884, 0.006911491197526739, 0.007460464992212469, 0.008019338999459868, 0.008623724317037612, 0.009225928879405227, 0.009852394227501877, 0.010529060406137483, 0.011200245480780774, 0.01188649352225104, 0.012609372073398503, 0.013356549752523384, 0.014147560619961317, 0.014940720273253376, 0.015764806849706506, 0.01660779775531772, 0.017476237491490163, 0.018371909839532945, 0.01929080362527298, 0.020251909999125222, 0.021219523382016343, 0.022213536335346507, 0.023220808735043216, 0.02426907461490619, 0.025356873771416162, 0.026454571784438226, 0.027578854649200565, 0.028719492760897563, 0.029898364277251968, 0.031115534936776927, 0.03234538519765899, 0.033602433081937874, 0.03491754683686827, 0.03622534938377515, 0.03755768951486524, 0.038924353460386724, 0.040319729891618895, 0.041741929868266796, 0.04319492394207762, 0.044673731618883765, 0.046184364348455346, 0.047723586859826736, 0.04929430815105444, 0.050890694545450664, 0.05251991271984, 0.05417413450562336, 0.055857887679397075, 0.05758152526234632, 0.05932332223317469, 0.06108992222327773, 0.06289325700023107, 0.0647267493808792, 0.06660169549749775, 0.06849439350963224, 0.070404197870678, 0.0723608902553743, 0.07434795677183978, 0.07639541276199553, 0.07843992760913314, 0.08052348944517825, 0.08263211742521887, 0.08477346669830027, 0.08695210389092087, 0.0891580369848672, 0.0913827382472123, 0.09365589974967448, 0.0959609266393521, 0.09828577639767191, 0.10065632896498518, 0.10307046013751422, 0.1055025665851054, 0.10796716676327764, 0.11048112028054376, 0.11300878247623629, 0.11554955320510386, 0.11814700906585647, 0.12077682202273773, 0.12346897035793998, 0.12616008097137119, 0.1288697026621885, 0.13163141669422732, 0.1344263415513153, 0.13725356432747438, 0.14011508846615556, 0.14300423084091485, 0.14593291860025198, 0.14889455164924364, 0.15192371119684672, 0.1549470419537737, 0.1580054071938238, 0.16109856041784879, 0.16422628001039674, 0.16735757734618936, 0.17055774106251578, 0.17379579411126028, 0.17705992797455047, 0.18035683795214194, 0.18370426245976249, 0.18706450591496393, 0.190450121609225, 0.19387879790340715, 0.19734044388911545, 0.20085736224982695, 0.20438184419930205, 0.20792907363144855, 0.2115225720954979, 0.21514883003054938, 0.2187927532182848, 0.22248591821158537, 0.22625062290166711, 0.23000150826708957, 0.233785949669081, 0.23761100457489592, 0.2414604188490502, 0.24532493014589946, 0.24924182875811934, 0.25319909914523664, 0.25717668078227723, 0.261185383907939, 0.2652267738144139, 0.2692965875314725, 0.2733930085062768, 0.2775236685563174, 0.2816838531754644, 0.28586676138752987, 0.2900860068385467, 0.29433731959237175, 0.2986125321672852, 0.3029158133917809, 0.30726926792965126, 0.31162498531578253, 0.31597648548062224, 0.3203927119446075, 0.32483456689966866, 0.3292999752146587, 0.3337926710811118, 0.33831019083277114, 0.34285227019874925, 0.3474186218650304, 0.35204345728537123, 0.3566530408820433, 0.3612859800086708, 0.36594559726324555, 0.37062905752752995, 0.375318967765925, 0.38005044972332697, 0.3848263873898149, 0.389596742543527, 0.3943886464327756, 0.39918838640021426, 0.40402309846856016, 0.4088655107502101, 0.41373891346868097, 0.41862954256153895, 0.42351922934487773, 0.4284452077154397, 0.4334037622638596, 0.43835684394621527, 0.4433250272677029, 0.4483021515051133, 0.45329954559687646, 0.45829974050963174, 0.46332400708079097, 0.4683596398467764, 0.47339214179661204, 0.47845074474581245, 0.4835230132378261, 0.48859856759531006, 0.49368243020773894, 0.4987787029023014, 0.5038768786276121, 0.508952941583133, 0.5140677260288383, 0.5191863468164889, 0.5243204693724144, 0.5294437976854784, 0.5345393437309636, 0.5396719032128332, 0.5448043731737198, 0.5499689445582787, 0.555095669163176, 0.5602160796581804, 0.5653432107118539, 0.5704684844427007, 0.5755705713612641, 0.5806923065428405, 0.5857806086266427, 0.5908943355150431, 0.5959997010753967, 0.6010943537653175, 0.6061817265367859, 0.6112814251306395, 0.6163452307329085, 0.6213989811182722, 0.6263970374852581, 0.631433765922218, 0.6364646675064971, 0.6414693874167025, 0.6464583940605605, 0.6514226066918171, 0.6563791668663336, 0.661282883588026, 0.6662064659792813, 0.6711083655679236, 0.6759769123385782, 0.6808353823680118, 0.6856550259625509, 0.6904670488285207, 0.6952532093868263, 0.7000213906305542, 0.7047531683595841, 0.7094354634582889, 0.7141151631015401, 0.7187650312840842, 0.7233490128379051, 0.7279418520696695, 0.7325056041151697, 0.7370299169322856, 0.7415198105601607, 0.7459877562610701, 0.7504053433806929, 0.7547593541682132, 0.7591084937118764, 0.7634188336514133, 0.7676701645881326, 0.7719034948972755, 0.776115493903781, 0.780261957978747, 0.7843665604433896, 0.7884294329906566, 0.7924477795168333, 0.79639482650358, 0.8003272751427085, 0.8042122940192341, 0.8080651259222331, 0.8118514005263469, 0.8155817458974528, 0.8192712245513186, 0.8229102031184498, 0.8264914076050129, 0.8300279803362294, 0.833492792881069, 0.8369248326787869, 0.8403013387441547, 0.8436236311025277, 0.8468871779958397, 0.8500842778862512, 0.8532341657041146, 0.856325197399696, 0.8593139155400715, 0.8622910302604734, 0.8652192244601458, 0.8680685188198104, 0.8708551968305528, 0.8735564483859888, 0.8762194497545233, 0.8788154010918373, 0.88134798350937, 0.883814672155903, 0.8862151375256818, 0.8885490266993464, 0.8908169008308842, 0.8930163893325509, 0.8951481977971708, 0.8972025834240106, 0.899198969006812, 0.9011538934837466, 0.9030074975799756, 0.9047925342000943, 0.906472975688557, 0.9081236655807005, 0.9097086900980551, 0.9112139549320339, 0.9126469679307017, 0.9139990587800096, 0.9152878132421157, 0.9165170322308299, 0.9176567673933849, 0.9187233797732787, 0.919692313263183, 0.9206148705759761, 0.9214835636146229, 0.9222527155300041, 0.9229476520102529, 0.9235429576173825, 0.9240919960061632, 0.9245582660254738, 0.9249556989823202, 0.9252766122621938, 0.9255127013032197, 0.9256819088350341, 0.9257491990840525, 0.9257682904982777, 0.9257095391729165, 0.9255826193402181, 0.9253680096556435, 0.9251115604493595, 0.9247400704978026, 0.9242945633391565, 0.9237171160927493, 0.9231306912107639, 0.9224976644264987, 0.9217530565814362, 0.9209337426347222, 0.9200081983713752, 0.9190440892791345, 0.9180003970626002, 0.916885554305313, 0.9156956290541285, 0.9144525794654541, 0.9131112620372976, 0.9116770054558703, 0.9101937562317841, 0.9086375594272487, 0.9069893237201431, 0.9052912115821443, 0.9035401463653516, 0.9016951254638378, 0.8997678345316639, 0.8977845404738741, 0.8957313867953226, 0.893608969432281, 0.8914178849133856, 0.8891624642046058, 0.8868353747261047, 0.8844416385942302, 0.8819706457893275, 0.8794468012827826, 0.8768509445104158, 0.8741976761303735, 0.8714799882331656, 0.8686697295437231, 0.8658291718772307, 0.8629295470352207, 0.8599619388496238, 0.8569328414332503, 0.8538291779957279, 0.850681611936454, 0.8474959456570054, 0.8442275460531276, 0.8409027669548279, 0.8374869433560561, 0.8340562613989625, 0.8305975896637606, 0.8270525087971125, 0.8234551913166902, 0.8197700767633673, 0.8160753741590322, 0.8123344970288371, 0.8085366887906295, 0.8046896900568825, 0.8007842909658432, 0.796843353996624, 0.7928697651788235, 0.7888348662432085, 0.7847562901636954, 0.7806219309794376, 0.7764605211857035, 0.7722370481209156, 0.7679962257146815, 0.7637148384963055, 0.7593922347746845, 0.7550335695952043, 0.7506433975983595, 0.74621097262275, 0.7417440520040778, 0.7372334478450489, 0.7327020488475021, 0.7281621005173857, 0.7235651373168053, 0.7189398593033902, 0.714258259733402, 0.7095827678049607, 0.7048558603953751, 0.7001302992221097, 0.6953785571826655