0.019216166468076074, 0.019145107271642665, 0.01902992783874284, 0.0189519856071974, 0.018890354511229362, 0.018850579296434692, 0.018719721632662417, 0.018728133948031196, 0.018812653527232548, 0.018825546856241826, 0.01884737932972174, 0.018812620023105717, 0.018856781710628486, 0.018899929681555974, 0.01894858183979836, 0.018998990662827522, 0.01902616188686948, 0.01908353458279852, 0.019177700107398395, 0.01923249596448081, 0.019290998845141998, 0.019439557795355233, 0.01949519469178118, 0.01944257555302929, 0.01953113602816458, 0.019621648668901488, 0.019728960654358974, 0.01982380507091225, 0.019904734172565268, 0.020012251406036723, 0.02012463725716544, 0.020239400214059042, 0.020363805023654934, 0.02050254471186996, 0.02063951919326085, 0.020784510101881145, 0.02092854041051024, 0.021091994804339147, 0.021373790328325506, 0.021541180054274828, 0.021724241352764646, 0.021834743935810242, 0.022058810103447454, 0.022259459944756286, 0.022507077872372196, 0.022763166825680997, 0.023123931014790537, 0.02338676544550225, 0.023588456978898362, 0.023891961387387556, 0.02420629313765236, 0.024488043941484912, 0.02483090789795822, 0.02523197215788495, 0.025588695020915684, 0.025959160672072944, 0.02638900540476135, 0.026781830067391592, 0.027139861772237105, 0.027572859252230936, 0.02801956587227769, 0.028450549174073345, 0.028929416561549834, 0.029488634147721633, 0.029985495638550345, 0.03050015070646377, 0.03099961818330953, 0.03155380322683023, 0.03203919610641424, 0.03263595588072954, 0.03324432112654762, 0.03388717185944507, 0.034518732757133824, 0.03516101970882636, 0.03582455848494995, 0.036504281580232736, 0.037206945023819965, 0.03791967603237434, 0.038675366599771194, 0.0394210562717397, 0.04018670209136283, 0.04090817447642046, 0.04172215585031775, 0.042552809429378044, 0.04340077548540618, 0.04426663793860215, 0.04514309743548488, 0.04604729724454692, 0.04697042176562788, 0.04791294429513213, 0.04887529759810435, 0.04990957341816534, 0.050906209596636366, 0.051958004893099735, 0.05299823213636667, 0.0540638654773528, 0.05516086998788324, 0.056275675858034335, 0.05739669979815737, 0.058563715031358335, 0.05975433846320832, 0.06089341707962285, 0.06214090238048493, 0.06345807724581055, 0.06473903873655626, 0.06604369613956575, 0.06733775436756895, 0.0686946630010206, 0.07000490162660485, 0.07141547315650011, 0.07284526248812762, 0.07428578313942104, 0.07575783191881774, 0.07725884323860459, 0.07877286898936994, 0.08030979248996242, 0.08195781825949104, 0.08353082059974049, 0.0850404740254047, 0.08668291587353129, 0.08834849088051469, 0.09002508829701991, 0.0917397185265082, 0.09354052956523531, 0.09529463583729143, 0.09707643901769672, 0.0988637540099063, 0.10070297805710239, 0.10262904616112396, 0.10451200974697658, 0.10642407030362677, 0.10835214858613178, 0.11032239797236364, 0.11231171654387306, 0.114336452399601, 0.11638705956753502, 0.11838501224588505, 0.12049667579237154, 0.12262610981525912, 0.12478042970501259, 0.1269563096844002, 0.12920108196914365, 0.13141508475023753, 0.13367290308959986, 0.135934343201194, 0.13822141161769208, 0.1404444386241874, 0.1427929339509027, 0.1451766192317594, 0.1475625604963704, 0.14996957927712695, 0.152491763925613, 0.1549292939766631, 0.15729932743232516, 0.15980093129225822, 0.16232221024395804, 0.16491021862551186, 0.16746503141396019, 0.1699795246229247, 0.17258648382560787, 0.1752113577887594, 0.17787613647543615, 0.18053418552904354, 0.183228620270018, 0.1859225228150257, 0.18863597302630636, 0.1913136861491236, 0.1940717925389128, 0.1969562171542514, 0.199730429634515, 0.2025258790158093, 0.20523031787339166, 0.2080792936961654, 0.21093567480954506, 0.21380949448591827, 0.21669516902599023, 0.21969134044394595, 0.2225880406732399, 0.22538745864260482, 0.2283317593823062, 0.23128475733975018, 0.23428406256331627, 0.23724967025588128, 0.24023218297194596, 0.24321779110038222, 0.2462134029732816, 0.24923724966881816, 0.25224878312920807, 0.2551944583950495, 0.2582334284898986, 0.2612760452019263, 0.26443028533701785, 0.26746612397915925, 0.27046728334521086, 0.2735258739984949, 0.2765889245527208, 0.2796494734160419, 0.2827201536456697, 0.2858038329785428, 0.28887655901051973, 0.2919506606741539, 0.29503793961091607, 0.29811102371331516, 0.30119811477996855, 0.3042684207465505, 0.3073378192928418, 0.3103928854201692, 0.31345940273917045, 0.31645591659984107, 0.3195216149696779, 0.3226516072507594, 0.3256891539289632, 0.3287210843003205, 0.33170108390988173, 0.33472489268344086, 0.33778494232764267, 0.34078084219715954, 0.34376768146775033, 0.34670540765808794, 0.34967643233914664, 0.35266336183185926, 0.3556023939373972, 0.3585281931938746, 0.36137730672588586, 0.3642821983902064, 0.36718522991948416, 0.3700495024239806, 0.3728950829200722, 0.37575750398442803, 0.3785596266255052, 0.38122915547722913, 0.38400840380813095, 0.38676129865540804, 0.3894707030081449, 0.39217325436412376, 0.3949315069160598, 0.39756887698651194, 0.40018342405981866, 0.40276957966870014, 0.40533648143743545, 0.40790279381762407, 0.4104144279564449, 0.41290024158408295, 0.4152668353904738, 0.41770980436411204, 0.42022703273269585, 0.42258853951210834, 0.42492194949841255, 0.427166612360678, 0.4294480461010258, 0.43171051093587803, 0.4339202145350127, 0.4360951878195322, 0.4381972037937197, 0.44030558574735307, 0.4424363524499647, 0.44445928586918343, 0.44644630018538645, 0.448274357699155, 0.45020247530301355, 0.45209321795848856, 0.45393017430409627, 0.45572276150818797, 0.45746629205157713, 0.45917070851978264, 0.46082094834636134, 0.46243688175865105, 0.4640072307898395, 0.4655616317671931, 0.46703662247290856, 0.4684859902035361, 0.4698692824602644, 0.47120825351738016, 0.47256650937407163, 0.47380687948472344, 0.4749029232540273, 0.47607010229806546, 0.477187032491442, 0.47833823519958196, 0.4793437348172601, 0.48020475893650966, 0.48113035340366744, 0.4820030672555879, 0.4828480802729926, 0.4836121727490908, 0.4842952666744843, 0.48496047011657345, 0.4855724046489563, 0.4862219906879584, 0.48671606225412406, 0.48712448654024665, 0.4875264826242505, 0.48787694138369236, 0.48818655444235354, 0.4884317602918824, 0.4886159127211282, 0.4887587237368192, 0.4888488417572216, 0.4888187813388941, 0.48881167954888577, 0.48876033407795694, 0.48863858347159833, 0.48846169011824087, 0.48834274620788876, 0.48804219411606664, 0.48767018154422936, 0.48727602070648657, 0.4868313721981425, 0.4862592078537595, 0.4857225465000855, 0.48513673477060704, 0.4844889726364507, 0.48378716830168733, 0.4831367043157931, 0.48231481018283506, 0.4813645488365193, 0.4804586916027861, 0.4795005620117852, 0.4784388648544052, 0.4773839292830831, 0.4763251576574555, 0.4751567809949368, 0.4739388597940542, 0.47267173139482066, 0.4713557483031185, 0.4699348833820645, 0.46852943900507543, 0.46707312243550025, 0.46556836552931097, 0.4640126609033876, 0.46241491465406936, 0.46076254602666367, 0.45906368355462523, 0.45739260084910427, 0.4555933721581999, 0.45378345727243596, 0.45189959636812943, 0.4499770886514924, 0.447995497150318, 0.44599814430503804, 0.4438733232584726, 0.44180791620050686, 0.4396985721789054, 0.43755426310677736, 0.43535942673112127, 0.4331447428320857, 0.4308678606421088, 0.4285537926211252, 0.4261860528513947, 0.4238020321148652, 0.4214291007005629, 0.4189682204672668, 0.4164758493549402, 0.4139274181474519, 0.41137675839688803, 0.4088026324180437, 0.4061891891615956, 0.4035465014540585, 0.4009270179022769, 0.3982215795564647, 0.39544040482623044, 0.39269379840239166, 0.38992106937155235, 0.38717012838800285, 0.38434195849363684, 0.38139749451929505, 0.3785404749051423, 0.3756584858908294, 0.37282185476744467, 0.369885357372226, 0.3668503387724449, 0.3638907108140028, 0.3609108650954654, 0.3579450998411764, 0.35492480438696555, 0.3519606644196704, 0.34890375803674767, 0.34583841605155113, 0.342647542381991, 0.3395814253286062, 0.33658779749953277, 0.33348495497114206, 0.3303762210831859, 0.3271902144615439, 0.32408087176618927, 0.3210514332205765, 0.31791668822530056, 0.31478165611352593, 0.3115450396025152, 0.30842393113253724, 0.30529069512582774, 0.30216344995380034, 0.2990343250880614, 0.2960268995831224, 0.2928826713001668, 0.2897317342587899, 0.2866076268729613, 0.2834921237394518, 0.280381015781972, 0.2772848293476191, 0.27421110991616543, 0.2711338506382092, 0.2680685381773622, 0.2650079271422413, 0.26196929094795196, 0.25885002012071157, 0.2558507105753259, 0.25286095246971474, 0.24996684199741223, 0.2469899159790978, 0.24396575176082122, 0.2410348378124677, 0.23819672669114034, 0.23528933470051103, 0.23240452047501695, 0.22942051382566903, 0.2265975887073198, 0.22392017740649015, 0.22111660567480804, 0.21834015162786552, 0.2155612969602427, 0.21284361940312468, 0.21008018394021807, 0.2074248138958863, 0.2047928830218992, 0.20221845147530493, 0.19963265147125447, 0.19701430479444962, 0.19449400708889192, 0.19200016430048247, 0.189627884782114, 0.18717833237465506, 0.1847025133884066, 0.18233046262281985, 0.17999008036483238, 0.17765853018480193, 0.17538639805226328, 0.17315587561130252, 0.1709477083055764, 0.16877368521510328, 0.1666578490211012, 0.16455073774854853, 0.16252133565712462, 0.16048327747401359, 0.15848496268677553, 0.156451095953546, 0.15454149875436904, 0.1527517979493761, 0.15090269575706713, 0.14909475351427207, 0.14724317349699687, 0.14552766566873301, 0.14386372109750084, 0.14221859580550722, 0.14061131950796765, 0.1391205390919843, 0.13757998201745666, 0.13608095390138308, 0.1346263696254623, 0.1332140067496645, 0.13185138093069304, 0.13052155311267785, 0.12922726477330754, 0.12798154652920415, 0.1267767223642601, 0.12561886601167616, 0.12449447362339626, 0.12340608598442962, 0.12236348325140678, 0.1213609052369341, 0.1204044606197758, 0.11948066769632432, 0.11856857991948647, 0.1177279438743217, 0.11692520199316377, 0.1161243370822041, 0.11540194595361523, 0.11470753939213395, 0.11405798402305785, 0.1134441640252979, 0.11286779561720968, 0.11232563378467125, 0.1118101590032802, 0.11134131768921261, 0.1109079054070093, 0.11053336047028527, 0.11016760515189429, 0.10980223819420586, 0.10951348325523898, 0.10925832364674992, 0.10902409111281501, 0.1088372466675754, 0.10870309971246099, 0.10857816768374012, 0.10848630250904805, 0.10845212641143508, 0.10842187633950641, 0.10843723786270572, 0.10847085455533842, 0.10853684600866806, 0.10866261469259735, 0.10878742375501751, 0.10888589593454846, 0.10908030837371843, 0.10930118487327722, 0.10955122654844589, 0.10982331329445434, 0.11007523906115482, 0.11040307643159175, 0.11075255570821986, 0.11112034546062252, 0.11151284896815447, 0.11195737772341478, 0.11238697107279494, 0.11283829239460956, 0.11327932927328022, 0.11377601377446245, 0.11433446123866706, 0.11486094913687912, 0.11540685941796519, 0.11596505256042441, 0.1165479939904013, 0.11711923065017246, 0.11773793939604404, 0.11836999716841978, 0.1190649861281317, 0.11971574107322867, 0.1203605868448154, 0.12104181614039966, 0.12173436860512309, 0.12246252548705111, 0.12317221422238277, 0.1239095396121054, 0.12463689868773473, 0.1253737405360249, 0.12614252575604978, 0.12689229508212072, 0.1275699913678468, 0.12834439678632856, 0.12911998621009418, 0.12987760738610055, 0.13065684634754343, 0.13143035630007954, 0.1322078375596139, 0.13298339685422522, 0.13382092541074359, 0.13458347333439777, 0.1353920139559658, 0.13614899102783282, 0.13690721133903686, 0.137538541277975, 0.13831163293518017, 0.1391896932525771, 0.13992954017964668, 0.14066632831568102, 0.14140526700064793, 0.14213203627700136, 0.1427246519750432, 0.14345532607727443, 0.14417126756436513, 0.14488207055546143, 0.14556785955907156, 0.14627894871806904, 0.1469319541140602, 0.1475730321566481, 0.14818756935920374, 0.14880503157378625, 0.14947872771208315, 0.15005836284103322, 0.15062689516310893, 0.15109405506951037, 0.15164880303672187, 0.1522285568608644, 0.15273996715515611, 0.15323478854416483, 0.15366552523434865, 0.1541316261853747, 0.15460524526169836, 0.15502634757813888, 0.15542817201667186, 0.15586675392499616, 0.15622181990446288, 0.1564657220672906, 0.15679753435069943, 0.15710537866968763, 0.15737367702486382, 0.1576357892062685, 0.15789200377222368, 0.15810246001995268, 0.15828946059026683, 0.15854688393405472, 0.158674740643516, 0.15866969437745068, 0.15877402480513483, 0.15885169884696093, 0.1589170175024065, 0.15894016614058545, 0.15893951722591237, 0.15891173250438467, 0.15885864839432615, 0.15884289074087868, 0.15873117805092768, 0.15851141419733691, 0.15836626999934506, 0.15819338289449464, 0.15805099216151478, 0.1578160951908703, 0.15757782244957677, 0.15729260566190884, 0.15698430382341905, 0.15659303989418355, 0.15624510259207855, 0.1559027522925519, 0.1554963209197456, 0.15514800730691916, 0.1546812574805268, 0.1541942724710934, 0.15357833604288165, 0.15306277236723462, 0.1525067993730914, 0.15193759392828748, 0.15134083497192505, 0.1508032553063371, 0.15014218362785667, 0.14944121850436382, 0.14874012335150424, 0.1480165211497813, 0.14725480846770453, 0.146488392250278, 0.14567067742248554, 0.14486190607093782, 0.14402902635858963, 0.14315690336148681, 0.1422793601774117, 0.14149742357657802, 0.1405585382344563, 0.13960407625999532, 0.13859760921059452, 0.13761545228829797, 0.13658815618292247, 0.13557250951597194, 0.1345372172044527, 0.13354068633185684, 0.13246011657232207, 0.13132847569882705, 0.13022237268513143, 0.1290992552539551, 0.12794385891996518, 0.12678990994493758, 0.12569450461399673, 0.12449831605519601, 0.12329082594372466, 0.12200306026907887, 0.12078161152472955, 0.11952939204100353, 0.11828041186110558, 0.1170168276001319, 0.11569086849953453, 0.11440655947774202, 0.11310720533567194, 0.11179390288516192, 0.11046767682451912, 0.10912478691782754, 0.10777612663690392, 0.10651254308819445, 0.1051316756545474, 0.1037473164354081, 0.10228738432114279, 0.10090514606910204, 0.09953740545219028, 0.09813824065865132, 0.09673427096243227, 0.09530874597549392, 0.09389878697574026, 0.09253618876139136, 0.09111163880625876, 0.08968686505147375, 0.08830432667927675, 0.08687428351221423, 0.0853435953554302, 0.08393203718957984, 0.08251733401730356, 0.08119592604023687, 0.0797654501664586, 0.0783334335547102, 0.07691318319274261, 0.0754973304163528, 0.07407192089635015, 0.07266711965437898, 0.07118971565269938, 0.06980329883383785, 0.06841747555606947, 0.06705518396743677, 0.06567072774119728, 0.06427525368772297, 0.06290271644681251, 0.061535203955114914, 0.060167160525001394, 0.05881257883489165, 0.05749287572374268, 0.05614873547398134, 0.05481410828461037, 0.05349560292056153, 0.05218023285110027, 0.05091020463516464, 0.04961251187428005, 0.04832818898207334, 0.04710266822187474, 0.0458393853154221, 0.04454983525503825, 0.043323688156155206, 0.042110725423699105, 0.040928378865763324, 0.03974021843068588, 0.03853707956926269, 0.03738234411229675, 0.036240927994102265, 0.03515393271232813, 0.034035107971783704, 0.032948629117348686, 0.0318611895036801, 0.030791345987045946, 0.029731195414220715, 0.02869735833838289, 0.027675868477544385, 0.026676804270558845, 0.02569470787644858, 0.024698397910768468, 0.02375464969777116, 0.022825002026367412, 0.021913193550467863, 0.021017746843975758, 0.020118653918895203, 0.01925954496166001, 0.018447964295678056, 0.01761772214002788, 0.016806254280857795, 0.01593689172659272, 0.015172939909410368, 0.014511423099359278, 0.013766478575371948, 0.013042439729680496, 0.012340682714604074, 0.01165770185419806, 0.010927828153354004, 0.010294136691676892, 0.009676818113490731, 0.00911073437514575, 0.00852293964499154, 0.007948206409031286, 0.007399815199424015, 0.006870300297223952, 0.006448936926074052, 0.005945819005291091, 0.005397563840594001, 0.0049499594984292825, 0.004520790639838509, 0.0042399950033747, 0.0038309995053477553, 0.003359737865491366, 0.0030116005813540124, 0.002681818146606017, 0.0023999397589798445, 0.002102470379891203, 0.001927802787482531, 0.0016556570179350968, 0.0014079069926972946, 0.001169263257353533, 0.0009686456640191697, 0.0007571081733057653, 0.0006005475556263028, 0.00046126728381058545, 0.00040943601521582215, 0.0002948597555563465, 0.0002742597218664122, 0.0001902620753118356, 0.00012921209070330773, 8.415975984792045e-06, 0.0, 8.186372763344105e-05, 9.391945403287486e-05, 0.00012491264870304118, 0.0002539731735046041, 0.00031054010477692985, 0.00032270067339946063, 0.00042919122109045334, 0.0005511761911719857, 0.0008182996193431994, 0.000953747698429671, 0.0010107277492830608, 0.0012011255238901651, 0.0014052332978875147, 0.0016886435607614192, 0.0019112733881368014, 0.0022541625245324176, 0.002496790579177813, 0.0027608349176318457, 0.0030809771019369436, 0.0033794184770244875, 0.003622537921846425, 0.003969034529313405, 0.004328946602636001, 0.004805363042874102, 0.00517817514837979, 0.005506770878651102, 0.005923380488758614, 0.006353021103689396, 0.0068377262738921335, 0.0072873346067005, 0.007767342510643918, 0.008243942583145447, 0.008735231067819305, 0.009356635395816375, 0.009861226833328766, 0.010391990179000747, 0.010934356105381278, 0.011494652199491138, 0.012101655087485843, 0.012691222848322203, 0.013195999832757982, 0.013831647280400304, 0.014487982793466223, 0.01514188300004703, 0.01580650697302085, 0.016503885112612707, 0.017187486519446637, 0.01796638008779535, 0.018663951477430003, 0.01937834063307741, 0.020154286654822037, 0.020894597676607722, 0.021616466324926448, 0.02239572322267537, 0.0231890929478638, 0.02395087280201987, 0.024777448793905678, 0.025622765761624696, 0.026470413067875804, 0.027329892459894214, 0.028259335590627318, 0.02913566383888114, 0.030116885204866457, 0.03101283565971535, 0.03192887564125143, 0.03285157605909034, 0.03380682554016771, 0.03470240742434626, 0.035701120070425287, 0.03671185165314348, 0.03783208189840805, 0.03885563084391095, 0.039905528256245264, 0.04096467358710237, 0.04204197506721886, 0.04314492970046774, 0.044256627518485935, 0.04537831683261295, 0.04652647386636853, 0.04769172295124364, 0.04891636914784204, 0.05011052674038643, 0.05132117463394518, 0.052554765206952285, 0.05380745748372074, 0.05500714669569834, 0.05630707446652885, 0.057680047047482114, 0.05900349668329209, 0.060346616215050906, 0.06163279992566538, 0.06302545512476321, 0.06448258023116166, 0.06590175956602295, 0.06734121280170802, 0.06874332879323805, 0.07023170979046203, 0.07173816514631805, 0.07326351285051068, 0.0748085129139501, 0.07646316454063647, 0.07803825493055157, 0.0795882992099772, 0.08122308544584192, 0.08288139706530406, 0.08463880802749804, 0.08633579962486496, 0.08798176795016611, 0.08974635818451288, 0.09153492147395904, 0.09332606053957707, 0.09516692192413248, 0.09714328374895607, 0.09901928516409707, 0.10092706277594099, 0.10278953689821102, 0.10476969048721207, 0.10676248198766258, 0.10879840178501535, 0.11086126826946562, 0.11302842710562358, 0.11513720953415428, 0.11728831470122172, 0.11946164075326646, 0.12166824052089886, 0.12392525554671571, 0.12619600534133055, 0.12843821444055842, 0.13078503720652535, 0.13316233667406194, 0.13565521872519043, 0.13808429649200252, 0.14044982065784622, 0.1429647556031985, 0.14551038031541516, 0.1481343934294932, 0.15073751602730984, 0.1533273699365294, 0.1560074082456662, 0.15872039944608818, 0.16148260046368865, 0.16426124711090248, 0.16715056267416467, 0.1699909948902036, 0.17287178460485497, 0.17572996810960725, 0.1786985431794909, 0.1817204447243221, 0.18475938119025734, 0.18783605635424733, 0.19098353153875416, 0.19413201269450087, 0.1973471864515578, 0.2005723061885434, 0.20383877215798302, 0.2071400336384546, 0.21048917512557241, 0.2138080919853305, 0.21724656630893652, 0.2207211395814225, 0.22432629166818674, 0.22786258909785892, 0.23138830114030218, 0.23501626191798328, 0.23868311070751183, 0.24242497151238404, 0.24616530568364298, 0.24998281031463548, 0.253800622742474, 0.257661122077967, 0.2614306510752128, 0.2653918981319552, 0.2694512129671001, 0.2734727103640911, 0.2775329297304713, 0.28167884199317894, 0.28581046555850387, 0.28999740276522545, 0.29420920213638824, 0.2984620897550147, 0.3027523938730697, 0.30708626940097367, 0.31135614012264773, 0.31578142515232055, 0.32023943982978953, 0.32480266665401636, 0.3293182023087386, 0.3338918666756859, 0.3384799354436375, 0.34310606860658055, 0.347697616031936, 0.3524072334247095, 0.3571272109868121, 0.3619042088654215, 0.36671225106564237, 0.3716595020240695, 0.3765161118749779, 0.38137693107672893, 0.3863109027418746, 0.3912781611378639, 0.3963031131257606, 0.40133180688773, 0.406300805266528, 0.41140578951433726, 0.4165366313383973, 0.421686996465763, 0.42687006511308184, 0.4320688137452518, 0.4373030001473415, 0.4425612143643073, 0.44790897011139796, 0.45320601565911817, 0.45849058814928295, 0.4638449766882218, 0.4692218954878279, 0.4746896262197666, 0.48010092729697185, 0.485502146805035, 0.49096529260301236, 0.4964483795841484, 0.5019865259576123, 0.5075022067608272, 0.5130292886999378, 0.5185832298092793, 0.5241536054998258, 0.5296390902999663, 0.5352518257981835, 0.5408565532687999, 0.5464863693280837, 0.5521224451555715, 0.5577958515124212, 0.5634396163061187, 0.5690605934078041, 0.5747213147314001, 0.5803857866265847, 0.5860988476120803, 0.5917632447561947, 0.5974006647878992, 0.6030766098462386, 0.60875291052925, 0.614362905928157, 0.6200456044917757, 0.625730107616874, 0.631399337119653, 0.6371215722933858, 0.6427695776884803, 0.6484130315052791, 0.6540741794602577, 0.6597018116884125, 0.6652801850382949, 0.6708978242544855, 0.676503328194606, 0.6821097809991046, 0.6876861728088689, 0.6932356007239184, 0.6987835454782204, 0.7043140231250729, 0.7097069190465518, 0.7152143297188316, 0.7207821152069792, 0.7262236096432524, 0.7316423058758106, 0.7369494155237168, 0.742330405340372, 0.7477681753250737, 0.7530757959489156, 0.7583565266152854, 0.7635746350942532, 0.7688021507914233, 0.7738968201016705, 0.7790708830292012, 0.7842048074732628, 0.7893172076699722, 0.7943678115126731, 0.7994411088536262, 0.8044032128848151, 0.8093275201531938, 0.8141939721559684, 0.8190412985473795, 0.8237630170801622, 0.8285346180345733, 0.8332568590333196, 0.8379277817458194, 0.842550245133523, 0.8470842573896114, 0.8516091730016664, 0.8560798845410479, 0.8605805913808824, 0.8649309432212247, 0.8691458447668656, 0.8734038988044164, 0.8776038271389871, 0.8817231685648699, 0.8858079768560719, 0.8898457897328995, 0.8938061403247479, 0.8977051614632964, 0.9015750522629087, 0.905345138236317, 0.9090817799470617, 0.9127240004632735, 0.9163041517421446, 0.9197803091177872, 0.9232379394100224, 0.9266293529667576, 0.9299505035807477, 0.9332025346210789, 0.9363675005879384, 0.9394813411497236, 0.9425370876958832, 0.9455042230710822, 0.9483988806791047, 0.9512219754156359, 0.9539695418995833, 0.956667880961441, 0.9592630854318899, 0.9617842073086571, 0.9641427536875375, 0.9665245456465082, 0.9688048019430852, 0.9710268981173218, 0.9731667757706165, 0.9753154407969714, 0.9772797827891302, 0.9790764362384825, 0.9808978832587608, 0.9826360142688778, 0.9843567437336936, 0.9859202474090414, 0.9873871489209448, 0.988793585694304, 0.9901187201844424, 0.9912980465873165, 0.9924678860157146, 0.99355675554707, 0.9945549727302009, 0.9954683665508602, 0.9962955711404039, 0.997040095690835, 0.9977409776804976, 0.9983117682964663, 0.9988007820414028, 0.9992579631121647, 0.9995765693939836, 0.9996982820865501, 0.9998724572414764, 0.9999597650790891, 1.0, 0.9999104725656277, 0.9997082830610107, 0.9994569286829004, 0.9991214318833433, 0.9987304643081799, 0.9982245268198844, 0.9976734456601267, 0.9970008240351098, 0.996249513592174, 0.9953333356552422, 0.9944355422463725, 0.9935013401554748, 0.9924316419147237, 0.9912828338117926, 0.9900177237998585, 0.9887166856336912, 0.9873184773971001, 0.9858605158529, 0.9843231829771163, 0.982694832990887, 0.9810029754710223, 0.9792994239780566, 0.9774451958105772, 0.9755189945693786, 0.9734397101569694, 0.9713809579850254, 0.9693408433893062, 0.9671206430584409, 0.9648326109529028, 0.9624191006342726, 0.9600037431554334, 0.9574949390075724, 0.9549436180952708, 0.9523229510344873, 0.9497233735246206, 0.9469561321856665, 0.9441232195299021, 0.9412349940287661, 0.9382863390477566, 0.9352590049480097, 0.9321935735035213, 0.9290731780963436, 0.9258886914949855, 0.9226465657848433, 0.9193570835892313, 0.9160011714747361, 0.9125423231000606, 0.909084693511315, 0.9055717788581222, 0.9019798591210831, 0.8983635556098194, 0.8946976666112318, 0.8909770205202796, 0.8872067738220196, 0.8834196484056034, 0.8795503859028405, 0.8755668821534344, 0.8716201025640267, 0.8676277621380333, 0.8636698425335815, 0.8595813847504422, 0.8553923298223735, 0.8512401193176409, 0.8470497025246663, 0.8428131311432769, 0.8385518085014064, 0.8342262418191781, 0.8299011564227682, 0.825542755237839, 0.8212388064747369, 0.8168076525469221, 0.8123150874722979, 0.8078418230721888, 0.8033442101471299, 0.7987419440803375, 0.7942093967497592, 0.7897375509806084, 0.7851450051318226, 0.780535375065864, 0.7759252886464195, 0.7712824175333503, 0.7665213306534804, 0.7618661029822074, 0.7571935373662363, 0.7525242225536243, 0.7478198944979648, 0.7431232168453714, 0.7383956335216286, 0.7336607495988566, 0.7288837206053808, 0.7241423310756525, 0.7193731959489565, 0.7146243797305277, 0.7098713269381834, 0.7051891747480252, 0.7004228089304856, 0.6955760954159217, 0.6908296601695227, 0.6860732740730985, 0.681331728777266, 0.6765934657566252, 0.6719147510460481, 0.6671803686603339, 0.6623969416850921, 0.6576918702885883, 0.6529955822324492, 0.6482811849326101, 0.6436098859559398, 0.6390544924332086, 0.6343931943127024, 0.6297514113843968, 0.6250089142313368, 0.6204226348337544, 0.6158566721897751, 0.6112991809247373, 0.6067589592458094, 0.6023343861045312, 0.5978201178403154, 0.5932553710307105, 0.5888036512340832, 0.5843745096734507, 0.5800206196899416, 0.5756329890605854, 0.5711733863378927, 0.5668554415416571, 0.5625610489185495, 0.5584042706073482, 0.554146449670088, 0.5498735042883762, 0.545688816371016, 0.541535118458927, 0.5374474615663776, 0.5333531326785468, 0.5292495794038133, 0.5252303345778212, 0.5212438079940369, 0.5173298097221949, 0.5134056770206581, 0.5095198731795951, 0.505669307096162, 0.5018560820487764, 0.498031882004173, 0.4943002241406361, 0.49060393791542234, 0.4869436724498539, 0.4833200280335169, 0.4796599322492069, 0.4761204572002507, 0.47260873749436944, 0.46913911786439144, 0.4657050973172838, 0.4623529620477276, 0.4589868669030236, 0.4556283025131352, 0.4523474375113711, 0.44910555247307987, 0.44598452380071946, 0.4428114902922018, 0.43963295362976246, 0.43655510293594557, 0.43351828529360964, 0.4305867874245724, 0.4276240689354445, 0.424663798238378, 0.4217953888309221, 0.41896833979348896, 0.41612615058050184, 0.41338862555895245, 0.4107939060632854, 0.40811912567051944, 0.4054886532575005, 0.402842307352032, 0.4003060643183628, 0.3978340298899994, 0.3953728581973669, 0.3929521137717098, 0.39058872538495265, 0.3882457481954019, 0.38585239773289054, 0.38360143331114727, 0.3813849783225225, 0.3792581705581514, 0.37710464874146854, 0.3749956686143809, 0.37291754799235066, 0.37087733038632537, 0.3688009635560845, 0.36684458082175864, 0.364997441856731, 0.36309647805772505, 0.3612325399226823, 0.3593956182981592, 0.3576051016115695, 0.35585085326923427, 0.3541290381716094, 0.3524410026069323, 0.35074079600263364, 0.3491244974018817, 0.3475284599579048, 0.34597250772306126, 0.34444531484564905, 0.342987431496858, 0.34151202003637776, 0.3399541819901663, 0.33855311423457374, 0.3371747966423515, 0.33583829634658724, 0.33450379834979993, 0.3331810587505175, 0.33189654320483486, 0.33063518584904933, 0.32939208575635165, 0.3281769720149999, 0.3270904902374726, 0.32590579304523326, 0.32474846995839074, 0.3235906104643801, 0.3224876322155741, 0.32137086430720546, 0.320316045254153, 0.31927971649544745, 0.31823940927402716, 0.317241207768644, 0.31631030886684997, 0.315336388954995, 0.3143801531796931, 0.3134172340425398, 0.3124967564823827, 0.31156661944373476, 0.3106761866769705, 0.3097970665934993, 0.3089241438950886, 0.30806697279340123, 0.30724460053136626, 0.30640328984117443, 0.30557222123755373, 0.30468805557400536, 0.30388336874262456, 0.3032008912245974, 0.30239064526219844, 0.3015913714160439, 0.3007313884449361, 0.2999594844682272, 0.2991379930958568, 0.2983797599689627, 0.29762137570411057, 0.29685970052079425, 0.29610132792720295, 0.29532363070697887, 0.2945664342539908, 0.29380731411906286, 0.2930869155999924, 0.2923184912797391, 0.2915970154828222, 0.290821999792787, 0.29004846881972207, 0.28928019988843173, 0.28850633132174125, 0.2877410016629936, 0.28696341534495223, 0.2861839269680813, 0.28530932086409183, 0.28453539235658615, 0.2837521508674156, 0.28295968973915747, 0.2821580502698978, 0.28133626201574186, 0.2805175972911951, 0.2797469689297848, 0.2789011025682415, 0.27804848019165224, 0.27724807111968736, 0.2763727654776273, 0.2754689620542411, 0.27458567854275323, 0.2736942646984843, 0.2727032675966614, 0.27180534569915704, 0.2709003859917606, 0.26997200455520354, 0.2690296836038513, 0.268037503899721, 0.2670721588079677, 0.26616315017020464, 0.2651575617950826, 0.2641408669915472, 0.26310642908215465, 0.2620672304475795, 0.2609998811200104, 0.2599374538630093, 0.25886120406672497, 0.2578431164100924, 0.2567298873206599, 0.2554970064571464, 0.25437700750176223, 0.2532396485266185, 0.25213701012571405, 0.25095950703733866, 0.2498140035524941, 0.2486037511737633, 0.24738234873180703, 0.24615716183568148, 0.24491113438889875, 0.24354823255032615, 0.24229129401533567, 0.2410879739228223, 0.2397856523532815, 0.23847010085820766, 0.2370817203747988, 0.23574705039981866, 0.23440664569328196, 0.23303767614901502, 0.23165356089913625, 0.23023426686021892, 0.22882341309244433, 0.22744734596366586, 0.22599992199070407, 0.22454084306312694, 0.2230246727415442, 0.22154803296566036, 0.22005411346758483, 0.21855001085293035, 0.21703243165342664, 0.21559735070757946, 0.21404196792459876, 0.21241230621209983, 0.21085120149043426, 0.20927867781534804, 0.20764177258162597, 0.20605404454770487, 0.20452957175544897, 0.2029058646906411, 0.20127438097544903, 0.19955838480676535, 0.1979211610767533, 0.1963127613663409, 0.19464731984131672, 0.19297369677159565, 0.19136741051925424, 0.18966889640774634, 0.1878530503105593, 0.18616277371969508, 0.18446264300329548, 0.18281455181620707, 0.18108933699887247, 0.17936778447692567, 0.17763341378431183, 0.17589568803656558, 0.17412657091357606, 0.17238621255154454, 0.17062425288449745, 0.16887780139967093, 0.16712694143073498, 0.16533310339792917, 0.16358013570571833, 0.1618818038051614, 0.16011237223610725, 0.15834302708615364, 0.15654739989074495, 0.15478239597098412, 0.15309983789313236, 0.1513236926536851, 0.14955264310514135, 0.14778494186535887, 0.14602380966412462, 0.1441639567922502, 0.14242525896022318, 0.14068552305445392, 0.13894099657033038, 0.13720255588252656, 0.13552186291979076, 0.1337798072368041, 0.13204383535925804, 0.13025624098370833, 0.12854054228278158, 0.12685823856260955, 0.12514679210851284, 0.12344210416516954, 0.1217257957639691, 0.12003824795909271, 0.11834352907160885, 0.11667215710940218, 0.11500796937987803, 0.11345338720229661, 0.11179244889342796, 0.11002860440088533, 0.10841136354636217, 0.10680153854561816, 0.10527664885599096, 0.10367417215212207, 0.10202443572107436, 0.10045733638830397, 0.09890064264398622, 0.09739405353323007, 0.09585479221773414, 0.0942763780379729, 0.09277219249261363, 0.0912793859220173, 0.08982516261471257, 0.08835342255299238, 0.08686168270716249, 0.0854234637003901, 0.08399823884351139, 0.08258180625636122, 0.08118461508451567, 0.07988141800048047, 0.07850274924746958, 0.07714347081813074, 0.07581582407801624, 0.07449291899011283, 0.07311261927858326, 0.07183789109102784, 0.07057775114425799, 0.06936397823222923, 0.06813035932201729, 0.06690961769354518, 0.06571183405855824, 0.06453153845742718, 0.06331559381392811, 0.06217737612047383, 0.061137037851377134, 0.060018564020899036, 0.05892061136615091, 0.05781943437755663, 0.05676478484779228, 0.05578508434083657, 0.05476044206211843, 0.05375757640230248, 0.052697734866794715, 0.05174710022434858, 0.050771992907604854, 0.04985936818480906, 0.04896136599918108, 0.0480832796261902, 0.0472156328460633, 0.046378528791912794, 0.045542332494849715, 0.04472400748164282, 0.043970677771919604, 0.04318250774230022, 0.0423509143807757, 0.041612138465833864, 0.04088991559841053, 0.040173504664030184, 0.03948640151513509, 0.038937963123011676, 0.03826854902765471, 0.03762279479501504, 0.03695438840402238, 0.036359133457628076, 0.035806082821944654, 0.03524498115397995, 0.034703343406075504, 0.0341885548503665, 0.03368354830372752, 0.03310791446859264, 0.03265111088013621, 0.032207161170461136, 0.03188295072300456, 0.03145226201099284, 0.030945746351910546, 0.030565930025113663, 0.030199195988252825, 0.029819117702320385, 0.029482477994263605, 0.029253450104832848, 0.028929116768062476, 0.028622696245707964, 0.028288148351583872, 0.028021506119717585, 0.027787313961646062, 0.027545466407794206, 0.02731804639531891, 0.027151737715122432, 0.026946301685846795, 0.0267084512976873, 0.026540777905331596, 0.026385231860120047, 0.02616956700938939, 0.026046820193893552, 0.026025566021848866, 0.025906308881779267, 0.02580049145492995, 0.02565901780410797, 0.025584647977819713, 0.02553200895604926, 0.025474388620018613, 0.02542651692920137, 0.025353715319116264, 0.025329043428444997, 0.025345976302459463, 0.025331265543956028, 0.025325660956942896, 0.025389937662010666, 0.025393864771420187, 0.02541720651210998, 0.025442502371965773, 0.025478273069333562, 0.025487741262546656, 0.025546834823583713, 0.02564207665729665, 0.025709880928062687, 0.025785158763078513, 0.025870525138687192, 0.025958836313630853, 0.025934292977429746, 0.02604961445527863, 0.02622155624405326, 0.02632743494270588, 0.026436265459307683, 0.02648844023268001, 0.026610441300536945, 0.026733321841553935, 0.02685409459771676, 0.02697488197281126, 0.027105273906885687, 0.02722541653329547, 0.02732457445189239, 0.02744934220027203, 0.027573712059055188, 0.02780271680576507, 0.02791320251302562, 0.027933719023214947, 0.0280665746710593, 0.028197951199370214, 0.02843125899746328, 0.028546632037617165, 0.028664727209502854, 0.02878797798059056, 0.02891371591779718, 0.028942521541890615, 0.02908359230604923, 0.02923058445702539, 0.029360426851734903, 0.02948628536815956, 0.0295831626557866, 0.02970439564841396, 0.029895552065979457, 0.029996933711552532, 0.03009761215453164, 0.030176731222843804, 0.030277144889897967, 0.030422920262688585, 0.03051057935768823, 0.030597348293048058, 0.03063565136015569, 0.030724901177616712, 0.030749528470505508, 0.030836075742575172, 0.030914106092030633, 0.030980921265538936, 0.031043557444843897, 0.031216118204606815, 0.0312490669044046, 0.03128159157127716, 0.03131922361865077, 0.03134798525815599, 0.03126661732672199, 0.031304403854119735, 0.03133302719399133, 0.03135292220515124, 0.03136447128381015, 0.03147923276995016, 0.03146099165386325, 0.03144153203325164, 0.031404518288183955, 0.03138267293462242, 0.03136322307190612, 0.03133252412119577, 0.03129771204712399, 0.031183311265037046, 0.031148976288011623, 0.031165116007799976, 0.031105590091649312, 0.031041193078900336, 0.030934211298685656, 0.030864499039888273, 0.030749929999048554, 0.030670703449542116, 0.030582592848351527, 0.030542511388792628, 0.03043100486810428, 0.03036374380301418, 0.030237386670262788, 0.030109302462057855, 0.029892900883047597, 0.029771025348490802, 0.02962581377314803, 0.02949101314045421, 0.029348496039574908, 0.029284910225133902, 0.0291174876794393, 0.028990813632548084, 0.02881462055812223, 0.028638651771009823, 0.028308822591432744, 0.02815110178218981, 0.028068134321076563, 0.027880942888619736, 0.027690375590339444, 0.027477686408296797, 0.02728291226250117, 0.027155957314046745, 0.026943825965371686, 0.026731959214923388, 0.026410338911748762, 0.026211844971460344, 0.0260331934903028, 0.025818449760381956, 0.025599738229414023, 0.025449480544081856, 0.025214783563983448, 0.024957680935946525, 0.02472785725437389, 0.02449729772914373, 0.02418925395182117, 0.023966982337835407, 0.023777357894777938, 0.023541119192137853, 0.02330335015744642, 0.023145776282154314, 0.02289543429936714, 0.02260190220547558, 0.022364692307473896, 0.02212788126702528, 0.021891564209698074, 0.021655848657137197, 0.021381690109308165, 0.02115249438404523, 0.020922085501274775, 0.020736351321399824, 0.020499116023964155, 0.02020340452894372, 0.01997913442918003, 0.019754083162075515, 0.01950685385435438, 0.01928457173071614, 0.01917924009879476, 0.018941615198248694, 0.018711169402736684, 0.01839658563773631, 0.018190681776603327, 0.0180561854262051, 0.017843665738998683, 0.017636917199777422, 0.01736527790747159, 0.01717851862972714, 0.01698378391062154, 0.016801564749880166, 0.016621208209224855, 0.016438513712112995, 0.01626392890976069, 0.01618003529340327, 0.01600070599627093, 0.015830058617987367, 0.01563013502439948, 0.015480576827968445, 0.015397764585628766, 0.01525187997247813, 0.01511526967314516, 0.014887287888948619, 0.014780800450144427, 0.014730240806359289, 0.014622939995786982, 0.014522417233054223, 0.014366067779429578, 0.01428719924534852, 0.014222746472365008, 0.014149969425327388, 0.014082354572004586, 0.014108004410847936, 0.014040716796203886, 0.013898378840098318, 0.01386377058548696, 0.013834632411892865, 0.013847367665427757, 0.013825695789455807, 0.013872052004921387, 0.01385983281385003, 0.01385941899113594, 0.013813929225780798, 0.01384286137423913, 0.013921457448739155, 0.0139599189481696, 0.01400839513140461, 0.014019672760208827, 0.014093500451266085, 0.014214877345757526, 0.01429744294924632, 0.014389586484193742, 0.014480216665499923, 0.014592545312312483, 0.01461482519421983, 0.014756929634031251, 0.014902165740430228, 0.015134367405382779, 0.015277695593892329, 0.015468549435999082, 0.01562685386853052, 0.015796949733729547, 0.015976857391691215, 0.016169539647930074, 0.016260026290741844, 0.01648787688782718, 0.016719461050890637, 0.01702125543897801, 0.017253947359201584, 0.017470790478294043, 0.01772499312138515, 0.017986824873297266, 0.018301824912374177, 0.018573475312750044, 0.01876940056284538, 0.019072485288774827, 0.01950116344631111, 0.019799355284332576, 0.020110054285455838, 0.020388720742961768, 0.020728015989600362, 0.021127216527842347, 0.02147625497509966, 0.02183612908541285, 0.02216713074487372, 0.022552048471689037, 0.02295352990533342, 0.023351509239577226, 0.02375702345091563, 0.024126056831224915, 0.024551736385019486, 0.02493975961104714, 0.025380288703334343, 0.02582348956200176, 0.026304313421804122, 0.02674988895655797, 0.02719505029716954, 0.02765312852345131, 0.028116698991030708, 0.028565413375295817, 0.029042568782778617, 0.029550684873781687, 0.030033248682122215, 0.0305218311124902, 0.0309880653861814, 0.03149173823807723, 0.03207608786312426, 0.03257793806705481, 0.03308807965547339, 0.03354165982344134, 0.0340746810859902, 0.03471405625365583, 0.03523996731503623, 0.03577469023626568, 0.03623749050981647, 0.036797496042336196, 0.0374096747939982, 0.03796745862827341, 0.038530136760716545, 0.0390299383896925, 0.039609725289727254, 0.040296018615765664, 0.040862528092558685, 0.041435407105747224, 0.041954417022386864, 0.0425455008209763, 0.04324891216046963, 0.04382810541720297, 0.0444145648140799, 0.045008913578491946, 0.04560698278628499, 0.04621144874344657, 0.046818310613159796, 0.04742882957470767, 0.048081635060131446, 0.048692980392936465, 0.04923357369294613, 0.049862632886683377, 0.05049064687287134, 0.051232060318994896, 0.05184378348252001, 0.05246738853687733, 0.053088697764769814, 0.053714374433879435, 0.054274789976684605, 0.05491590285351461, 0.055597970383319234, 0.056231150782628074, 0.056865555612568786, 0.05751189982250044, 0.05814665192906818, 0.05892045226200402, 0.0595399234645292, 0.0601678825310534, 0.060712192544075595, 0.06136494489629889, 0.06211172205102015, 0.06275255823523178, 0.06339853367001609, 0.06400028630170193, 0.06466039604433484, 0.06544774250087912, 0.06609240793434007, 0.06674438112822578, 0.06742767251640032, 0.0680880830625744, 0.06879835090871048, 0.06946436172176237, 0.07013727673040103, 0.07075975987086151, 0.07145094019793355, 0.0722155311883367, 0.07290021865643123, 0.07359018472568726, 0.07424413130082709, 0.07494820798955698, 0.0756632867100211, 0.07636943186926524, 0.0770778446091489, 0.07783556110468891, 0.07854272360742251, 0.07930200834387235, 0.08001323580967494, 0.08073180374793734, 0.08142902074889037, 0.08216445333255779, 0.0829937444704608, 0.0837270240651576, 0.08446993072334735, 0.08525942696088351, 0.08601505435198664, 0.08676520508766146, 0.08754258281861388, 0.08832817932422589, 0.08917500997643295, 0.08996965419032339, 0.09066691793954376, 0.09149619520545575, 0.092329321036172, 0.09330790682983034, 0.09413275714495326, 0.09498997996261571, 0.09583903453438676, 0.09670170604677895, 0.09757437532566643, 0.09846333530019492, 0.09935834996864466, 0.10027259702666234, 0.10119859928692, 0.10211761214445447, 0.103069718463132, 0.10408140912464507, 0.10504977287556454, 0.10603260935520163, 0.10705498064359628, 0.10806364859405826, 0.1090006422547633, 0.11005246424235093, 0.11111540205334666, 0.11229833774270855, 0.11337218236202179, 0.11447174976432628, 0.11558354186373768, 0.11671487498615697, 0.1178656766329092, 0.11903594441964557, 0.12013018054005672, 0.12135169754746519, 0.1225876564589527, 0.12386879568650437, 0.12513274106822125, 0.12643435222220592, 0.1277342317795611, 0.12905517071706335, 0.1303850326193728, 0.13175086753488646, 0.13312729538993145, 0.1345381436963999, 0.1359709448315775, 0.1374074791671219, 0.1388882786774569, 0.14048564500991667, 0.14200038675382293, 0.14354429524912807, 0.1451516891484667, 0.1467492055055711, 0.14837444751438, 0.15003383541911883, 0.15172350498289652, 0.15341676559391984, 0.1551702496488777, 0.15688359764345383, 0.15870370209385123, 0.1605493940896051, 0.1624325490542684, 0.16433070237213027, 0.16636414605851993, 0.16830703023139085, 0.17028595775676617, 0.17217848624042678, 0.17424426606545373, 0.1763903907763637, 0.1785078713955518, 0.18065871110343956, 0.18279630780191128, 0.1850209830298036, 0.18729164307385882, 0.18957906229617058, 0.19190061421810825, 0.1943445627311343, 0.19672487387994353, 0.19911443698495276, 0.20157962229596327, 0.20408319082032822, 0.20659079800671482, 0.2091758654601548, 0.21189178230300668, 0.2145391254438607, 0.21713077413420787, 0.2198762300897378, 0.2226584998663521, 0.22550791879099527, 0.22836172537979688, 0.23122271052184384, 0.2341610416026701, 0.23713802519782276, 0.2401588285332209, 0.24321388651127726, 0.2463091479089006, 0.24944493155873543, 0.2526215284155401, 0.25596139185652944, 0.2592049358966979, 0.26245771000223317, 0.26580220517785286, 0.26919142324560386, 0.27267207918936265, 0.27614400043464615, 0.2796484598695165, 0.2832148871170708, 0.2868261324864433, 0.2904693643281536, 0.2941709742174679, 0.29795508410386984, 0.30173832683186386, 0.3055669388320913, 0.3094342731393519, 0.3133533193131794, 0.317308539301149, 0.32131637695706083, 0.32536737974703595, 0.32939877693361075, 0.33354370802530187, 0.3376856742234892, 0.34191501571591043, 0.34618204963796767, 0.35058451341776864, 0.35491639192699664, 0.3593039275619694, 0.36372335887083185, 0.36818722847244206, 0.3726746740108955, 0.3772285255560524, 0.3818681083048189, 0.38649987617332293, 0.3911754167541202, 0.39580949449321995, 0.40058137994360066, 0.4054374535650986, 0.41027790669175324, 0.4151583750801503, 0.420028353528082, 0.4249940522152633, 0.4300662898464435, 0.43509516496760803