0.022645655299391054, 0.0224366728002648, 0.022284300145990598, 0.022123803626499454, 0.02200993291585927, 0.021908305485151137, 0.02182478980229208, 0.021741360984894383, 0.021708300451590775, 0.021634032127698086, 0.021567808107828615, 0.02144664106927725, 0.02140101021457924, 0.02137054246182472, 0.021326343988947276, 0.021284344112222835, 0.021213530476320182, 0.021179594642045677, 0.021202034284233937, 0.021162050194811096, 0.021126231627117405, 0.02110027296516504, 0.02107181110893826, 0.021026462879376824, 0.021009425756017813, 0.02099562636341307, 0.020975669371856208, 0.020970367511556235, 0.020943465883606998, 0.020948728099942644, 0.020956810322202105, 0.020935418760146717, 0.02095489740487443, 0.021030978334314672, 0.02104935305502828, 0.021074633907206243, 0.021066409245894584, 0.021111100076376434, 0.021143504293603264, 0.021201075099553, 0.021263693938933643, 0.02136667620651733, 0.02143657286156548, 0.021514948604994, 0.021601926328023165, 0.021653194445218033, 0.021763348911395648, 0.02187996113653276, 0.022018953962219926, 0.022147887511829018, 0.02227962341838488, 0.022426705525041755, 0.022582483580765478, 0.022729806089935755, 0.022905858983465085, 0.023132780658653467, 0.02332052413601712, 0.02351964276135286, 0.023664384082840377, 0.023894361394620766, 0.02419948205556999, 0.024436484148403194, 0.024685785681377064, 0.024864195274704425, 0.02514825237321349, 0.025493745485406494, 0.025786277603660944, 0.026090374551545892, 0.026409972533188393, 0.02673693434684403, 0.027029550280502412, 0.027386466484803057, 0.0277529242398836, 0.02816607680312708, 0.028548287329388775, 0.02894526984761166, 0.029352969243071552, 0.029773732507561716, 0.030161253117329243, 0.03061418521470212, 0.031106755168591235, 0.03157780372128412, 0.032062017465780364, 0.03254023138687238, 0.0330536744779149, 0.03357771975216207, 0.034116778120107105, 0.034668847732041604, 0.03525159427376318, 0.03582830855858957, 0.03641979501541635, 0.037026143291497116, 0.03764744681372551, 0.03822584886047677, 0.038884683228647444, 0.03959415396063671, 0.04027267434057764, 0.040966446559627265, 0.04161766885139198, 0.042349719295529, 0.04315601797595385, 0.04390571048588336, 0.04467243068240201, 0.045417519756762614, 0.04622311987507919, 0.047026150094481356, 0.04786389225888401, 0.04871606543599749, 0.04966612558624643, 0.05053778224644341, 0.051317528721240416, 0.05224321946472698, 0.053182007681430464, 0.05415380729418882, 0.05511806446996854, 0.05612705947586682, 0.057119419908628795, 0.058129622990236024, 0.05911511608380056, 0.060166218175641224, 0.061226823571969576, 0.06230954474933422, 0.06340777476680758, 0.0645990392053871, 0.0657192392549401, 0.06686186138450118, 0.06802232040162431, 0.06920247043120144, 0.07036713594315123, 0.07158989399393226, 0.0727964563558069, 0.07405663896463638, 0.07533158263786002, 0.07667174735876053, 0.07797052442837178, 0.07925269569206893, 0.0805919232381095, 0.08194682812562, 0.08332517519070767, 0.0847105511606551, 0.08610822980130106, 0.08752634694862643, 0.08896024549643941, 0.09035963368391994, 0.09183123709556457, 0.0933619339014524, 0.09485344039249849, 0.09636082652476867, 0.0978761806492627, 0.09941574543690312, 0.10094314545921644, 0.10251575521763052, 0.1041014455635025, 0.10568095769560658, 0.10729539087430302, 0.10899722669629862, 0.11062637090289386, 0.11227197932400172, 0.11392767005822703, 0.11560521563861235, 0.11728178955463446, 0.11898981050368578, 0.12071057874784341, 0.12243028909337408, 0.12417741312037288, 0.12590283537071129, 0.1276762117300904, 0.12945851420820578, 0.13128843539064666, 0.13308382962276025, 0.134890354021696, 0.13670762761569025, 0.138535272697358, 0.1403574598991322, 0.14220667854096863, 0.14403916804171196, 0.14590808299116279, 0.1477834633827201, 0.1496826206562523, 0.15156847164972895, 0.153444042520883, 0.15534598408520478, 0.15725340504495422, 0.15917962541433373, 0.16109566066582118, 0.16304815569511, 0.16497099958525985, 0.16690035060382247, 0.1687853347588606, 0.1707321322938326, 0.17272131448873715, 0.174666440459519, 0.17661527452962952, 0.1785092988165089, 0.18047119682637253, 0.1824415553147335, 0.18439977283781234, 0.18635716076391437, 0.1883366680093864, 0.19028873821264433, 0.1922559490920982, 0.19420493741296968, 0.19615347901665586, 0.1980236795841991, 0.19997924453706653, 0.20192820339363912, 0.20387059736694932, 0.20580640206618311, 0.20784178194484662, 0.20975067081583634, 0.21158318945468055, 0.21349846146741383, 0.21540638001638537, 0.21732591632891976, 0.21921562625840277, 0.2210631987296034, 0.22294202000267285, 0.22481042105456545, 0.22670290949809885, 0.22854525050344823, 0.2304226743361333, 0.23224007771208, 0.23404939326623858, 0.23579364568580383, 0.2375910642417057, 0.23933591827699835, 0.24111001443087016, 0.24286730018220007, 0.24465600444114768, 0.24637331670092436, 0.24807039300021913, 0.24975896901303032, 0.25143161624912347, 0.25313611263188235, 0.254769251924293, 0.2562717328880267, 0.2578891357097177, 0.25948355828942743, 0.26113241647805996, 0.2626714710438209, 0.26415926867419354, 0.2656649729095534, 0.26714910480500575, 0.2685823322063282, 0.2700259063409191, 0.2714664353268231, 0.2728585840383462, 0.27422729741084767, 0.27558571256912334, 0.2769046839361582, 0.27822492084995964, 0.27949251552151116, 0.28067292272396116, 0.2819010158275377, 0.2831007601700647, 0.2842681903233548, 0.2854113877389979, 0.28652368920523763, 0.28760904630544293, 0.2886649931179238, 0.28972804581931283, 0.290719947968471, 0.2917128556016723, 0.2926446172865815, 0.2935489906370361, 0.29438662209116057, 0.29523900171303047, 0.29610232162199107, 0.2968859468972137, 0.2976398751189707, 0.2983132817556608, 0.2990124182384997, 0.29966772140462733, 0.3002996650137841, 0.3008967481615545, 0.3014550949973218, 0.30198288996438205, 0.30251994794156273, 0.3029717597982894, 0.3033908235905989, 0.3037574080956913, 0.3041122125581239, 0.30438761498814265, 0.3046779339346076, 0.3049304750692913, 0.305180224708232, 0.30535342167730406, 0.30545463121321104, 0.30556174502355454, 0.30563121406740723, 0.30565933738946977, 0.3056544688629673, 0.30568363316662917, 0.30559497294220805, 0.30547312661306714, 0.3053098920872673, 0.3051212854369398, 0.30484951461676724, 0.3045970286447755, 0.3043065100429489, 0.3040090864138282, 0.30363923862923187, 0.3032530307546129, 0.30280932299255586, 0.3023309226586312, 0.3017655026219812, 0.30122384621817394, 0.3006712293891623, 0.3000505089973614, 0.29939401505819724, 0.2986786809732721, 0.29795392913362345, 0.29719828380519975, 0.29639976350158487, 0.29556555352821523, 0.2947075220485925, 0.2938012994362967, 0.29287052946439746, 0.2918948601557666, 0.29088591539467834, 0.2898457653255074, 0.28877046422855396, 0.28764509512271974, 0.28650681874948614, 0.2853352877632825, 0.2841173531095426, 0.28288214542870693, 0.2815889395523349, 0.2802916284762362, 0.2789609965196551, 0.2776807868132652, 0.2762750094033277, 0.2748599009146513, 0.2733984201456755, 0.2719111197313181, 0.27035348004451776, 0.26881996312227197, 0.2672735283509081, 0.26568177717345937, 0.26406345911189105, 0.2623706389131944, 0.26070639556301106, 0.25908356837215907, 0.2573550916317462, 0.25560399223695074, 0.25376479208004665, 0.2519774059124462, 0.250176045047244, 0.24833692110248193, 0.2464745691015535, 0.2445394708884133, 0.24263912503006105, 0.24076697841113126, 0.23881319857990826, 0.23684048568812346, 0.23483779773605112, 0.23283033562364236, 0.23081074743720348, 0.22876736771116526, 0.22670770157213743, 0.2246342809236216, 0.22254359973827334, 0.22039411514489868, 0.21828089691275668, 0.21615199692059353, 0.2140663238467145, 0.21190155834698474, 0.20969234069612694, 0.20751299248596558, 0.20532280375746267, 0.20316498990999154, 0.20094988513020237, 0.198709126530988, 0.19648413997396094, 0.19425246430936993, 0.1919837618194923, 0.18974433808474958, 0.1875156174447744, 0.18526147537247747, 0.18300329387949968, 0.1806934390085753, 0.17843526409198032, 0.17626697099485092, 0.17398831875183057, 0.1717122368828339, 0.16938675280599463, 0.16712301613078, 0.16484417909431923, 0.16258385271221787, 0.16032449613326638, 0.15808434134813018, 0.15582723642701982, 0.15360737470714403, 0.151355553474133, 0.14911123435163423, 0.14679170865232521, 0.14457399843376903, 0.14240471461166593, 0.14019047813329233, 0.13798486807573346, 0.13584066406531534, 0.13364756798849542, 0.13143888749998503, 0.1292764166784473, 0.1271261097003653, 0.12498459574587147, 0.12286058869707266, 0.12070945453778736, 0.11861799322931593, 0.11653876477928014, 0.1144648980669809, 0.11241363570408379, 0.11036695094340297, 0.10834617640191246, 0.10634063992891102, 0.10440908253709823, 0.10242901082934339, 0.10043295232093476, 0.09849914802438366, 0.09658440729581697, 0.09466800766918884, 0.09279564119347337, 0.09094652872767739, 0.08911309267848695, 0.08730050070255987, 0.08553246553217647, 0.08376019496152935, 0.08202123501214031, 0.08029530820979147, 0.07859409729987521, 0.07692937409080103, 0.07527668003413869, 0.07367116537017397, 0.07206774922106218, 0.07049167996833729, 0.0689023508567582, 0.06738601737565778, 0.06590438313668218, 0.06443727594296994, 0.06299646363460212, 0.06160923862914895, 0.06021832889071415, 0.05878253568042208, 0.05745795407804988, 0.0561577888771481, 0.05489811055006041, 0.05364660946175146, 0.05243171427837715, 0.051233201626976026, 0.050062774530156055, 0.04894185308724975, 0.047825400921677044, 0.04670969969274574, 0.045656305976519394, 0.04467532619688177, 0.04367245718538803, 0.04270038905751843, 0.04172604533612395, 0.0408190414344121, 0.03993261313114681, 0.03908326721586089, 0.03826191933492236, 0.03750729952303846, 0.036737318101181846, 0.03598611357550909, 0.0352780377820206, 0.03459910410169736, 0.033920161541185274, 0.03330265156895416, 0.03273337897904428, 0.032167209328328464, 0.031629290015084875, 0.031148414651513075, 0.030662775363900874, 0.03016973640567123, 0.029746906549764713, 0.029350462186611834, 0.028959047003966735, 0.028617718226832553, 0.02833403764626996, 0.02803817383594625, 0.027768923695775112, 0.02749310721374054, 0.027280215752255744, 0.02712777382671248, 0.026957650361060494, 0.02681313108156099, 0.026662860387544864, 0.026572121859688262, 0.02654256310956738, 0.026491842918402047, 0.026465436901352637, 0.026462795086876944, 0.02648338185344085, 0.026464856875211055, 0.026538157147335626, 0.0266296760869475, 0.02678770791175114, 0.026909501313013513, 0.027007629489952317, 0.027176030409447976, 0.02736162577627077, 0.027622194892507952, 0.027834289115676827, 0.0280526685213395, 0.028305338030560217, 0.028575584494991507, 0.028833842728671025, 0.029141150192766092, 0.02944141853965381, 0.029779501112403288, 0.030129913221992013, 0.030540743293855994, 0.030909049657703913, 0.03126075212194414, 0.0316608717653936, 0.03207217205094885, 0.03248457385612575, 0.032918180405569666, 0.03341520959445041, 0.0338602582896722, 0.034316886094548256, 0.03478037168855725, 0.03525811081315687, 0.03575440817030472, 0.03624800197934261, 0.03674961664230866, 0.03722179550731762, 0.03774186436506136, 0.03826379170223636, 0.038791309832445116, 0.03932174465143312, 0.0398508457485724, 0.040386428614256974, 0.04090226277234135, 0.04144314266643931, 0.041983534776496564, 0.04253671618400779, 0.04307365558144204, 0.043611971467627894, 0.04414711838917708, 0.044680935042329416, 0.04521681704165529, 0.045746077403631326, 0.04629406092813276, 0.04681507566048662, 0.04733374796845286, 0.047820431743784, 0.04833610025233665, 0.04880723098165781, 0.049315614865773356, 0.04981518933367018, 0.050383155743901176, 0.05085508806600993, 0.051283576331819056, 0.051749969641595985, 0.052207819386467874, 0.0527378552209819, 0.05316714635840467, 0.0534888555227689, 0.05391964869922252, 0.05433748736068173, 0.05480605807333866, 0.055189709976840425, 0.05552314218726981, 0.05589196256461691, 0.056247584700551016, 0.05660521573381473, 0.056931742565733565, 0.05727416467715837, 0.057570486931914765, 0.05785461361997666, 0.058139487059443246, 0.0583958160483493, 0.058586937411840026, 0.0588231944079361, 0.059042387277894855, 0.059236732386432046, 0.05942259291006263, 0.059588821477623954, 0.05973950215011483, 0.059872312559213006, 0.060029717632501756, 0.06012129965185163, 0.0601876021853847, 0.06024875990864208, 0.06029298292301881, 0.060360582915608994, 0.06036506266256382, 0.060325207011592274, 0.0603021156198664, 0.060261064087479, 0.0602018825295682, 0.06012442265425345, 0.060028556492393526, 0.0599141752384282, 0.05978118819368991, 0.059637248945166435, 0.05946586901713804, 0.059270349131927344, 0.059062923691816704, 0.058836672164672865, 0.05866500225974812, 0.05839183101011853, 0.05801320072147302, 0.05772162822010371, 0.057409279504804726, 0.05710933718232165, 0.05675229100985726, 0.0564429625136326, 0.05604171288751814, 0.05562626037951994, 0.05521159768274804, 0.05476448445884414, 0.054300963007717445, 0.05382478505539278, 0.05333338887054237, 0.05281112999663133, 0.05229074367877155, 0.05183501913780816, 0.05127153451881503, 0.050696374592640765, 0.050062691447872565, 0.049468694400481, 0.048892115571431714, 0.04826330058299983, 0.047621295806113635, 0.047076188848154586, 0.04639386974918705, 0.04573361740626207, 0.04503306677251796, 0.044325889999450044, 0.04355923973702679, 0.04284349071253939, 0.0421571316985128, 0.0414140426719196, 0.040662399453597814, 0.03991758444551264, 0.03914674941373803, 0.03845325937519175, 0.03765640596293893, 0.036856816321749364, 0.03604239589644601, 0.03523743244114627, 0.034462761768823715, 0.033644422529563636, 0.03282360544722298, 0.03200018280366752, 0.031174133138045297, 0.030426664261570188, 0.02958540491028231, 0.028746532694267878, 0.02792321418869509, 0.02708647706071041, 0.026234831838231564, 0.025405154855222024, 0.024630992310591952, 0.023797579275938386, 0.022969202936103186, 0.02219603791079168, 0.021371335948399427, 0.02058168674201202, 0.019769409708632595, 0.018966439170230085, 0.018130119889091616, 0.01735079100642302, 0.01666326963304223, 0.01588732669673862, 0.015124034965524598, 0.014336600715686904, 0.013603097514106629, 0.012920815120234417, 0.012204000873306201, 0.011501181478673496, 0.01081455162222438, 0.010140336739750575, 0.009494738313261527, 0.0088494338916995, 0.008220894591607119, 0.007648168409869677, 0.00704956003560872, 0.0064770564733960525, 0.00591856232760368, 0.005381227879754418, 0.0048885452007786465, 0.004391589614490109, 0.0039433075176142675, 0.0034905750022588846, 0.003063428531643321, 0.0026504674721007596, 0.002276599916763625, 0.0019187838164379527, 0.0015980291652125545, 0.0013034200824777096, 0.0010664790606416596, 0.0008221106793916289, 0.0005978488670867773, 0.00041463506471849353, 0.00026148663524925767, 0.00018917901539417035, 9.14757728072812e-05, 2.8353326284463713e-05, 0.0, 6.662663504888564e-06, 6.795728106012515e-05, 0.0001431485823527287, 0.0002361446981020261, 0.0003882831065721846, 0.0005770261311427294, 0.0007951496848270894, 0.0010596039561106701, 0.0013598508208401028, 0.0017006010629594761, 0.002080172186368664, 0.002543609996538794, 0.0029970437274073032, 0.003483958598405807, 0.004025130491010445, 0.0046094095299582935, 0.005252630469258656, 0.005922327667930447, 0.006619800608937931, 0.007382315477651193, 0.008189631027786326, 0.009092451130561806, 0.009984448557105596, 0.010881060552290024, 0.011876831072604394, 0.01291932633769495, 0.014065071840424078, 0.015195433531518686, 0.016334641597837492, 0.017573085446141282, 0.01886056753168983, 0.02023036682437373, 0.0216130784044436, 0.02307499916906179, 0.02455876016096415, 0.026096504216975708, 0.027628305800630925, 0.02928150666702043, 0.030967936688985648, 0.03272510996661646, 0.0345329745105779, 0.03644816548989421, 0.03835211982738678, 0.040267171855550114, 0.042287823034200145, 0.04436156701573012, 0.04652164817072767, 0.04869860188078323, 0.050950915667855715, 0.05323754934102466, 0.05558138737024857, 0.05793208848698661, 0.06039635867577394, 0.06295335539171538, 0.06552125501328973, 0.06814603772152937, 0.07082764529826739, 0.07356602126421714, 0.07636110913665839, 0.07921285083711256, 0.0821211852380787, 0.08506093363018442, 0.08808542630399649, 0.09120159128548865, 0.0943314962726925, 0.09751862824411787, 0.10068933495264944, 0.10399947451916054, 0.10743541071247974, 0.11084140354645929, 0.11430454569878927, 0.11782639518470896, 0.12140248121972144, 0.12498837079002291, 0.12868228702707213, 0.13242904458151275, 0.13624604702520773, 0.14009629704340032, 0.14400608120957786, 0.14796282839550906, 0.15197312478325778, 0.1560791369657227, 0.16019014801419146, 0.16429810456783614, 0.16852552882633556, 0.1728032046732011, 0.17715798525153853, 0.18153213297407955, 0.1859225954019608, 0.19040280064535386, 0.19493111239532973, 0.1995188797358262, 0.20414117386778635, 0.20885967642697537, 0.2135712443059503, 0.21833251958205901, 0.2230730805402355, 0.22793995928513616, 0.23289645401438108, 0.2378437327319824, 0.24283632605856426, 0.24787931290326304, 0.2529596554032873, 0.25804292570750526, 0.2632146268624637, 0.26842602853299186, 0.27368249755907575, 0.27897124256076816, 0.2842715671540468, 0.2896403948911774, 0.2950451313011167, 0.30048342481363066, 0.3059589129745248, 0.3114803852573319, 0.317022650730715, 0.3225988306475753, 0.32820627660513685, 0.3338483563515868, 0.33948725147895326, 0.3451961358226009, 0.3509331016281918, 0.35679614214468786, 0.36257517901606057, 0.36832041070272664, 0.3741700397709777, 0.38004499070063297, 0.38595989391066604, 0.3918810447585652, 0.3978741543053217, 0.4038355285189458, 0.4098212809200238, 0.4157392325924837, 0.42178111357800235, 0.4278768964558975, 0.4339438989299235, 0.4400272273377849, 0.44607957416466876, 0.45219857338317965, 0.45841923032687015, 0.4645478812055669, 0.47069124500055054, 0.4768343712488755, 0.48300463341800587, 0.4891170888480481, 0.4953143179871069, 0.5015151923555122, 0.5077635312364351, 0.5139641916582395, 0.5201516196099661, 0.5263616755029823, 0.5325726952035533, 0.5387470155677802, 0.5449617128301472, 0.5512206932560973, 0.5574205623651306, 0.5636176862372134, 0.5698031633000825, 0.5759922615188601, 0.5821341227341885, 0.588313929608567, 0.5944459245733051, 0.6006074027416647, 0.6067541669907033, 0.61292625183253, 0.6190367923770969, 0.6250886692351145, 0.631175319764734, 0.6372431513479844, 0.6433127138146376, 0.6493380721672612, 0.6553396990341824, 0.6613248081198524, 0.6672878161707171, 0.6732431840408661, 0.6791570440805395, 0.6850505208546867, 0.6909142527312501, 0.6967516727303591, 0.702540374720255, 0.7083244025147301, 0.7140948853986115, 0.7198139101322708, 0.7255010865741707, 0.7310915706413378, 0.7367198383058543, 0.7423654561410041, 0.7479087549940744, 0.7534153909482088, 0.7588321186695229, 0.7642687790469623, 0.7696317303419428, 0.7749860799137066, 0.780294623036688, 0.7855781729492575, 0.7907910498273593, 0.7959307932229577, 0.8010541532250535, 0.8061283713720153, 0.8111142395122976, 0.8160933036894688, 0.8210211643241245, 0.8258933543475481, 0.8307117376295352, 0.8354719610913127, 0.8401817065921828, 0.844868674025261, 0.8494624584074311, 0.8540012929685947, 0.8584669005440092, 0.8628953730074213, 0.8672807400939158, 0.8715894295479468, 0.8758390057794326, 0.8799648856354914, 0.8841018109952935, 0.8882045067125479, 0.8922069825925995, 0.8961454807021023, 0.8999266805161769, 0.9037471608884156, 0.907514059577534, 0.9111905599069338, 0.9147972881923268, 0.9183939797555307, 0.9218530934182663, 0.9252123659038997, 0.9285408727931757, 0.9317990520104835, 0.9349536310680641, 0.9380740077449279, 0.9411035253647984, 0.9440789855003742, 0.9469796312982279, 0.9497764059566436, 0.9525308109100912, 0.9552354790309993, 0.9578329643205956, 0.9603552643263513, 0.9627789548808853, 0.9651530797919915, 0.9674287224348862, 0.9696510006247551, 0.9717946962354309, 0.9739139644086108, 0.9758938186438851, 0.9777827743418969, 0.9796132428479476, 0.9813665347300463, 0.9830752371523026, 0.9846692846239551, 0.9861370747760189, 0.9875849566799725, 0.9889531354321306, 0.9902435989891247, 0.9914522947591202, 0.9925931545267296, 0.9936415761451086, 0.9946113184659109, 0.9954965541608758, 0.9963095965881927, 0.996993377907524, 0.9976547813688007, 0.9982345074268457, 0.9987079588976415, 0.999129019776852, 0.999512877415858, 0.9997656847354697, 0.99994057248668, 0.9999720537527961, 1.0, 0.9999836630285984, 0.9998457555290181, 0.9996303924638626, 0.9993051054396456, 0.9989400984631066, 0.9984949769499681, 0.9979744889747967, 0.9973769629504866, 0.9967049364350047, 0.9959548872217717, 0.9951412600435516, 0.9942399498868884, 0.9932651983981017, 0.9922097162591452, 0.9910903826344561, 0.9899352228635434, 0.9886667223882477, 0.9873288252363557, 0.985888942882547, 0.9844172049153582, 0.9828615926387521, 0.9812515042033509, 0.9795715971825507, 0.9778535438432722, 0.9760323769449769, 0.9740971069237047, 0.9721509324428804, 0.9701372762104907, 0.9680512938234241, 0.9659062390050305, 0.9637116256788513, 0.9614355367380291, 0.959097175921286, 0.9567069919821827, 0.9542452398006019, 0.9517376631366816, 0.9491562347875179, 0.946517689797337, 0.9437821120875196, 0.9410364461578646, 0.9382585397205293, 0.9353960510609841, 0.93247972172569, 0.9294756079473095, 0.9264584922216892, 0.9234441313310691, 0.9203145463086917, 0.9171371115568857, 0.9138796428957008, 0.9106126685785348, 0.9072942212190918, 0.9039335455457894, 0.9005270997669579, 0.8970585546626777, 0.8935659327170723, 0.8900393812742255, 0.8864595465227918, 0.8828390163617267, 0.8791498847820864, 0.8754548339599415, 0.8717882698808698, 0.8680077086503317, 0.8641943635667922, 0.8602774446045364, 0.8564096686461148, 0.852536253996121, 0.8485969587301307, 0.8446273849642697, 0.8406479172179708, 0.836618540778599, 0.8325264567468594, 0.828450616143385, 0.8243485339944256, 0.820200190337888, 0.8160519776297008, 0.8118760888707808, 0.8076820767005436, 0.8034666704856203, 0.7992504821949629, 0.7949936921681581, 0.7907396888229791, 0.7864484357398821, 0.7821438119259151, 0.777818963028779, 0.7734912063187426, 0.7690943482747794, 0.7647525931534289, 0.7603983784812931, 0.7560775723574403, 0.7516970744695928, 0.7473339352135178, 0.742939782734183, 0.7384521591846266, 0.7340648678958257, 0.729671298633751, 0.7252922773327115, 0.720888160579126, 0.7165275915853502, 0.7121172423096024, 0.7077107704124432, 0.7033031057286545, 0.6989073107900639, 0.6944844430827638, 0.6901051432403222, 0.6857313861882406, 0.6813816340276136, 0.6770199604469642, 0.6726660078449502, 0.6683247306896595, 0.6639946825853368, 0.6596284138260667, 0.6553294536256914, 0.6510608317230285, 0.6467826703627061, 0.6425189553223851, 0.6383015268483692, 0.6340655609898371, 0.6298214362479102, 0.6256272589290623, 0.6214516492234673, 0.6172374772721755, 0.6131087761701306, 0.609046082250786, 0.6049479187471941, 0.6008725361115724, 0.5967839089431987, 0.5927607454201583, 0.5887989185702873, 0.5848171918571345, 0.5808621207235165, 0.576905235352696, 0.5730086528816142, 0.5691366674554014, 0.5652941045984139, 0.5614793604811545, 0.5576467337113917, 0.5538954384629429, 0.5502156732370767, 0.5465138947655943, 0.5428435068129961, 0.5391933543708647, 0.535588501140721, 0.5320001849469135, 0.528461742744728, 0.5249553450155422, 0.5214564220136577, 0.5180188778443797, 0.5146212063478174, 0.5112476071297044, 0.507907790615552, 0.5045867594162896, 0.5013177910319576, 0.4981216217834503, 0.4949165600237798, 0.49174871051977337, 0.4886200655136721, 0.4855265748016034, 0.4824667134287797, 0.47944873162454593, 0.4764680924335737, 0.4734707654453535, 0.47057182060350905, 0.46774983530059866, 0.46491490628722393, 0.4621176969513216, 0.45931185045846745, 0.45659594892727967, 0.45392673973307446, 0.45127992074330014, 0.4486694858588787, 0.4460685311507874, 0.44353466953182674, 0.4410920092469324, 0.43862167778098804, 0.43619012122442485, 0.4337583986861491, 0.431408369024092, 0.4290515530167022, 0.42677834657275826, 0.4245384806649628, 0.42236509314939047, 0.4201885760150386, 0.4180170145393074, 0.4159159670713727, 0.4138486929381854, 0.4118248886277625, 0.40982400205307934, 0.40784580545544147, 0.4059147664777397, 0.4040169702019941, 0.40216772919725047, 0.4003340033769476, 0.39854351687630124, 0.39677536627034143, 0.3950405976533976, 0.3933484053368276, 0.3916777853141648, 0.3900532168159867, 0.38844540139990613, 0.3868697952182626, 0.3853161033864161, 0.38380424907573735, 0.382302894121233, 0.3808526117326604, 0.37943005653506734, 0.3780020456311612, 0.37663805209721274, 0.37532784143138564, 0.37400966994864815, 0.3727176312947001, 0.3714744586124519, 0.37023040043253785, 0.36899694935253563, 0.3678063069585714, 0.36663955243475954, 0.36545367944597096, 0.3643385495367761, 0.36322407363231385, 0.362151154798755, 0.36109672804386467, 0.36006068680457565, 0.3590428678656377, 0.3580295343490998, 0.3570491803556701, 0.3560855126634933, 0.355184663453705, 0.35424776813545433, 0.3532964944201432, 0.3523999467334373, 0.35151857450038393, 0.3507118246870843, 0.34985189649221077, 0.3489820864078033, 0.34815893079218974, 0.3473495210256402, 0.34657057696646903, 0.3457844745599983, 0.34497249621165366, 0.34421602757337816, 0.3434686370753386, 0.34270480507703766, 0.34197751168387835, 0.34128173778462156, 0.3405638379666932, 0.3398532315490012, 0.3391474758136985, 0.3384501657131826, 0.3377623665197187, 0.3370753641731125, 0.33639322787847786, 0.3356729272963296, 0.33500430728798153, 0.334332723983149, 0.3336662168411843, 0.333000003487262, 0.33232614143666606, 0.33166081383470486, 0.3310313100799916, 0.3303593425126724, 0.3296880474983801, 0.32901104173128515, 0.32834007605072635, 0.3276348993022462, 0.3269648480417153, 0.3262905991030129, 0.32560807418421606, 0.32492525057217325, 0.3242276419288962, 0.3235355427179152, 0.3228372680102268, 0.3221789804549589, 0.32146187068390075, 0.32069416237426296, 0.31997381482636894, 0.31924540696124615, 0.3185357938612918, 0.31778726027704746, 0.3170296376313516, 0.31626658683673875, 0.3154953954150041, 0.3147195328447509, 0.31393040548669854, 0.3131302882634615, 0.31232291133345963, 0.3115056317923113, 0.3106955113468982, 0.30985527151340275, 0.3090187024197744, 0.30815663284482814, 0.3072846699468806, 0.30636757954792215, 0.30547888220313996, 0.3045596907528451, 0.3036469098934112, 0.30271991272022414, 0.30180968029396915, 0.300850543548191, 0.2998327325966362, 0.2988546162752447, 0.29791912374754703, 0.29690321582487744, 0.2958755939949575, 0.29480889225442725, 0.29376033655600564, 0.2927112187947858, 0.29163278600388665, 0.2905410345247102, 0.28943393321993216, 0.2883155086649239, 0.2871370496193227, 0.28599711131867717, 0.28484084838416207, 0.28373817201297946, 0.28254153467123044, 0.28126586837047596, 0.2800546661784671, 0.2788277391859672, 0.27758737260018157, 0.2763297845687906, 0.2750884700583233, 0.2737979699138362, 0.27249508531853744, 0.271148896105157, 0.2698251353092521, 0.2685220507336547, 0.26716599504769034, 0.2657983679122179, 0.2644075674111826, 0.2630182544616813, 0.2615665337435665, 0.26015936118420024, 0.2587375030286026, 0.2573150560394323, 0.25586379835887096, 0.25445044357245783, 0.25296854384487766, 0.2514778353212784, 0.2499106300700846, 0.24841066543949433, 0.24689412265616578, 0.24536979466408673, 0.24383365332732734, 0.24230941940923387, 0.2407483061084066, 0.23914536474637083, 0.23757069479354712, 0.23598572832479398, 0.23445088382138193, 0.232839321995809, 0.23120881436368912, 0.22958808714185056, 0.22796116017389034, 0.22628762195402966, 0.22465391219359135, 0.22301031974367044, 0.22136148938188446, 0.21970564881648083, 0.2180529625717051, 0.21638337573210906, 0.2146991167226326, 0.2130210952368838, 0.2113382544727244, 0.20970319133243615, 0.20800542074478956, 0.20625681087749118, 0.20456415006692438, 0.20286807122183004, 0.20123665827091444, 0.19952659525271152, 0.19775067016329576, 0.1960525462964802, 0.19435221508468475, 0.1926637410241433, 0.1909588905454588, 0.18922131648025634, 0.1875212274258173, 0.18582016107106838, 0.18414193352734393, 0.1824378506610662, 0.18071657567124463, 0.17901953899119796, 0.1773242452251049, 0.17568914915135445, 0.17399149582709425, 0.17230027815640042, 0.1706154719335215, 0.168937094472705, 0.1672342919281739, 0.1655728773678516, 0.163904826874254, 0.16225518007780276, 0.16061061560496193, 0.1589986495994414, 0.15736222532254007, 0.15569126107443984, 0.15407633029277892, 0.15246738843656402, 0.1509190902755516, 0.1493169482495022, 0.14770224561318784, 0.14612431301868142, 0.14455580174401664, 0.14303175938790735, 0.14147851953660764, 0.13985827147583768, 0.138339425820484, 0.13682834235323646, 0.13534116182084657, 0.13384565366139994, 0.13233556210435882, 0.13086470029042618, 0.12940375518854513, 0.12804794601012576, 0.1265965043083402, 0.12512127139720633, 0.12370818183123268, 0.12230899105864047, 0.12089676120035787, 0.11952911480105158, 0.11817611950288012, 0.11683400674506314, 0.11550537601308183, 0.11419823143516458, 0.11289639975484475, 0.11165175825244097, 0.1103740968752695, 0.10911382764218773, 0.10782052947991234, 0.10660084578134983, 0.10536820729728144, 0.10418042551343352, 0.10300579396115238, 0.10190466647645363, 0.10075011981513851, 0.09960561807095272, 0.09848744296425933, 0.09738632882525959, 0.09626359322829545, 0.09520135439135835, 0.09418866481358351, 0.09315186982512533, 0.09213234172294914, 0.0911087726887106, 0.09012629644633384, 0.08914235067618217, 0.0881940327598919, 0.08726089124130157, 0.08632577095176187, 0.08542583930250706, 0.08458126977116517, 0.08370607565936704, 0.08284846417668319, 0.08197159956051078, 0.08115340244000398, 0.08037352532584331, 0.07958284779108345, 0.07880892197601093, 0.07804394169939877, 0.07730425344816012, 0.07657290208399531, 0.07586628544800852, 0.07517521955401187, 0.07453254876625566, 0.07386842578798505, 0.07319847326113163, 0.07257167375410582, 0.07196032110533544, 0.0713353483497345, 0.07075827359639915, 0.07023142668473914, 0.06967687705236254, 0.06913811089017462, 0.06856658744045381, 0.06806476225614504, 0.06765449324711287, 0.06716751944616071, 0.06669761877600804, 0.06618627726861606, 0.06575621170423011, 0.06531716013959217, 0.06491432979743808, 0.06452258607558475, 0.06423286320126184, 0.06385219112282288, 0.06345129267171795, 0.06310750865905945, 0.06277678536098288, 0.0624356397379925, 0.06213307455982838, 0.06187037170723294, 0.061585827214907116, 0.06131360523132433, 0.061008924874916604, 0.06076593140818051, 0.060564602292936455, 0.060335153575567645, 0.0601164362888494, 0.05996226162352512, 0.05975733770740629, 0.05946490807144173, 0.059297879966760024, 0.059169661081514224, 0.059010636341860954, 0.058859805424614844, 0.05875372377881297, 0.05861418349143206, 0.058405216350783176, 0.058294768648534126, 0.05818873222104404, 0.058180048683690685, 0.05807170338815553, 0.057946414754650045, 0.057861011593256115, 0.05778288295156748, 0.057671097063508134, 0.05761156914228544, 0.0575830360770996, 0.057527992740266154, 0.05747839687487645, 0.05746488936942423, 0.05742148161569578, 0.05734582929411888, 0.05731958399927578, 0.05729658646087224, 0.05726125368065063, 0.05724630904550668, 0.057229465060894116, 0.057218904939938045, 0.0572100046771276, 0.0572027199016536, 0.05719698429947649, 0.05715600811883935, 0.05715773640447458, 0.05715864585210239, 0.05721298897077886, 0.05720586141692759, 0.05723800294266263, 0.05723096382879176, 0.05722776764282903, 0.05719684917386598, 0.05720333128091619, 0.057190792782976445, 0.057200053484636346, 0.057208021314469185, 0.057239727141047206, 0.05724167739294049, 0.05720483376115719, 0.057211042853223634, 0.0572143249526935, 0.05721471712899322, 0.057212233952044035, 0.05723198324284999, 0.057220540628380355, 0.057207565786258734, 0.05722757763452383, 0.057206396223318766, 0.0571404842752415, 0.05712382790087646, 0.05710343752551027, 0.05704062939810115, 0.05701750559871356, 0.0570752482297576, 0.05702925319152991, 0.05698252634634709, 0.056899765698049304, 0.056854435614480565, 0.05684169277333327, 0.05678338595401322, 0.05672282311405418, 0.05660552885897407, 0.05654617861282689, 0.05650754796901096, 0.05643229238008444, 0.05635253672148623, 0.05624307323174283, 0.056157218030897266, 0.0560767871062036, 0.055977266449426584, 0.055872477947492095, 0.055756632619596916, 0.055642057918996395, 0.05554122056799024, 0.05541309005179294, 0.05528055191156265, 0.05513575933825719, 0.05499503855391495, 0.05485109215649558, 0.05469979570233728, 0.05454342108246437, 0.05440319387208684, 0.0542339101212177, 0.05399114222736159, 0.05382259349251936, 0.05364587210689026, 0.05351163542643436, 0.05331346392933792, 0.053130412049962016, 0.05292130106905784, 0.052708891117870804, 0.052419549986754445, 0.05220918309318089, 0.052058432732025636, 0.051823982134760645, 0.051586195716426794, 0.05132364641711824, 0.05108137172588426, 0.050778099115158806, 0.05053302796405557, 0.05027998285419816, 0.05004073787370358, 0.0497705765860965, 0.049504706847319425, 0.0492227945539766, 0.04893644846215566, 0.048634170569652364, 0.04834069584831167, 0.04804433381944635, 0.047741151348249224, 0.0474335938196659, 0.04713724895425928, 0.046819379357387614, 0.04647133360666444, 0.04615060873734622, 0.04582522051441503, 0.04558039255147753, 0.04523558894246389, 0.0448219735877804, 0.044486923421803846, 0.04414776700719777, 0.04378538012867891, 0.04344102491465419, 0.04311328195847844, 0.04275728843852921, 0.04239847033381689, 0.042085225194779495, 0.04171496123188057, 0.04127728129634865, 0.04091567525080987, 0.040549952697149644, 0.040178534470414314, 0.039805853251978336, 0.039455037515503846, 0.03907297834309998, 0.03868964379508883, 0.03833019537490088, 0.037941286939671026, 0.037514042487092863, 0.03713048402756652, 0.03674481868732647, 0.0363746663471678, 0.03598327661519041, 0.03557789422561766, 0.035187329706037655, 0.03479565452627719, 0.03443588627752449, 0.03403836141595559, 0.033589919217566884, 0.03320136149070235, 0.03281092538711377, 0.03247692436173988, 0.03207645335213871, 0.03161073463380112, 0.03122335148480991, 0.030834192655481454, 0.030499698563579827, 0.030101121921766668, 0.02967607827199196, 0.029286045272425457, 0.028896643029252368, 0.0285176737753335, 0.028128734100662738, 0.027760692621006233, 0.027372515672496902, 0.02698709579991965, 0.026613987916992224, 0.026232570986045225, 0.02586579568570284, 0.025488892945823727, 0.025115472603109947, 0.024755026238919703, 0.024386879220095706, 0.024016551177273544, 0.02365620583247759, 0.02329886204905979, 0.022903899436280142, 0.02255754810097973, 0.0222040901486208, 0.021860279653210822, 0.021517273315609233, 0.021165742506231405, 0.02082652443627612, 0.020507783290190394, 0.020168760031891886, 0.0198325836272086, 0.01946457962223235, 0.019138776512254742, 0.018875950183487793, 0.01854500080000696, 0.01821933847277939, 0.01784657773907843, 0.017537428886129792, 0.0172648073877408, 0.016955036891915805, 0.016618560439748326, 0.016321025244865808, 0.016025809955117265, 0.01577946224092213, 0.015483554761790176, 0.015173734032397954, 0.014890822770481404, 0.014611748869003007, 0.014330669565928576, 0.014059864031589254, 0.013867776976086127, 0.01359421154014094, 0.013328265473171027, 0.013040357777365367, 0.012791573520623429, 0.012572292158349868, 0.01232893659302575, 0.012091052757341219, 0.011864103322245792, 0.011635475806770563, 0.011421432374318842, 0.011201172021867212, 0.010985891618234316, 0.010777252419678257, 0.010570914419257983, 0.010374759177322751, 0.010176279498644662, 0.009982173256092948, 0.009879193562256994, 0.009682339731637804, 0.009525195803583126, 0.00934123541597425, 0.009166314148127543, 0.008959015513217443, 0.008804870092707522, 0.008664933421308882, 0.00851845477188739, 0.008376686373600834, 0.008322483706224834, 0.008179041334438857, 0.00804252551476064, 0.007916275110270295, 0.007797347138674202, 0.007723832827359265, 0.007613117508275844, 0.007510507984806479, 0.007415379212527489, 0.007327204294113475, 0.007336337405296342, 0.007249349494877362, 0.007181043440666067, 0.007114025768417933, 0.007056615921370089, 0.006973289748042909, 0.0069373576124447025, 0.006938086000383645, 0.00690960330163792, 0.006888364014728357, 0.006953269502091037, 0.006935666159819914, 0.006959951490465161, 0.006959643349142209, 0.006970660626859792, 0.006965188855416234, 0.007000097214698634, 0.007025492150794359, 0.007078137773775655, 0.007137330718879594, 0.007253348451240811, 0.007319469276643659, 0.007495648472678931, 0.007568004970410013, 0.007655123309508506, 0.007700027983518237, 0.007821044553143131, 0.007999554228600101, 0.008132769327955166, 0.00827776097855168, 0.00848244124169172, 0.008643820247728971, 0.008859359853975067, 0.00904226009857559, 0.009240067325013304, 0.009438602835231999, 0.009666091370635595, 0.009938964618955166, 0.010187180924717232, 0.01044944205495531, 0.010752461314997106, 0.011038488535132769, 0.011302641587398259, 0.011622661728664312, 0.011954926415669656, 0.012328568023633016, 0.012682157871130672, 0.01305597446852376, 0.013437701690200376, 0.013834248994184565, 0.014264986425427955, 0.014688931098354568, 0.01515224164077866, 0.01560563459344724, 0.016076581245039485, 0.016613289780849288, 0.017113038682998884, 0.017586603317287945, 0.01813225691947406, 0.01869494801320142, 0.019352175516328604, 0.019939879586706552, 0.020511076499649537, 0.02114759386847363, 0.02180350680655726, 0.02250408573314649, 0.023196121565518497, 0.023899876405065374, 0.024635937441055796, 0.025392978794283757, 0.026159626299719477, 0.026960771123907216, 0.027777179625608453, 0.02862155752559764, 0.029487440008071134, 0.03041776616549398, 0.0313226018893534, 0.032266162562557384, 0.033219784073347754, 0.03419958723161236, 0.03519790068473162, 0.036231255722149566, 0.03726554074808288, 0.0383543935008219, 0.03946837529833593, 0.04059830808926411, 0.04176520392589135, 0.042983218918712034, 0.04419948662943545, 0.045444222750135495, 0.046735113294035235, 0.04803549797989554, 0.04931216544537003, 0.05068032019313616, 0.05207620659242942, 0.05359128231102515, 0.05503310826331951, 0.056486467168843216, 0.058000488067540275, 0.05954765585942915, 0.061159020096313764, 0.06276902432654313, 0.06433327750987619, 0.06602427289307294, 0.06774607783777054, 0.06951485605467918, 0.07129841179625894, 0.07315235177683015, 0.07499909431422916, 0.07688249245332295, 0.07878143306585018, 0.08074125893569531, 0.08274667461878688, 0.08477750160104106, 0.08684551437721219, 0.08893938855444691, 0.09108403850460843, 0.09327568418412632, 0.09549414672804174, 0.09775119546656462, 0.10002776927798217, 0.10236520007034065, 0.104737030017324, 0.10715187592629145, 0.10960554595254014, 0.11213512929015228, 0.11466293758291193, 0.11721918910926024, 0.1198326574286735, 0.12248738573649466, 0.12521443857677392, 0.1279482443978619, 0.1306868687108203, 0.13351236511712122, 0.13637896795904786, 0.13927920605261526, 0.14222974680668324, 0.14523326015213311, 0.14826535980762487, 0.15133998732092163, 0.15449396385867023, 0.15764934672684508, 0.16080327163428823, 0.16405411315384597, 0.16734685624881707, 0.17067977424680408, 0.1740571512416559, 0.17749810124403093, 0.1809575766109281, 0.1844608176808164, 0.18796910383418775, 0.1915645028960486, 0.1952186191329089, 0.1988946945017987, 0.2026134564545049, 0.20637295904292594, 0.21017727406863507, 0.21404724143765375, 0.21793350567947653, 0.22182862479508617, 0.22580624895537338, 0.22982497064690713, 0.2338673970543244, 0.23797045668711686, 0.2421598775240457, 0.2463371060140183, 0.250556956110243, 0.2547784315759876, 0.2590873732549171, 0.2634566380162188, 0.26784094877832415, 0.27226530345786815, 0.27673322655556165, 0.28123614960868604, 0.28580145637105375, 0.2903794419819592, 0.29499709903004995, 0.2996460833572536, 0.30434222200087624, 0.30904101110171905, 0.313815867085652, 0.31862514354730276, 0.32347631720039366, 0.3283526670656897, 0.33327073133722407, 0.33821365514913027, 0.3431901275673328, 0.3482092727002399, 0.35325000146269236, 0.3582980578187932, 0.36340618562042537, 0.36854402418713195, 0.3737226971749353, 0.3789170589656164, 0.3841499464970872, 0.3894001707273922, 0.39467848883528245, 0.3999686891181934, 0.40530287172868235, 0.4106581296250142, 0.41604202851561123, 0.42144932741836083, 0.4269025455455595, 0.43235170303148523, 0.43780032300483124, 0.44329678248095117, 0.44881275402222753, 0.45433978408633685, 0.4598935545965437, 0.465442907128383, 0.4710322980176704, 0.4766358414601431, 0.4822857660971106, 0.48791158249337296, 0.49358233677819224, 0.4992313042363063, 0.5048940343197494, 0.5105441615039809, 0.5162338631789705, 0.5218762205453478, 0.5275893842472622, 0.5333061232138561, 0.539060671259836, 0.5447784873238193, 0.5504420806643029, 0.556173696854546, 0.561903801018996, 0.5676550269349068, 0.5733774644791613, 0.5791171661199969, 0.5848321324462122, 0.5905442589547397, 0.5962620755229319, 0.601963911147186, 0.607594373024246, 0.6132919124216906, 0.6189776516159331, 0.6246451236679345, 0.63030592145077, 0.6359891119140171, 0.6416158622093646, 0.6472287442204866, 0.652824655688052, 0.6584065324558892, 0.6639573949778447, 0.6695048409038528, 0.6750317209257705, 0.6804848269948134, 0.6859740067391489, 0.6914287783086703, 0.6968649077843223, 0.7022725321771338, 0.7077243427766232, 0.7130634716452707, 0.7183005687581527, 0.7235943866525012, 0.72885441573144, 0.7340566974724788, 0.7392497047505323, 0.7444322100126078, 0.7495459978058526, 0.7546222924981474, 0.7596407557145645, 0.7646414325379773, 0.7695772543797119, 0.7744966202294393, 0.7793711977736467, 0.7842350062431808, 0.7890133126593519, 0.793688457230175, 0.7983825394814209, 0.8030259015720997, 0.8076488045654971, 0.8121848303866405, 0.8166485481798168, 0.8210841295798268, 0.8254654340649976, 0.8298012842635849, 0.834070289934384, 0.8382752836964921, 0.8424317486691736, 0.846529603563388, 0.8505679733878008, 0.8545459834826765, 0.8583835585465848, 0.8622482507542352, 0.8660455356160948, 0.8698118987903636, 0.8734690036912699, 0.8770289971347787, 0.8805569072221714, 0.8840154773789716, 0.8874158360813617, 0.890732841351013, 0.8939468373254599, 0.8971270194719347, 0.9002339093297125, 0.9032497395686192, 0.9062110669953535, 0.9091181413919862, 0.9119254558593612, 0.91465778499623, 0.9173068494184479, 0.919888527732684, 0.9223680189703806, 0.9247982420321293, 0.9271490164811759, 0.9294606319369569, 0.9316465273288591, 0.9337002746657885, 0.9357362450272099, 0.9376898605834101, 0.9395551812615947, 0.941344365333477, 0.9430581058689805, 0.944679826375055, 0.9462185065414191, 0.9476430089963035, 0.9490188326305246, 0.9503169328179668, 0.9515209139995044, 0.952639928898904, 0.9536410742277629, 0.9545941160532171, 0.9554775377118305, 0.9562545683459044, 0.956945940004759, 0.9575323453826219, 0.9580548737139033, 0.9585737619780972, 0.9589125509861663, 0.9591696384548863, 0.9592633823511144, 0.9593658836841236, 0.9593827757252537, 0.9593103216631915, 0.9591511625151351, 0.9589172195722947, 0.9585841716902682, 0.9581467316351753, 0.9576462092024264, 0.9570600066019933, 0.9564117232789199, 0.9556524814969178, 0.9547772709598468, 0.9538561578376877, 0.9528505682851446, 0.9517996917287411, 0.9506219209220509, 0.9493113336624321, 0.9479790778138151, 0.9465637516023347, 0.9450931370513622, 0.9435104479641374, 0.9418696290460841, 0.9401259829174061, 0.9383051500079316, 0.9363746537526094, 0.9344047347179356, 0.9324110969546154, 0.930279475497834, 0.9279973226366265, 0.9257292817088475, 0.9233843673983517, 0.9209636505994925, 0.9184681785582289, 0.9159453415780379, 0.9132975637012818, 0.9105806703841152, 0.907804936927812, 0.9049504798718709, 0.90196373346736, 0.898985013094694, 0.895937339893059, 0.8928142465759543, 0.889633395775885