0.06688306427217945, 0.06641160610858145, 0.06594627557810619, 0.06550055843419582, 0.06504315339634517, 0.06452431914665503, 0.0640838325889861, 0.0636429797143739, 0.06319603585984371, 0.06275524551619566, 0.062408633460365584, 0.06195475085222182, 0.061505772532101335, 0.06103805343924846, 0.06059987790889922, 0.06014635245288094, 0.05971389158178636, 0.059281932043482574, 0.05885333907469996, 0.05842201605564584, 0.058025850174188064, 0.05759156913095849, 0.057159959019540796, 0.056658981253660666, 0.056241126034124504, 0.055850049967305505, 0.055425137168107354, 0.055000767360684724, 0.0545454938556337, 0.05412663646179105, 0.05368686242381399, 0.05326930227370961, 0.05285052203814026, 0.05251715178279815, 0.05208638767912052, 0.05160592094687365, 0.05119142383118851, 0.05077804508045528, 0.05029414422241824, 0.04989254948561869, 0.049554539083392544, 0.04914033898064074, 0.04872867710417518, 0.048256371371163516, 0.04785778407833141, 0.047558716765919606, 0.047145919684385126, 0.046738709843044006, 0.04629645554198954, 0.04590428577077456, 0.04551145003189605, 0.04512409095592102, 0.044738844451426896, 0.04439022856925229, 0.044005003856089873, 0.04360961118004485, 0.04323435115044292, 0.04286203739661812, 0.04243516798469203, 0.04207584059662894, 0.041773530732248945, 0.041406525529667365, 0.04104313826081938, 0.040643039389698724, 0.04029162891195484, 0.040001584917090244, 0.03964490612911862, 0.039293143259027385, 0.03884836288937119, 0.038517969845677236, 0.038174788722415996, 0.03784385588579589, 0.037512123499041074, 0.037309403172423365, 0.03696136597218673, 0.0365494877173914, 0.03622579729398905, 0.03590481034066062, 0.03557224192409153, 0.035258698081359376, 0.034944388738147564, 0.03463559588351667, 0.03432907916019412, 0.03402787304407269, 0.03372601470579924, 0.03343277316077195, 0.03313602476037939, 0.032842643339098386, 0.03252680604042381, 0.0322435023575289, 0.03201962815179922, 0.03173326531548717, 0.03145254339876238, 0.031197282610386075, 0.03092448321114339, 0.030666320443033218, 0.030404124524820844, 0.03014778378150945, 0.02988548207604363, 0.029641367629185535, 0.029372894862401334, 0.029141027745182273, 0.02891171504075982, 0.028682247848861035, 0.028458885117728913, 0.028269964177967993, 0.0280484582891506, 0.027831869306469484, 0.027637305664143533, 0.027428020269465562, 0.02713239998574332, 0.026945671548364077, 0.026758973564937817, 0.02667629141341841, 0.0264782851781277, 0.026293432581401693, 0.026109095704822154, 0.025931697458402535, 0.025709172207749938, 0.025551132300731288, 0.02543350389942616, 0.025277071076703315, 0.025126149778516148, 0.024914528970960737, 0.024782546467871393, 0.02465484638108495, 0.024525759281502964, 0.024399068799635524, 0.024346895140863772, 0.02421683453065858, 0.024102657299293218, 0.02398567622565246, 0.023875758017293396, 0.023743828557591988, 0.02365065096188664, 0.02358209455343791, 0.023495402685468722, 0.02341434735991733, 0.02333014982770842, 0.023260991047553234, 0.023216664537694113, 0.02315438347575805, 0.02309789353190026, 0.023078602378303732, 0.0230291690677443, 0.023021280873853783, 0.02298127763838421, 0.02294959308548149, 0.022968752489404238, 0.022946664158179357, 0.02293385881135718, 0.022929634337190634, 0.02293338486770344, 0.022944590791786276, 0.022962809606433845, 0.023033621041433056, 0.023058995738338344, 0.02309301839608794, 0.02317819133507349, 0.023222414351485726, 0.023238884823367088, 0.02330630985684136, 0.023394313452602452, 0.023472169477232435, 0.023556716132699575, 0.023719536266621655, 0.023807776839805974, 0.02392058149217954, 0.024026747083174125, 0.024142693391134337, 0.02425347508525151, 0.024389140488320703, 0.024606979444609517, 0.024747991019729302, 0.024900324115679294, 0.0251063484209966, 0.02527385755841158, 0.02551361733133156, 0.02569662481420645, 0.025893579076298613, 0.026094863629221216, 0.026317958039265312, 0.02657494813136113, 0.026816468170002324, 0.027069284592073625, 0.027338642342125925, 0.027611929849456592, 0.027907121523946952, 0.028199514399437867, 0.028502495442437666, 0.02881871124240792, 0.029141897394436345, 0.02955864350285358, 0.029891769095810462, 0.030239749684924898, 0.030564599554644176, 0.03094518358011346, 0.031443190607439664, 0.03183261841185306, 0.03223914787753476, 0.0326993148018599, 0.03313306245592508, 0.03352943724442621, 0.03400375107838095, 0.03449087995504013, 0.03501089469710479, 0.03552106199664534, 0.03603085871809424, 0.03657076036755063, 0.03712377626413565, 0.03771016326314109, 0.03828734728791524, 0.038962591727115525, 0.03955883826096918, 0.0401746709700396, 0.04083825914570391, 0.041488086770988454, 0.04217500458475028, 0.04286187827741367, 0.043568701169782405, 0.04421749677569754, 0.04497283239136236, 0.04577435631835652, 0.04655534827743399, 0.047353620801114854, 0.04819233969754555, 0.04902285754732661, 0.04983236593456609, 0.050706427307704714, 0.051597587295994486, 0.05248619048863359, 0.05341542355956863, 0.05439927072889365, 0.05535890731914441, 0.056339024274522746, 0.05735706123394365, 0.058376590627020615, 0.05945842431808262, 0.060517152305608356, 0.06160043964567675, 0.06263629643636383, 0.06377727553635083, 0.06501593476766528, 0.06618792192655963, 0.06738545525958543, 0.06857106172746097, 0.06982405229045258, 0.07113182882877661, 0.07242751477476787, 0.07374877434082827, 0.07507842405468607, 0.0764531872105159, 0.07791884981427721, 0.07933521274941156, 0.08078066680736472, 0.08216879495535241, 0.08368263028075783, 0.08527472469847297, 0.0868296608655031, 0.08841255481434991, 0.09007521533376535, 0.09170784489634677, 0.093343012315275, 0.0950415470675493, 0.09676930819151643, 0.09844024655927061, 0.10023771910703609, 0.10216913119670908, 0.10400327399343803, 0.1058700099117788, 0.10777494039531522, 0.10970575822336734, 0.11160889432378472, 0.11361254736743075, 0.11564537808549535, 0.11768778739474386, 0.11978300271657268, 0.12191056993028249, 0.12406496608956542, 0.126250127567007, 0.1285153558142752, 0.130757267706345, 0.1329909300115449, 0.13530793929808643, 0.13765735735754078, 0.14001370797169563, 0.14243230231349055, 0.1449173577586913, 0.14739609082070357, 0.1499097150514397, 0.1525043198633147, 0.15508231884003165, 0.15763786589063314, 0.1602989648136322, 0.16299408129695664, 0.1657378864752135, 0.1685001257384179, 0.1713267573037485, 0.1741568231366668, 0.17702439374659917, 0.1798747663550722, 0.18282386674494183, 0.1858702531011035, 0.18887992209681323, 0.19192791057718495, 0.19495654601206522, 0.19808777095590957, 0.2012908141438822, 0.20448658240499357, 0.20771949113978408, 0.21094925597676417, 0.21426130678995012, 0.21765972028625832, 0.22103481727019297, 0.22444794486452085, 0.22788162891081437, 0.23137228804720208, 0.23480455328006133, 0.23837990376147553, 0.24198618705207953, 0.2456930151988789, 0.2493543908822709, 0.25296040443366163, 0.2567063320819456, 0.2604833199196778, 0.2644154271097735, 0.26824049678713274, 0.2720561141611142, 0.2759653915589032, 0.27990992439578705, 0.2838607599804004, 0.2878787275096055, 0.29194971181613416, 0.2960309255449388, 0.30014606773931535, 0.30425178292931054, 0.3084393926245089, 0.3127122186677847, 0.31695425388192555, 0.32123000655347256, 0.32552173124939093, 0.32986556674450324, 0.33424637993394096, 0.33865160078876655, 0.3430876531285703, 0.34761729467218, 0.3521057295890842, 0.356581283694532, 0.3611407171061556, 0.36572878590812957, 0.37037085617012155, 0.375011476986227, 0.37965200679758726, 0.3843528183694026, 0.38907926795522096, 0.39378497077323926, 0.39856719809610885, 0.4034056123187202, 0.4082268207650766, 0.4130714155419437, 0.4179503878223542, 0.4228387944774004, 0.4277295864964236, 0.43266487698400724, 0.43762024916852116, 0.4426067066462837, 0.4475993103228512, 0.4525967518800479, 0.4576289196092707, 0.46266668504705166, 0.46773392500818217, 0.47281647727085024, 0.4778305441687508, 0.4829526973764577, 0.4880982298787961, 0.49323667406255606, 0.4983849708348634, 0.5035658401677071, 0.5087300901926131, 0.5139131055479058, 0.5190959136412324, 0.5242880188803872, 0.5294168339069062, 0.5346342366272133, 0.5398631100424179, 0.5450848699490229, 0.5503093567749302, 0.5555159695860667, 0.5607469011724447, 0.5659318088028441, 0.5711679060829539, 0.5764002814646594, 0.5816143159341064, 0.5868401886905484, 0.5920920645189681, 0.5973023527749635, 0.6025079184190737, 0.6076878310277185, 0.6128839794404478, 0.6180458455149835, 0.6232276340687328, 0.6283979718475585, 0.6335820706149083, 0.6387242673641852, 0.6437682165614037, 0.6488961318216665, 0.6540050988968281, 0.6591493446660491, 0.6642123905033372, 0.6692209050297816, 0.6742532417704404, 0.67926419208448, 0.6842185245942394, 0.6891887146394015, 0.6941762338523788, 0.699088861818306, 0.7039768694537734, 0.7088420504683063, 0.7136772123100208, 0.7184817894004077, 0.7232607733493834, 0.7280096539203503, 0.7326641574520459, 0.737357558149971, 0.7420628759974688, 0.746675713485221, 0.7512531778158387, 0.7557367512625051, 0.7602475072947588, 0.764753786240423, 0.7691755913765717, 0.7735564232277534, 0.7778723072745967, 0.7821711022828204, 0.786470590411233, 0.790672240786773, 0.7948295620694309, 0.7988350669458483, 0.8029135378399069, 0.8069381494477346, 0.8109086263365143, 0.814824614112326, 0.8187258976957552, 0.822526488854559, 0.826244676704983, 0.8299406244187825, 0.8335794573791395, 0.8371978345517205, 0.8407156574004709, 0.8441217852247005, 0.8475312154565044, 0.8508783985455103, 0.8541398021064569, 0.8573636975884353, 0.8606055909240701, 0.8636879199448573, 0.8667086905096146, 0.8696580929608718, 0.8725533106693234, 0.8753284979195342, 0.8780987249386925, 0.880798528741104, 0.8834561736689706, 0.8860101102550679, 0.8885254035111312, 0.8909341380904271, 0.8932729597082602, 0.8955007107211448, 0.8977019970965051, 0.8998370380152335, 0.9018870338762864, 0.9038617001954805, 0.9057289065871249, 0.9075553116683338, 0.9093059212829636, 0.9109743929635742, 0.912563873566035, 0.9140424865384122, 0.9154771238020545, 0.91686747121693, 0.9181340972353944, 0.9193210899139456, 0.9204797579125779, 0.921499799328154, 0.9223156267237912, 0.9231952149945453, 0.9239884467023649, 0.9247991245948058, 0.9254077302283156, 0.9259253367635522, 0.9263757867704504, 0.9267449719068399, 0.9270009293244793, 0.9272105152992381, 0.9273274726419314, 0.9273701388125337, 0.927328348919515, 0.9271907185588741, 0.926981784066116, 0.9267053046771073, 0.9263248484698664, 0.925861003482629, 0.9253109690412312, 0.9246809439160728, 0.9238757368159987, 0.9230909375002512, 0.9222180346521297, 0.9213154014116579, 0.9202617507482885, 0.9191602726272944, 0.9179379605220386, 0.9166358641919546, 0.9152683732402498, 0.9138050296038762, 0.9122284761250768, 0.9106120563540393, 0.9089151270147766, 0.9070950521663677, 0.9052439041783551, 0.9032681359984484, 0.9012602021854041, 0.8991699769508401, 0.8970818977007962, 0.8948199408317665, 0.8924319428393576, 0.8900281609082688, 0.8875478317287122, 0.8849889153616568, 0.8823583422961373, 0.8797339521296093, 0.876945578240872, 0.8740891557340681, 0.871038501836656, 0.8680626095363404, 0.8650554654932877, 0.8619268941552475, 0.8587292158137256, 0.8554720222124191, 0.8521379645152649, 0.8487382048962036, 0.8452736488440163, 0.8417452139961993, 0.8381997843445359, 0.8345405871515078, 0.8307453770307962, 0.826979654795216, 0.8231523809930799, 0.8192878753165482, 0.8153385969892774, 0.8113445019812933, 0.8072822547780102, 0.8031665429268987, 0.7989983847542329, 0.7947788193034265, 0.7904686963060539, 0.7861545961749502, 0.7817900654268359, 0.7773564363581493, 0.7728978735896704, 0.7683632743657266, 0.7638152487351152, 0.7592213342565068, 0.7546866277935179, 0.7499929124639142, 0.7451577892118458, 0.740407951410896, 0.7356185192411702, 0.7307854492939924, 0.7259226051340065, 0.7210707501561376, 0.7161337754625483, 0.7111503573356263, 0.7061582993838137, 0.7011383958706049, 0.6960977146609724, 0.6910253594916246, 0.6859035884359784, 0.6807886316664189, 0.6756511887239689, 0.6704640165920287, 0.6652896431859652, 0.6600984105097127, 0.6548858574822662, 0.6496569813170531, 0.6444822489768353, 0.6392165880317654, 0.6338453340011941, 0.6285770264300409, 0.6232971217987362, 0.6180763089183037, 0.6127697090447378, 0.6074030348447158, 0.6020994678984397, 0.596792137444075, 0.5915428962699142, 0.5862249900490821, 0.5808566366801847, 0.5755548198265689, 0.5702559817352177, 0.5649127353866316, 0.5596303115308597, 0.5544442546659586, 0.5491608723951933, 0.5438905172631988, 0.5385852244819986, 0.5333497084599844, 0.5281271459024331, 0.5229188670886823, 0.5177261724666496, 0.5125847994574666, 0.5074227061972071, 0.5021669867188542, 0.49706285269726497, 0.4919753775448462, 0.4869724808499634, 0.48191544750258813, 0.47690128122397435, 0.4718943698507313, 0.46691610597824507, 0.46189841787739544, 0.45698873956009506, 0.45212939096793775, 0.44727292203830127, 0.4424478397564537, 0.4376523557401577, 0.4328936215774268, 0.4281606317059667, 0.4234727031295714, 0.4188206055019169, 0.4141823559583102, 0.4096077655842776, 0.4051222744037175, 0.40061701261795163, 0.39615411999213035, 0.3917140272071276, 0.3873400223379059, 0.38302897183629436, 0.3787388210433147, 0.37449401800005816, 0.3702376095067886, 0.3660922276447902, 0.3620421231857799, 0.3579783017888393, 0.353962771672122, 0.34996720894659755, 0.3460530788008427, 0.3422212678245679, 0.33839909705010573, 0.3346278946096407, 0.33082750006465217, 0.32716917562642484, 0.3235724368870204, 0.3200076436421698, 0.31649258762265936, 0.3130364988253739, 0.30962160854520265, 0.30632753282640757, 0.3030080707952675, 0.29974507014079366, 0.2964320045407535, 0.29329461707468185, 0.29026448130904664, 0.2872201262562606, 0.2842300673988776, 0.2812857324603519, 0.27840546902918006, 0.2756250485588751, 0.27284681225304236, 0.27012513400542815, 0.26735912639473497, 0.2647622009905428, 0.26226972470409365, 0.25976615081758164, 0.2573164125662235, 0.25488017944838004, 0.25254280909841376, 0.2502479676550915, 0.24801410972411547, 0.24583111633135257, 0.24369332468659394, 0.24161296802049054, 0.23964065568258563, 0.23765419412972746, 0.2357214086712911, 0.23383881109498791, 0.23201190218094392, 0.2302711516120211, 0.22854270151956949, 0.226866739947417, 0.2252050836837077, 0.2236363146412304, 0.22209251795380294, 0.22062209157973653, 0.21919738678803075, 0.21779224525862895, 0.21646128370264567, 0.21519078067501032, 0.21394387894217276, 0.21274068513782066, 0.21159509541148383, 0.21047607637714424, 0.20942880390929405, 0.20839153430548293, 0.20739754934047078, 0.2063712500560292, 0.20547051926021878, 0.20468083212262422, 0.2038431191912693, 0.20304534439793817, 0.20224342539801898, 0.20152799224000376, 0.2008614982927752, 0.20021280879011324, 0.199598278921252, 0.19896257020499078, 0.198420942519665, 0.1979425402859803, 0.19745371641587867, 0.19699480554009222, 0.1965765395666065, 0.19617371550200033, 0.19583072266231036, 0.1954794850702845, 0.1951564668141194, 0.19477722618863821, 0.19451775485906692, 0.19435313865433243, 0.19412418986487315, 0.1939187578125733, 0.19369264970425706, 0.1935363897738462, 0.193423819017191, 0.19329927821526416, 0.1931926189178453, 0.19302247843649456, 0.19295892494833145, 0.1930179411728394, 0.19296106655482978, 0.19292041307498087, 0.19283148132181632, 0.19282737228852223, 0.19284077045741538, 0.1928526962274656, 0.19287265970883666, 0.19287691712385452, 0.19291355234474716, 0.19301205529851048, 0.19304967960943142, 0.19309372773431255, 0.1930454389508862, 0.19311139020968715, 0.19326697410396715, 0.19331653862592355, 0.1933684849292783, 0.19344470859637586, 0.19349531036736647, 0.19343731918196846, 0.19350166039965444, 0.19355817360158464, 0.19365551634651348, 0.19368963541501427, 0.19376968480668674, 0.19378501092860326, 0.19379603519334448, 0.19378727648346952, 0.193788211890721, 0.19368607772069088, 0.19368158050148523, 0.1936618381980674, 0.19369577472969507, 0.19363674469817954, 0.19360634541379063, 0.19351834590885497, 0.1933822567305793, 0.19327647339634338, 0.19315590809036368, 0.19298264978220134, 0.19283553858612318, 0.1927043499425208, 0.19251557850050843, 0.19230974480439095, 0.1920145177898326, 0.19178207332283367, 0.19158445736349683, 0.19129963645667647, 0.19099560094769882, 0.19073796538103702, 0.19038583782950602, 0.1899135366379242, 0.18954000972104446, 0.18914215618767174, 0.18872005582628198, 0.18827375813369174, 0.18784636826652068, 0.18734627903297774, 0.18682442172815122, 0.18628616558341105, 0.185718953501332, 0.18512926712842176, 0.18451677929850474, 0.18388119770681452, 0.1832107749919917, 0.18252971321321154, 0.1817811485738067, 0.18105661523267, 0.18030510768904365, 0.17956426627760738, 0.17875497247022118, 0.17797620350630436, 0.17711185623646414, 0.1762264208414964, 0.1753251834529655, 0.17439554768872664, 0.1734325068719959, 0.1724601982644384, 0.17146481040852457, 0.17037159653000183, 0.16933931890071016, 0.16827968420774214, 0.1671933442802889, 0.16608091191877217, 0.16497455862298813, 0.16380765264408495, 0.16264392626247293, 0.1614286607271033, 0.16019268379912635, 0.15888723522110648, 0.1576162431396325, 0.15635657345042864, 0.1550355043966862, 0.15369434178455346, 0.15232472675689732, 0.15094526103639663, 0.14953169595963678, 0.1481149584879742, 0.14667846746780724, 0.14523711008366127, 0.14376087251892228, 0.14224715221064535, 0.1407391032387992, 0.1392133672221145, 0.13773372140786191, 0.13616638908752723, 0.13460103043916377, 0.13300717564869288, 0.13140193375536888, 0.12970208081386553, 0.12808485994881835, 0.1264462206047795, 0.12479928952955054, 0.1231381510572491, 0.12151539472389732, 0.11982194711280705, 0.11805084148760923, 0.11634903857484383, 0.11463543684848213, 0.11301442279236486, 0.11126707871806026, 0.10944764989880641, 0.10770274845067303, 0.10595096710012517, 0.10417005320584247, 0.10240957787119191, 0.10069476965624474, 0.09891657466120134, 0.09713697486668708, 0.09536786156602425, 0.09358523470956633, 0.0918088771016163, 0.09002695621115604, 0.0882466776858269, 0.0864454589973239, 0.08467258305612728, 0.0829415391611449, 0.08116748496566772, 0.07939862858039515, 0.07767551241054363, 0.07591300513241661, 0.0741217240727113, 0.07238117545450351, 0.07064738313054134, 0.06901279016946409, 0.06728251410584021, 0.0655658046381036, 0.06386249832191318, 0.0621725320749752, 0.060547630038683894, 0.05887796699036482, 0.05719900674182205, 0.055565539140671534, 0.05394692673434272, 0.05241233194591626, 0.050815469256820615, 0.04914054160159552, 0.04759502650458682, 0.04606337998324671, 0.044698634507945964, 0.043177898858835106, 0.04159292829703411, 0.040132589095656736, 0.038691266077740746, 0.037361374178845816, 0.0359480039125312, 0.034551761196383715, 0.03319077510958635, 0.031854760822736826, 0.03060409139505379, 0.029310638819838822, 0.028051654990385703, 0.026814672991581183, 0.025606335591251427, 0.024435152555497188, 0.02328277951416435, 0.022124991285540616, 0.0210351200199037, 0.019972515661095973, 0.019112813235342987, 0.01808391604780807, 0.01707910222665478, 0.01612796222167796, 0.015212744155181536, 0.01439613628018985, 0.013543404608004446, 0.012668692811786762, 0.011899578800710305, 0.011164208482963107, 0.010522979902304674, 0.00984777666642867, 0.009178512090240147, 0.008582100151127656, 0.008021003725044764, 0.0076160058749935216, 0.007110790799947189, 0.006633868119693058, 0.006215049032675529, 0.005836764512561281, 0.005467071926316068, 0.00517289452248037, 0.004890845914235777, 0.004676037727361713, 0.004498075402655986, 0.0044980937558668724, 0.004377227880752704, 0.004336749540458865, 0.004302609870364896, 0.0043149312572517955, 0.0043011115727101, 0.004413166047527194, 0.004660412466777105, 0.0048414386122133685, 0.005068473656298954, 0.005283475342941315, 0.005608093389625362, 0.006014203319686777, 0.006416438464710882, 0.006862495996314253, 0.007340719504689072, 0.00787541450878838, 0.00851322295769014, 0.009125928812006655, 0.009784908808302814, 0.010512717776226673, 0.01126014305083065, 0.012071293307517406, 0.012909095997094637, 0.013793567883628797, 0.014669697293481394, 0.015653148575188004, 0.016656097102189307, 0.017727574352522184, 0.01884057080588813, 0.020001164711772736, 0.021197439290993342, 0.022519741203994508, 0.02379114270808682, 0.025110298730936873, 0.02648816286733177, 0.027899830984303035, 0.029355594618958265, 0.030861093192975458, 0.03234358429610218, 0.03394929606137622, 0.03559640387262975, 0.03731964778887771, 0.0390459736084038, 0.04078761216441079, 0.04260551802720009, 0.04446560894797779, 0.04643118305559262, 0.048367961774681105, 0.05038805796594244, 0.05241159780747915, 0.05448229533679572, 0.05652189972492853, 0.05869467197686737, 0.06091982150597432, 0.06317302049208419, 0.06546792654957974, 0.06786767787616547, 0.07023785201824659, 0.07262437450816936, 0.075087723515091, 0.07759339116248355, 0.0801123893057035, 0.08270553568790495, 0.08530989987899074, 0.08798654863019412, 0.09070148945397452, 0.0934491600795283, 0.09624190915544353, 0.09908739452380246, 0.10195517603480904, 0.10486228998127907, 0.10788331122963135, 0.11085933007013316, 0.11386702713576448, 0.11693007735900622, 0.12003420047193834, 0.12313863881485629, 0.12632838329156937, 0.12952381270975388, 0.1327919816345963, 0.13609538964526377, 0.13947721907895821, 0.14284591771542687, 0.1462266007919817, 0.14967386962307555, 0.15315680215906194, 0.1566723887336744, 0.16022658123302946, 0.1638129394044718, 0.16743740696520729, 0.1710964074012085, 0.1748041291159838, 0.1785298470090744, 0.18228459545479006, 0.18608025654650096, 0.18990970690581663, 0.19376691969062446, 0.19766382259147605, 0.20163641329158868, 0.2055928339930131, 0.20958377392694202, 0.21366031953837544, 0.2177119640089651, 0.2217677070934257, 0.2258938002190906, 0.2300520315731225, 0.23417294350244963, 0.23840261487965633, 0.24270214379556407, 0.2469800293554007, 0.25128727896451575, 0.2556092035202718, 0.2599760139051335, 0.2643933812817071, 0.26881224062728154, 0.27325954332358054, 0.2776803024344509, 0.28219015047464296, 0.28673851883835355, 0.2912949201474501, 0.29587633772445193, 0.3004969740640192, 0.30512610903368415, 0.3097632850775171, 0.31444480194104546, 0.319149931477467, 0.32385548046092044, 0.3286100684680901, 0.3333747763092023, 0.33817393940081464, 0.342993837891734, 0.3478458815559304, 0.35270551776578035, 0.3576263775046887, 0.36252266560660956, 0.36744161756944804, 0.3724256579994722, 0.37738254341215516, 0.3822534675189371, 0.3872695671780796, 0.39230089694359976, 0.3973790984712424, 0.40243697895768926, 0.4074917264253964, 0.4125857197234164, 0.4176947972314809, 0.42277563918481564, 0.42791958440691646, 0.43306676995738436, 0.4382355365028008, 0.4434156458894847, 0.4486558827484347, 0.45385231808204496, 0.4590682728739806, 0.46429092607247674, 0.46952646620252675, 0.4747627565599476, 0.4800235858150871, 0.48537515346048055, 0.4906459206216188, 0.4959304476923592, 0.501112660999876, 0.506435738612239, 0.5117742660263247, 0.5171037521329416, 0.5224376608767503, 0.5278101887501572, 0.5331477413162448, 0.5384074434152852, 0.5437657565102866, 0.5491235390046088, 0.5545583653156437, 0.559905286643898, 0.5652128014925036, 0.5705717077281612, 0.5759302656154179, 0.5812104977717745, 0.5865768419829833, 0.5920290161967363, 0.5973717004120311, 0.6027135952409215, 0.6079677255638302, 0.613316509228618, 0.6187060877542111, 0.6240325468397582, 0.6293534578633008, 0.634579155788199, 0.6398983221079718, 0.6451561837586238, 0.6504566094743468, 0.6557418045516088, 0.6610148873904927, 0.6662698667698467, 0.671593428589441, 0.6768083315769321, 0.6820128513403738, 0.6871428306453107, 0.6923316693425461, 0.6975841140916492, 0.7027287276678748, 0.7078601245429096, 0.7128564987715783, 0.7179732177109583, 0.7230923764392453, 0.7281589068951696, 0.7332031842468754, 0.738115587620087, 0.743127666066814, 0.7481930754946194, 0.7531349728219917, 0.7580519813452566, 0.7629376877063473, 0.7678036066809305, 0.7726020097404276, 0.777417695940039, 0.7822023867068963, 0.7870044800673579, 0.7917196656351598, 0.7963821679084366, 0.8010398695945976, 0.8056646323744437, 0.8101867528247113, 0.8147520193418839, 0.8192953519734634, 0.8237798529700141, 0.8282255708187571, 0.8326377135318253, 0.8370034875658225, 0.8413261973675565, 0.8456112553126071, 0.8498545477535099, 0.8540697221970853, 0.8582255107042693, 0.8622749626347523, 0.8663515639495477, 0.8703797226814545, 0.8743533364740231, 0.8782842043481559, 0.8821420904876712, 0.8859753887351928, 0.8897679068682239, 0.8934948521754461, 0.8971693903291702, 0.9007995758023798, 0.904366493294512, 0.9079256653708572, 0.9113786634566284, 0.9147791089806983, 0.9180397418301807, 0.9213427250432554, 0.9245851486434323, 0.927766724115381, 0.9308871115518683, 0.9339746470780134, 0.9369678340052986, 0.9398513540207047, 0.9427283151529852, 0.945540266723145, 0.9482639187029105, 0.9509477746220383, 0.9536877723544993, 0.9562210615730405, 0.9586934044187341, 0.9610718907825013, 0.9634224723466238, 0.9656865371665545, 0.9679060195783897, 0.9700563668539758, 0.9720967904569819, 0.9741122283923472, 0.9759770350845899, 0.9778558966111881, 0.979656873240616, 0.9814176675972313, 0.9830591553448488, 0.9846802466038539, 0.9861647160559353, 0.9875768824356891, 0.9889218164701502, 0.9901866673123002, 0.9913632671744179, 0.9924815411869455, 0.9935239354196996, 0.9944412058444208, 0.9953367802317513, 0.996184137968028, 0.9969161385065998, 0.9975701556471568, 0.9982033687083312, 0.9986933832559264, 0.9989843946563092, 0.9993383381768898, 0.9996085623179097, 0.9998328595359948, 0.9999322308683609, 1.0, 0.9999323434152031, 0.9997870009442721, 0.9995233741808021, 0.9992266295993327, 0.9989035017859821, 0.9984380378739438, 0.9978948616422507, 0.9972190643197623, 0.9965264091831121, 0.9957234272766512, 0.9948714698079869, 0.9939368486355283, 0.9929832567389519, 0.9918768140811752, 0.9906094104679019, 0.9893580919417138, 0.9880243458712828, 0.9865887671243391, 0.985094767555426, 0.9835364325142112, 0.9818778798866948, 0.9801402072878951, 0.9784043778334983, 0.976499918812277, 0.9745138368693399, 0.9724643257584743, 0.9703411462339571, 0.9680122744653765, 0.9657587984120333, 0.9635338298281926, 0.9611066128426221, 0.9586074512568526, 0.9559619617797688, 0.9533292714580138, 0.9505927331488512, 0.9478144419583959, 0.9449614205474413, 0.9420779381106427, 0.9390735194748516, 0.936031792380572, 0.9328862795803851, 0.929675054818778, 0.926415821367559, 0.9230724503495453, 0.9195912031000586, 0.9161313284211982, 0.9126050335002537, 0.9090393330200506, 0.905380401196721, 0.9015996102250099, 0.897826106224124, 0.8939894682094562, 0.8901284335401293, 0.8861649595883188, 0.882127278161172, 0.8780530082540675, 0.8739227531807027, 0.8697146642513885, 0.8654787193861533, 0.8611486512210088, 0.8568112557750484, 0.852420251646346, 0.8480691159997817, 0.8435639276843825, 0.8389602647790759, 0.8343748461776491, 0.8297438735685007, 0.8251173946064706, 0.8203927994778483, 0.8156577571612775, 0.8108520077570653, 0.8060103756047063, 0.8010186500622811, 0.7961218652108711, 0.7912194339578703, 0.7862398536612125, 0.7812256041859317, 0.7761809478152859, 0.7711011520108407, 0.765979486201479, 0.760841706292617, 0.7556755461033248, 0.7504996439349712, 0.7452787452207627, 0.7400403474570895, 0.7347734596691757, 0.7294861043914322, 0.7241450057969676, 0.71882465182876, 0.7134653910148754, 0.708111470513547, 0.7027405849054029, 0.6973141318348559, 0.6919191783552615, 0.6865642707338533, 0.6811351849076999, 0.6756981960864038, 0.6701884862052034, 0.664747759016417, 0.6593939074527995, 0.6539271490370293, 0.6484612550204573, 0.6429367766526365, 0.6374828701091427, 0.6320492515373809, 0.626594620674053, 0.6211441697427608, 0.6156991235557545, 0.61026069841944, 0.6048415906796918, 0.5994185708984102, 0.5940064164101146, 0.5885286718940619, 0.5831513286926127, 0.5778699417901126, 0.5725030111028833, 0.5671540704685374, 0.561786660251541, 0.5564810733044804, 0.5512141758921991, 0.545944446341712, 0.5406968635863529, 0.5354063876021782, 0.5302145009685714, 0.5250929213314547, 0.519939359226013, 0.5148130159668538, 0.5096631966785548, 0.5046008220698887, 0.4995370109319251, 0.4945342126463649, 0.48955977307507786, 0.48469559008057933, 0.47977205276956336, 0.4748137735681274, 0.46997403124054266, 0.4651685243619659, 0.4604013212096389, 0.4556674466898205, 0.45093403282810635, 0.44628146895245485, 0.4416665471221599, 0.43717088573632834, 0.43262460023012383, 0.4281008602163456, 0.4236488568600897, 0.4192417691457472, 0.4148112163015444, 0.41050431150782524, 0.4062630429609397, 0.40203961875335803, 0.3978909156167896, 0.3937565845074145, 0.3896712664442632, 0.38563249113933956, 0.3816467547448635, 0.3776909316750274, 0.37380815777688475, 0.3699750256254901, 0.3662265120283789, 0.3624898035569173, 0.3587543982097468, 0.3551303550203429, 0.351556667474152, 0.3479821817233523, 0.34451731877987407, 0.34111861391128434, 0.33775022863370985, 0.3344332496542371, 0.33123995934703143, 0.3280180897851162, 0.32484716148152115, 0.32173911012501855, 0.318686883274845, 0.3156759229366575, 0.3127365750791364, 0.3098172064768783, 0.30699103635323627, 0.3042172249300175, 0.3014815910725792, 0.29881480085525225, 0.29619708269761214, 0.29363469759922395, 0.2911243466436685, 0.28873790019777607, 0.28632269191349613, 0.2839090306345679, 0.28161230116462926, 0.27936734670194324, 0.27715677312465276, 0.27501702899660574, 0.27292750839031776, 0.2708880916937065, 0.2688986128170731, 0.26698471098515797, 0.2650911701486164, 0.26323390923238343, 0.26144293290592524, 0.25970071935352407, 0.2580987428564272, 0.2564411141743612, 0.25476998361965325, 0.253224583036765, 0.25172563026252065, 0.25026681090350505, 0.24885975953153436, 0.24753155812357613, 0.24620836439325902, 0.24493036436917237, 0.24366510108328676, 0.24247890955874887, 0.24135083194804158, 0.24024366136172806, 0.2391771922270217, 0.23815642601840972, 0.2371684033156878, 0.2361645994513497, 0.23526025546208218, 0.23439004268010577, 0.23362540513497917, 0.23281324670938972, 0.23194897900517622, 0.2312208409177306, 0.23052248449931337, 0.22994262630021545, 0.22929155521020772, 0.22857359215449766, 0.22800127757124772, 0.22745456011126924, 0.22696182631031273, 0.22646159950662928, 0.2260304590238413, 0.22557604178291618, 0.22514851847596953, 0.22473525929369778, 0.22435957750953048, 0.2239464808914944, 0.22362324373836598, 0.22331756990800625, 0.22311801482543062, 0.22283471957144618, 0.22260685858574294, 0.22235980722779286, 0.22213303734486897, 0.22181876696773842, 0.2216415295460132, 0.2214857795471958, 0.2213266392981884, 0.22117719828015367, 0.2210511856915196, 0.2209174071246619, 0.22078641922801318, 0.22066961954517952, 0.22055939483547962, 0.2204520966080483, 0.22035304899700292, 0.22033848585643612, 0.2202366340547972, 0.22014182023148393, 0.21995209902427765, 0.21987988254040342, 0.2198653383226295, 0.21977981506391367, 0.2196942002992701, 0.21958743296344643, 0.21950133783380255, 0.21940549772316684, 0.21931141742946095, 0.21921159953479655, 0.21911975199337658, 0.2190046866630296, 0.21882529428523564, 0.2187029591062826, 0.2185690090984659, 0.21845764504407336, 0.21829527515624775, 0.21816539930770465, 0.21797576306275368, 0.21777667750432822, 0.2175097299035019, 0.21729614951888113, 0.21708437404592962, 0.21683740191155376, 0.21657524086271635, 0.21625429010628539, 0.2159656493218644, 0.21568084919359215, 0.21535088855608686, 0.21500276465693263, 0.2146044991492738, 0.21422288766735229, 0.21387475696534114, 0.2134439438686246, 0.21299483031397018, 0.21254691130107095, 0.212056863522433, 0.21151920483114237, 0.2109943450864165, 0.21044771004347607, 0.20986173778957112, 0.20927276103576697, 0.20860266649505613, 0.20797346381122464, 0.20731708874001034, 0.2067315203448539, 0.20600938492698814, 0.20527787782375292, 0.20451197443828048, 0.203724728974877, 0.202852391444391, 0.202028825893771, 0.20120759780852504, 0.20032776583271558, 0.1994234171282578, 0.19849730971608145, 0.1975432468572949, 0.19657604782113813, 0.19557121805001845, 0.19454230339228362, 0.1934317544596806, 0.19236164482837861, 0.19125826229684922, 0.1901342744317995, 0.18898331337783958, 0.1878489076988345, 0.18663986912841307, 0.18541615975580855, 0.18415949290406708, 0.18288012126188025, 0.18157519397058158, 0.18025087408834722, 0.17882917914723265, 0.1774690410789248, 0.17608232075165917, 0.17481915921622077, 0.17336271809619824, 0.17174383177668262, 0.17027343109619636, 0.16877787160086988, 0.16727524047155037, 0.16572969806773785, 0.16423992902313325, 0.1626416182831103, 0.16102703471241037, 0.1593788744183122, 0.15773377596234517, 0.15604269542425198, 0.1543669556662122, 0.15267287632739648, 0.15095525930070391, 0.14922686570564275, 0.14746708973417819, 0.1457070629904497, 0.1439878364057968, 0.14218796766164074, 0.14037607284404224, 0.1385925735055519, 0.13675222514130797, 0.13483681908838727, 0.13298683796692037, 0.13112425343492717, 0.12924113698383452, 0.12735649359433232, 0.12543783603309497, 0.12353476673671177, 0.12162084600634594, 0.11978601377856175, 0.11784181586775487, 0.11588289583787645, 0.1139337840351701, 0.11198106095730972, 0.11006238114103652, 0.10809870873203843, 0.10610012888505185, 0.10414005979950146, 0.10217794226478034, 0.10026026484704037, 0.09828986546222832, 0.0963245310273271, 0.09435837213623204, 0.09239506184618179, 0.0905612781462581, 0.08858865530332491, 0.08654374527221742, 0.0846030837745836, 0.08266775865754737, 0.08077263174434264, 0.07884485727082344, 0.07695726652067081, 0.07504291747474871, 0.073139472660807, 0.07125278009522873, 0.06937080915572406, 0.06748911888466896, 0.06563240870642112, 0.0637874226223279, 0.06198048307316107, 0.06015713101449142, 0.05836570127109346, 0.05656989980906451, 0.054790499387635576, 0.053116828669987855, 0.05135990465397369, 0.049634019066247266, 0.04792055781381259, 0.04622953789911811, 0.04463837048792916, 0.04298212543004318, 0.041326714642682685, 0.03972661727364779, 0.038150925067219205, 0.03665707638048952, 0.035123009951338026, 0.03358522299489749, 0.03211066264664635, 0.030661849279231483, 0.029325180557793217, 0.027917728168461754, 0.026521618490921862, 0.025179288614714898, 0.023866768301612055, 0.022607104640308875, 0.021351580356897788, 0.020147673376801, 0.01895270154256112, 0.017790575166229717, 0.01665558064100078, 0.015560031205340594, 0.014503035044713303, 0.013472629892787196, 0.012475896564103755, 0.011596396577038303, 0.010657318013215582, 0.009728759549886595, 0.008871466689283588, 0.008051244313057883, 0.00731987436497601, 0.006567554513579057, 0.0058440988967888635, 0.005173719583806369, 0.00454269073314364, 0.003953903328997413, 0.0034013149762910032, 0.002931507156171939, 0.0024529832620973436, 0.002016832068713166, 0.0016085134514769194, 0.0012584462837216337, 0.0009582004777000732, 0.0006895508763091856, 0.00046280782595670573, 0.00032112399637418274, 0.00017298487738191476, 7.519520585117996e-05, 1.532349839437081e-05, 0.0, 3.1934838747915044e-05, 0.000104904486596991, 0.0002825421709612363, 0.00043652755078235443, 0.0006381494279007418, 0.0008237269556549763, 0.0011272072009609656, 0.001499375107476218, 0.0018854919111409507, 0.0023163430990030816, 0.002843625761634918, 0.003357422094545548, 0.003933252823850933, 0.004540198840493938, 0.0051949167156312755, 0.005859678034203907, 0.006613543770758041, 0.007435052880648208, 0.008275405551155392, 0.009161831422965803, 0.010085585645127298, 0.011064880559960029, 0.012166979178780048, 0.013226971619193098, 0.01433654967725611, 0.015394554916010755, 0.016614182750915585, 0.01793925007195572, 0.01923576729822013, 0.020578777256397965, 0.021907733481874858, 0.023350676204496955, 0.024913629757547406, 0.026431997208977903, 0.02799773261317905, 0.029619033823092104, 0.03127719509300902, 0.032930354346606974, 0.03468804612381833, 0.03648876864241789, 0.03830962084533704, 0.040199507946048235, 0.04210542912499319, 0.04408252812085044, 0.04610036759142891, 0.04823678820943131, 0.050327120807554165, 0.05246610868488711, 0.054647134467388454, 0.05687311190261339, 0.05910909452055551, 0.061427913004006386, 0.06380847945783082, 0.06620790310815626, 0.06864980152455225, 0.07107639741391265, 0.07360950587484359, 0.07623831271983653, 0.07884080842841, 0.08148500278574772, 0.08409291887859652, 0.08682903482975547, 0.08960985412113934, 0.09241727677015231, 0.0952616437372548, 0.09821190391933658, 0.1011214516319543, 0.10409757523335135, 0.10708464080922508, 0.1101125809842756, 0.11323802474763295, 0.11633806627749624, 0.11942535267967704, 0.12261479300231704, 0.1258408216248165, 0.12916037170221414, 0.13245081185246024, 0.1357365245692726, 0.13910821146887634, 0.1425140912182636, 0.14593076336927424, 0.14940667768422758, 0.15294011560565687, 0.15647591059184615, 0.16004441551136886, 0.16365955466512885, 0.16729036817781423, 0.17091321637303, 0.1746130826119841, 0.17834191964792062, 0.18207946719205045, 0.18586829660550272, 0.1895982677149833, 0.1934525371900087, 0.19732910940068055, 0.20124289666108777, 0.20516379392412054, 0.20924983811956613, 0.21320187979860392, 0.2170944708932049, 0.2211218816925822, 0.22517434314908685, 0.22928030338467445, 0.23337839040784403, 0.23750511807239133, 0.24165380474757533, 0.2458272822216515, 0.25000199491733344, 0.2542262333223783, 0.25841195396680633, 0.26268704530382214, 0.26697980214162537, 0.271370733231446, 0.27568885146895883, 0.2800320806726737, 0.2843935604138561, 0.2887759612237509, 0.2931096287792425, 0.2975404395823545, 0.3020034360151756, 0.30646187252692386, 0.3109359756820024, 0.3154081770652811, 0.3199147607253563, 0.3244464551092195, 0.328978568598878, 0.33352438981288146, 0.3381093470123601, 0.3426780373796098, 0.3471945188202444, 0.3517985866256203, 0.35641146413662145, 0.3610646285842602, 0.3656907293094877, 0.37031254704949984, 0.37496010079195446, 0.37961588255627887, 0.3842622419360011, 0.38893538405638217, 0.39362883342500027, 0.39831171781428015, 0.4030006515249593, 0.40772097140818186, 0.4124171883470408, 0.4171193367742938, 0.4218266668966588, 0.4265384470274949, 0.4312137527286595, 0.43593738606629845, 0.4406352615423573, 0.44536199317266345, 0.4500866319893466, 0.45478312890252365, 0.459506199249714, 0.4641790258914199, 0.4688991962325059, 0.47361217484300333, 0.4783238252957345, 0.4830219550336573, 0.4877793493826389, 0.4924553498876969, 0.49712781915475956, 0.5016839020244002, 0.5063609538864078, 0.5110601629540558, 0.5157083373212716, 0.520346229674125, 0.5250079339096115, 0.529619745011853, 0.5342248338924308, 0.5388163219856529, 0.5433968370063578, 0.5478880437492499, 0.5524540568399923, 0.5569995241307403, 0.561530405069287, 0.5660430836949342, 0.570514322492973, 0.5749926586237424, 0.5794993708998326, 0.5839303962620522, 0.5883431694882936, 0.5927398076846028, 0.5971134454755052, 0.6013173704859388, 0.6056683781176264, 0.6099890719322277, 0.6143574180079282, 0.6186087924745411, 0.6227862152257307, 0.6269929117030381, 0.6311705158568821, 0.6353331291865283, 0.6394498866448097, 0.6435373801484461, 0.6475950496455887, 0.6516223014536308, 0.6556443616436336, 0.6596056168315718, 0.6635101172389116, 0.6674119343907611, 0.6712796172045965, 0.6751038848782224, 0.6789023801766372, 0.6825608272146493, 0.6862984566636514, 0.6899923479379824, 0.6936771328226633, 0.6972795750163703, 0.7008547403142483, 0.7043716717139104, 0.7078468836299392, 0.7112251820270491, 0.7146219598113853, 0.7180352069429945, 0.7213303222477737, 0.7245817203225586, 0.7278316100132174, 0.7309875214128265, 0.7339645649259466, 0.7370486029114389, 0.740078878190996, 0.7430812501780502, 0.7460006767641977, 0.7488417232376929, 0.7516589254142858, 0.7544212507600305, 0.757131284313411, 0.7597825803642413, 0.7624298497923846, 0.7649627161749847, 0.7674418399725608, 0.7698203517911071, 0.7721950828640987, 0.7744591361364701, 0.7767219833069188, 0.7789220095803729, 0.7811223210741689, 0.7831884128349659, 0.785154596266199, 0.7871056162164215, 0.788993185691104, 0.7908628643068163, 0.7926165213924367, 0.794242011677061, 0.7958789912225298, 0.7974485662804912, 0.7990309442914393, 0.8004548765475049, 0.8018266791970702, 0.8031209817306543, 0.8043504898226139, 0.8055257768498125, 0.8066215637307694, 0.8075443794656124, 0.8085193688223316, 0.8094201020220294, 0.8103271477434009, 0.8110695999245573, 0.8116736815201304, 0.8122853357184476, 0.8128224623069772, 0.8133597465154692, 0.8137383812172294, 0.8139173884315578, 0.8141709361768986, 0.8143455825968787, 0.8144992587776295, 0.814510229224707, 0.8143921939264555, 0.8142610105795407, 0.8140519701489297, 0.8137911884862757, 0.8134239195913827, 0.8130929220656493, 0.8125599485216333, 0.8119573946027159, 0.8111435635292853, 0.8104168631828148, 0.8096445891074183, 0.8087539364555898, 0.8077860943812131, 0.8067957439684919, 0.8056669547143915, 0.8044557501710733, 0.8031801234447805, 0.8018296147222129, 0.8003552519100413, 0.7988607555239463, 0.7973629977568688, 0.7957035567584438, 0.793971096085733, 0.7920734570841804, 0.7902058904908853, 0.7882825683080336, 0.7862553106602892, 0.7841519312638552, 0.7819240313182763, 0.7796758583842013, 0.7773500953436505, 0.774947557132789, 0.7724690124116128, 0.7698864690314235, 0.7672616947112053, 0.7645527748247575, 0.7617789039566637, 0.7589651825005351, 0.7560391754438875, 0.7530424491677331, 0.7499151854570825, 0.7467861369554835, 0.7437022393705345, 0.7404140903072102, 0.7370618897673404, 0.7335393280849482, 0.7300724142792995, 0.7265470832641916, 0.7229399440725017, 0.7192655803248912, 0.7155018865603373, 0.7116985749541672, 0.707932709449639, 0.703985441695005, 0.6999800280256592, 0.6958534125899192, 0.691740169563738, 0.6875859730535717, 0.683348942084369, 0.6790537254377741, 0.6746952962898067, 0.6702866129080319, 0.6657785700915129, 0.6612636169259904, 0.6566916642109242, 0.6521156301232366, 0.6474267778125552, 0.6426472062971729, 0.6378631567288552, 0.6330278542368039, 0.6281481750306763, 0.6232130283273095, 0.6182303245812116, 0.6132011308111012, 0.6081265169017718, 0.6029903238898021, 0.5978302735703163, 0.592612709855339, 0.5873693960002249, 0.5820845651863603, 0.5768514456038943, 0.5714759030768274, 0.5660248228872219, 0.5605903416949356, 0.5551221186252311, 0.5496412815144711, 0.5441061248872197, 0.5384553274687793, 0.5328730325224889, 0.5272583089737287, 0.5215582748611278, 0.5158906014457237, 0.5102325484267033, 0.5045005893293736, 0.49874415497836927, 0.4929762062112502, 0.48717374965536253, 0.481311564939945, 0.47547643615140844, 0.46962208069364714, 0.4637299715109725, 0.45784438596241855, 0.4519774943031, 0.44605760925150884, 0.4401270313757745, 0.4341783600586308, 0.4282311216197717, 0.42225334466136966, 0.41629514284470476, 0.41033058383588167, 0.40438405355173096, 0.39840806694312786, 0.3924253924098786, 0.38644937219564307, 0.3804743378776445, 0.3744669920012117, 0.36850178131778166, 0.362608030099944, 0.35664058377338476, 0.35068233613849925, 0.3446536571473344, 0.3387263743301451, 0.33281485764975455, 0.32690231166471645, 0.3210003954438631, 0.31513630640555007, 0.3092563883162538, 0.30339535457319944, 0.29754813045860956, 0.29171913996399623, 0.28593810317450186, 0.28014494346444246, 0.2743545134866035, 0.2686103226629805, 0.26288937820549413, 0.2571265860345025, 0.25146337502783944