0.05974911322510851, 0.059107568353880924, 0.05849402696513004, 0.057855779129095355, 0.057221434607093676, 0.05657507436547963, 0.05594883864599645, 0.05528424476145058, 0.05466590268411996, 0.05404641768201104, 0.05354565359806474, 0.05290918939884446, 0.0522173359256837, 0.05159980275838643, 0.050983267375197976, 0.050333835207532956, 0.049723205973916704, 0.049175836798366526, 0.04855487476981033, 0.04793675458513784, 0.04731194196398943, 0.046699744973204525, 0.046165785838839214, 0.04554677134494954, 0.044933366456437494, 0.04430954726484738, 0.04370737221388272, 0.043095923391079136, 0.0425010220319248, 0.04190791539390172, 0.04131958741910311, 0.04072945589370562, 0.04021479248776998, 0.039618913727373854, 0.03902893273584542, 0.0384258545753388, 0.037848356340385365, 0.037286531512473395, 0.03671408653888686, 0.036145402871727045, 0.03555265786175743, 0.03499444810790233, 0.03450245848530183, 0.03393976905927968, 0.03338276632579303, 0.03292011104952724, 0.032362222793809854, 0.03180493136208548, 0.031266926167545055, 0.03073656099839223, 0.03014267505800815, 0.02963493423491471, 0.029154033667532553, 0.02864802878818423, 0.028146231882902134, 0.027654855221946568, 0.027160938629744474, 0.026714828427023413, 0.026225221220001364, 0.02574303342125279, 0.025295658944192306, 0.02482417669366372, 0.024440939767291964, 0.023975936747269267, 0.02352331103612315, 0.023112941624415437, 0.0226788722892823, 0.022238420848841308, 0.02183004664094397, 0.02143139160252716, 0.021066694484070513, 0.020683501252278937, 0.020381288503539433, 0.02000963307069259, 0.019651809041486314, 0.019334732501103024, 0.01899908231211527, 0.018646376301394183, 0.018341315577371727, 0.018047151194627777, 0.017825180536971998, 0.017544830058149108, 0.01727872807762661, 0.01702646067460102, 0.01678771876990531, 0.0165868428421179, 0.016371480883515685, 0.01617981974339101, 0.015992082374779764, 0.01581904348038629, 0.015725045628323536, 0.015572969223642956, 0.015432919729750975, 0.015317504102848035, 0.015219127062369045, 0.015122254250188302, 0.015059417406140592, 0.01503085179791839, 0.014997548118298997, 0.01498148035221877, 0.01494896364778568, 0.014971925733288876, 0.015096554277747828, 0.015140562139811522, 0.015206061167998974, 0.01529282958468126, 0.015400726227645998, 0.015492846437108534, 0.01564751057403112, 0.015821207874033856, 0.016051166625852903, 0.016259458956787376, 0.01654223037770232, 0.016788627276062704, 0.017060506630434322, 0.01734842132125934, 0.017671795741600268, 0.017992028500095483, 0.018367917419064125, 0.018766892620878994, 0.019321309232646446, 0.01975086771082876, 0.0200831136147299, 0.02059151580792762, 0.021123075291190636, 0.02171217347338835, 0.022287605904371302, 0.022929782046602776, 0.023554132577105973, 0.024208147359402337, 0.024891819085556294, 0.02560519097571298, 0.026388255476977672, 0.02715628572041545, 0.02795663336002734, 0.028758474528443795, 0.029627019813040015, 0.030522896683873736, 0.031452927416647694, 0.03241379194576729, 0.03342118491943879, 0.034442823599453325, 0.03553405124779316, 0.036616779505034905, 0.03773482400975102, 0.038885090051290115, 0.04007412873978338, 0.04126768132949332, 0.042531149756784875, 0.04382839358800982, 0.045190540058100075, 0.04655273944051151, 0.04800388803898151, 0.04943318070692007, 0.050902506370856145, 0.05233490416541861, 0.053893401288424805, 0.055484084450644164, 0.057114055091670404, 0.058780226685190104, 0.060547599327910706, 0.0622796091037519, 0.06405603446539716, 0.06587028293691406, 0.06772595813903273, 0.06956779067622246, 0.07151328662932493, 0.07351863734349878, 0.0755386636515299, 0.07759925221590881, 0.07976206635476492, 0.08189682374696367, 0.08409479467734178, 0.0863165667193999, 0.08858372262014491, 0.09084378031103973, 0.09320746224754071, 0.09563742624228176, 0.09808172906687739, 0.10056353317311391, 0.10309594453392602, 0.10567176581142244, 0.10837706575235029, 0.11102920226857022, 0.11365626444164681, 0.11641433345214645, 0.11921579937848549, 0.12213143616954443, 0.1250112812664087, 0.12781619475178735, 0.13080684252233588, 0.13383766041931852, 0.13700754682450844, 0.14010822355607142, 0.1431949796266674, 0.14639802589757842, 0.14964446498473183, 0.15293759257182657, 0.15627107271082907, 0.1597070157150586, 0.16312150638970618, 0.16658359029372288, 0.17011126757509018, 0.17366499175719358, 0.17721093698491952, 0.18086611801393004, 0.1845647595183618, 0.1883375995718696, 0.192119382351756, 0.1958942166365442, 0.19977278710566215, 0.20369311311047877, 0.2076584171933807, 0.2116622759466547, 0.2157820472175591, 0.21986106762465008, 0.22398641026676672, 0.22812977675280574, 0.23234928143514788, 0.23659017268672988, 0.24089779944080061, 0.24524640924446744, 0.24970336053755782, 0.2541248567928605, 0.25859053664793796, 0.2630996144951292, 0.2676513505033392, 0.27221741867779475, 0.2768558992267769, 0.28145674773879936, 0.28618275729204096, 0.29094278390233286, 0.29577080672956363, 0.3005951545422215, 0.30550185063366464, 0.3103926927736118, 0.31532180424879236, 0.3201963709018114, 0.3252115003260037, 0.33027601503071424, 0.3353508065103088, 0.3404576265837498, 0.34561771024666116, 0.35078506326108905, 0.35596632703390024, 0.36120009787699664, 0.36646400990990546, 0.37177295501745383, 0.3770938056758938, 0.3823797266619441, 0.3877671127453475, 0.39317904426679356, 0.39870435407270716, 0.40415349094687797, 0.40955158471302927, 0.4150672356542463, 0.4206049877801129, 0.42617671141166513, 0.4317558345112942, 0.4374269640561516, 0.44303931588827977, 0.44867569272434094, 0.454233518322792, 0.4599269578561161, 0.4656749340158879, 0.4713922499307535, 0.47712568408566625, 0.482883651298856, 0.488645759060161, 0.4943637489243014, 0.5001607238004109, 0.5059667950897294, 0.5117999250943924, 0.5176204326003765, 0.5234433837283882, 0.529281058982647, 0.53512539610456, 0.5409756163959664, 0.5468309117768198, 0.5526382647204395, 0.5585077796519267, 0.5643768664188429, 0.5702910873440716, 0.5761519824857928, 0.5820195264449036, 0.587879624369321, 0.5937384911828014, 0.5995950287868619, 0.6054481422163761, 0.611189304384251, 0.6170458801787307, 0.622889734664105, 0.6286746035381467, 0.6344980700374598, 0.6403820040557836, 0.6461630891653235, 0.6519318173779319, 0.6576503708483034, 0.6633960724011435, 0.6691795925107076, 0.6748826989370915, 0.6805699399948395, 0.6862615245291116, 0.6919105009081605, 0.6975318262438863, 0.7031436823492481, 0.7087338169845749, 0.7142886985371178, 0.719833206231151, 0.725256455607607, 0.7307597030790692, 0.7362293384161603, 0.7416435646377971, 0.7470476745750745, 0.7524556863511066, 0.7577823715549199, 0.763074461972339, 0.7683924966969411, 0.7736050526280437, 0.7787592728770288, 0.7839059649712832, 0.7890147255513024, 0.7940414580098797, 0.7990764379033853, 0.8040155731940658, 0.8089690985814274, 0.8138745488086382, 0.8187377029808312, 0.8235450747168321, 0.8283586811254885, 0.8330604316525454, 0.8377150235064273, 0.8422630125343006, 0.8468273186624583, 0.8513378985247416, 0.8557941699154609, 0.8601955153231222, 0.8646057484031537, 0.8688871243850609, 0.8730230921479474, 0.8772082417879723, 0.8813324981941995, 0.8853647773663846, 0.8893699170881001, 0.8934032302578534, 0.8972686370830509, 0.9010747151718104, 0.9047804478913908, 0.9084696255036754, 0.9121370143823424, 0.9156905791313767, 0.9191804873997873, 0.9225781199971955, 0.9259412779759391, 0.9292056978524976, 0.9324360197962798, 0.9355953257485352, 0.9387262325649712, 0.9417369861228172, 0.9446503953380009, 0.9475244673367383, 0.9503258315884009, 0.9531092974401253, 0.9557569383720742, 0.9582814834904889, 0.9607930346555741, 0.9632290871842064, 0.9655156568111118, 0.9678090886751983, 0.9700956314357312, 0.9722189289591963, 0.9742663342583798, 0.9762773382866529, 0.9781666988412457, 0.9798983644035992, 0.9816479129821698, 0.9833167424926285, 0.9849387516401098, 0.9864422482044808, 0.9878580394561818, 0.9892055054096742, 0.990473575117138, 0.9916652320444839, 0.9927738748597762, 0.9938399075754842, 0.9947849319150887, 0.9956278978956832, 0.9964206935664474, 0.9971340053246845, 0.9977739486034102, 0.9983274706488179, 0.998740466669189, 0.9991434838717838, 0.999463955485779, 0.9997177844495049, 0.99987285680351, 1.0, 0.99998859966804, 0.9999007113100509, 0.9996779395992966, 0.9994442829929618, 0.9991522908424879, 0.9987568206615806, 0.9982838178420282, 0.9976753140172049, 0.9970556954656126, 0.9963287505057229, 0.9955540924817952, 0.9946998776761814, 0.9938131615713178, 0.9927969891723931, 0.9917220614367239, 0.9905562328552034, 0.9893181535257553, 0.9880020722908056, 0.9866214592749191, 0.9851572191009779, 0.9836359797751574, 0.9820437606857937, 0.9803443851111906, 0.9786168463584409, 0.9769379740247018, 0.9750541874297022, 0.9731080123351084, 0.9710042667856578, 0.9689453733626173, 0.9668312539077796, 0.9646368233444924, 0.9623776106621774, 0.9600268881651657, 0.9576443023908653, 0.9552349237436579, 0.9527215571822722, 0.9501488725302464, 0.9474746917695366, 0.944791214035738, 0.9420484581472184, 0.9392476275426519, 0.9363899019188294, 0.9334764406718787, 0.9305083860207467, 0.9274561700182036, 0.9243861811095432, 0.9212632259002733, 0.9181285541058349, 0.914898620291841, 0.9115850561798282, 0.9082671178036142, 0.9049021906170941, 0.9014700439855754, 0.8980176032542011, 0.8946096923040948, 0.8910583935169284, 0.8874703139550341, 0.8838030723470405, 0.8801487055582157, 0.876407993453659, 0.8726864822063687, 0.8689272073488405, 0.8651900051328296, 0.8613523278193204, 0.8574876448837477, 0.8535903559924745, 0.8496650449633922, 0.8456543437076958, 0.8416832494663078, 0.8376408214040029, 0.8336199329060192, 0.829571216721647, 0.8255271301546462, 0.8214240867816812, 0.8173736741443903, 0.8132205483891478, 0.8090531144351781, 0.8048536270057338, 0.8006619758172283, 0.7964602257372928, 0.7922428166107053, 0.7880143667226602, 0.7837605106768826, 0.7795148868461171, 0.7751437205967576, 0.770896204414914, 0.7666355533252236, 0.7624467327288841, 0.7581554728887089, 0.7538677782711971, 0.7495716851282029, 0.7452755362593197, 0.7409957055432732, 0.7367005815216243, 0.732323388919663, 0.7280477882228232, 0.7237730501477982, 0.7194670195758218, 0.7152030287803547, 0.7110316272243, 0.7067651920566629, 0.7025105665013234, 0.6982715944982485, 0.6940425347974067, 0.6897756303894634, 0.6855826238192617, 0.681402594379321, 0.6772889403307943, 0.6731318676401548, 0.668899055229778, 0.6647935153061068, 0.6607034012102373, 0.6566884937577289, 0.6526261488804888, 0.6485160311927177, 0.6445090227292916, 0.6405223816218828, 0.6365819705694957, 0.6326367984152752, 0.6287569635518633, 0.6248585019149745, 0.6209894565331989, 0.6171441870392113, 0.6133362546760144, 0.6095527731885501, 0.605807363539275, 0.6020933287582623, 0.5983836503835301, 0.594737669731781, 0.5911263706742369, 0.5875440193902826, 0.58399499886841, 0.5804554427308862, 0.5769782262261397, 0.5735748399735616, 0.5701612228680082, 0.5667853045606851, 0.563389133124627, 0.5600970898623155, 0.5569173009446937, 0.5536874013637988, 0.5504988893471349, 0.5472290521236114, 0.5441390686272171, 0.5411237486132375, 0.5380993396710942, 0.5351140194757399, 0.5322051861281034, 0.5292950197590668, 0.5263937696840645, 0.5235733464012484, 0.5207939225571451, 0.5180098188216993, 0.5153192647723079, 0.5126435341782565, 0.5100354561920103, 0.5074665198627156, 0.5050018365287978, 0.5025048898708808, 0.5000953530182717, 0.49768171765606023, 0.49531466884392317, 0.49298758002314746, 0.49071305327167525, 0.4884741980933744, 0.48629025023847816, 0.484149990414886, 0.4819917852725063, 0.47994593968292804, 0.47792733578126056, 0.47596233377387287, 0.47403660060734787, 0.47215343157820977, 0.47030645750918726, 0.4684441515125912, 0.4666840171418747, 0.4649606775232666, 0.46337578829000425, 0.46171421140389834, 0.4600897682376014, 0.4585147897143954, 0.45698131913785, 0.4555010110195959, 0.4540471471626019, 0.4525876070206138, 0.4512196144068547, 0.4498880556377744, 0.44852512336678085, 0.44727410942548396, 0.44610700056973157, 0.4449130118646571, 0.4437385902500207, 0.4426159535099869, 0.44152650821919215, 0.4404699107804738, 0.43944578070409684, 0.4384291470236605, 0.43747178232797185, 0.43654417294052716, 0.435670572631358, 0.4347984121036444, 0.43392870958010676, 0.43311957779492594, 0.43233770275636146, 0.4315519554818198, 0.4308271377666686, 0.43018169767341496, 0.4294978559128389, 0.4288406049056566, 0.42822444941962323, 0.4276159182339973, 0.4269862901862184, 0.4264325305507016, 0.4258992682520861, 0.4253829018843025, 0.4248893990268485, 0.4244391016784747, 0.42397920949866885, 0.42353815695230856, 0.42310591242103934, 0.42270124124101693, 0.42231858247926873, 0.4219441514220735, 0.42158447442430774, 0.4211988614016532, 0.4208713850865433, 0.42054180004545855, 0.42023576214556, 0.4199382624273417, 0.41958134753927423, 0.419308153397674, 0.4191119904942895, 0.4188362147658858, 0.41856785953945574, 0.4182785353597871, 0.41802622139175727, 0.4177682716084805, 0.4175237217702369, 0.4172811092276236, 0.41701842507092285, 0.4167808092811026, 0.41659138968338705, 0.416345306050539, 0.41610017449931724, 0.4157845029472804, 0.4155475460853699, 0.4153663533897765, 0.4151101128655911, 0.4148511048625146, 0.41462223724649866, 0.41435087468136667, 0.41396255818268773, 0.4136977312861563, 0.41342107419187435, 0.41318472074687257, 0.4128775916883603, 0.4125428038216668, 0.4122188744122363, 0.41188338415176107, 0.411560405803389, 0.4111972277535447, 0.4108131802650275, 0.41042714236539035, 0.41002754334239633, 0.40960765865833293, 0.4091799692721557, 0.40878883690997964, 0.40832279935074933, 0.4078430743263059, 0.40730578514450366, 0.40680147184981663, 0.40625704313082905, 0.4057178028263642, 0.40515796025058964, 0.4045466179785856, 0.40394883273767956, 0.40342323463468127, 0.4027674895733356, 0.4020941003099723, 0.40137154890049476, 0.400664353745033, 0.399889480447224, 0.3991444516351138, 0.39837445510481656, 0.3975917987534994, 0.3967703788213708, 0.39589400397454305, 0.3950278153764929, 0.39413538004021437, 0.3932505762411783, 0.3923016877620078, 0.39136553782640304, 0.3903635661455654, 0.38933911581669584, 0.3882517868825098, 0.3871859918929618, 0.3860972193000378, 0.3849789176390036, 0.38383469661471037, 0.3826645163335815, 0.3814683459615893, 0.38022160765386215, 0.37897650828215107, 0.3777040074776704, 0.37638589521716664, 0.37506152907731305, 0.37375228674815114, 0.3723671098798209, 0.37095711693301564, 0.3695805633940462, 0.36811339131004017, 0.3665355374755169, 0.3650358333207126, 0.36350863260789384, 0.36191751315261916, 0.36034119467481074, 0.3588040240278105, 0.35716305918841856, 0.35549876872002195, 0.35388177772787455, 0.3521620152178345, 0.3503555249570763, 0.3486054526621833, 0.34683158229982236, 0.34501270121848393, 0.34319478828299327, 0.34129441302980196, 0.33943607970357176, 0.3375512960384033, 0.33569932183177276, 0.33375701278679454, 0.3318064328792807, 0.32982177039195804, 0.32781785614494324, 0.32572431558328624, 0.3236915265220192, 0.32172222278499274, 0.31963450578740066, 0.3175308298823454, 0.31534067625766915, 0.31321430056737654, 0.3110806644273057, 0.3089144385959104, 0.3067308891897451, 0.30446310343371513, 0.3022552847704667, 0.300031235316196, 0.29778555161934067, 0.2955229112014421, 0.29337012156495107, 0.29106046277612224, 0.28872212295898786, 0.2864005837901704, 0.28407031270142635, 0.28168846425750593, 0.27934659914074794, 0.2770094710692156, 0.2746450564879791, 0.2722721134868219, 0.2699126104062547, 0.2675213500861776, 0.26502909024620136, 0.26263851815488287, 0.2602374779301006, 0.2578731781604627, 0.2554488048074533, 0.2530474648759801, 0.2506110174081866, 0.24817273087688396, 0.2456838640434255, 0.24324924813623006, 0.24090330726922435, 0.23845105369589717, 0.23600218444231558, 0.23342780682047853, 0.23100216059461795, 0.2286005675296207, 0.226165524773428, 0.2237308628394389, 0.22135576846695365, 0.2189170489231571, 0.21638623588738584, 0.21397248863335924, 0.21155996333190918, 0.20926950239761144, 0.20684759602145422, 0.20442451878291862, 0.20202634007679293, 0.19963856355358303, 0.1971846286394191, 0.19482793397614914, 0.19256086059274036, 0.19020807100213907, 0.18778247449059432, 0.18546697089477057, 0.18316009843915107, 0.1809118737653587, 0.17861870996918894, 0.1762873029134415, 0.17402897471153436, 0.1717823815214063, 0.16953296541442034, 0.16731410436744168, 0.16510527623723925, 0.16291378782546348, 0.1607367355818849, 0.1587068138555336, 0.15654400601322893, 0.15426688152376322, 0.1521686788123643, 0.15008565683190564, 0.14811070527668357, 0.14604874756662758, 0.14392955833622945, 0.14192273947778272, 0.1399338496690792, 0.13800341157556492, 0.13604714407983856, 0.1341680208423781, 0.1322487243848098, 0.1303547718616416, 0.12845520502029248, 0.12661509145907515, 0.12472123814692557, 0.12293696384859251, 0.12117166545042052, 0.11944145962041224, 0.11771440667389207, 0.11610137394704707, 0.11440698983671883, 0.11274055864946739, 0.11108329108274946, 0.10947403602418579, 0.10784163654363767, 0.1062904574127603, 0.10476236870009056, 0.10327614937376693, 0.10179296292336829, 0.10033488371554847, 0.09890202789236761, 0.0974945012682519, 0.09610319044534023, 0.09474776189942588, 0.0933437297669144, 0.09204788488355321, 0.09077322439041896, 0.08955727155059605, 0.08832229519579463, 0.08718910575467351, 0.08599466048838347, 0.08482981376289415, 0.08359579721269247, 0.08250098917610958, 0.08149631058492907, 0.0804385379896806, 0.07940784223480857, 0.07837630729509411, 0.07740240201891432, 0.0764071479976551, 0.07548842029144681, 0.07459171579477557, 0.07378486268549976, 0.07292449534796075, 0.07202311817750762, 0.07122391108478142, 0.07044661411133046, 0.0697251508850056, 0.06898782695773256, 0.06829611604271128, 0.06760406927090698, 0.06693683202821984, 0.06621722189923421, 0.06560799278797697, 0.06508244298789535, 0.06450371490436485, 0.06394818638026507, 0.06340008026749501, 0.0628916134030897, 0.06244412975116629, 0.06197249528866914, 0.061523611257694275, 0.06106309550797734, 0.06066216338647714, 0.06027726020703364, 0.05991465471262605, 0.05957044759220342, 0.05922289688428612, 0.058917425696576604, 0.05861913595601128, 0.05834749125000557, 0.0580914516011909, 0.05783249425849457, 0.057609641607708845, 0.057480749246834675, 0.05727605358695656, 0.057089833880920565, 0.05682922146843219, 0.056689295720634525, 0.05664640672974334, 0.05651786737965238, 0.05640533274811788, 0.05618836085648344, 0.05612082289968567, 0.05613723132641714, 0.056074738174061466, 0.05602433363432879, 0.05598555913781228, 0.05595795779780957, 0.05593493541327163, 0.05592909341961686, 0.05593272091797196, 0.0559331401366298, 0.05595605676675834, 0.055992683608752, 0.05602965574256319, 0.0560739084670853, 0.056125055363535625, 0.05618270526749459, 0.05624953272644684, 0.05631861240544887, 0.05639317388223322, 0.05649734715110805, 0.056578489736699454, 0.05664987149278617, 0.0567435122045259, 0.056840673079274824, 0.05691942669388431, 0.05702503137849377, 0.0571193741851251, 0.057228319018040215, 0.05733708632631881, 0.057439363101858994, 0.05754800661709924, 0.05768930446798843, 0.057791270371450154, 0.05789362571033537, 0.058075681246089396, 0.05816724781764619, 0.058176292505160716, 0.05828448933739088, 0.05838920493749827, 0.05852398681095403, 0.05861680987701561, 0.05863677182026526, 0.05873349121609229, 0.058822999896014604, 0.05895759566834318, 0.059026384528278464, 0.05903278236965756, 0.05910037993324459, 0.05915980066685204, 0.05931242053716499, 0.05934287960490469, 0.05937403996023199, 0.05939853308760794, 0.05941922157606795, 0.05937705906407313, 0.059395403849099, 0.05943538215919052, 0.05943164387207466, 0.05942040226288236, 0.059284672894869536, 0.05927217496888135, 0.05931527588045867, 0.05926451199766641, 0.0592039381773769, 0.05915188297503864, 0.05906908620306419, 0.0589864335792398, 0.05888408798459432, 0.05877269909334599, 0.05861206275920541, 0.058486756772118155, 0.05832784972360801, 0.05818111836264093, 0.058021218083578574, 0.05790055139883034, 0.05770833783617931, 0.057512576399256346, 0.057299915648830184, 0.05707734623253507, 0.05685071474581484, 0.056606704780587325, 0.05631550803178554, 0.05605519556158448, 0.05578198279788451, 0.05557270885732453, 0.055264282210629186, 0.05487079412097205, 0.0545548843576721, 0.05422533349278572, 0.05392225714957097, 0.053560994902749515, 0.053262585108811863, 0.052870219474856685, 0.052470892137903805, 0.05198717398517862, 0.05158165522277483, 0.05123061590721191, 0.05079065271302642, 0.05038479242691612, 0.04992130244826147, 0.049450717109429554, 0.04893870050573694, 0.048456578937622084, 0.04794254996174353, 0.04744226881936726, 0.04693032765327019, 0.04646218688964542, 0.04592057263784842, 0.045355700569211975, 0.044799993902121506, 0.0442351506415733, 0.043655057462653094, 0.04307282847251705, 0.04251505887639789, 0.041910114943757015, 0.04129811022744031, 0.04069739078462503, 0.04006876946147553, 0.03946167149309774, 0.03881726138655597, 0.038168171423213625, 0.037572511704396794, 0.03690612271884664, 0.03620106013010816, 0.035535160149069295, 0.034864480963288515, 0.03417675528514225, 0.03349815350589281, 0.03287565336663089, 0.03217895405691611, 0.03148092178585424, 0.03089492455398948, 0.03017932634536812, 0.029403917476159402, 0.02870486353788858, 0.028005197815380304, 0.02734782662850254, 0.026641372412688994, 0.02589681762511599, 0.025198794779899458, 0.024499984597211772, 0.023809868264152094, 0.0231091688859259, 0.02244901352274626, 0.021744830285970317, 0.02104412034157941, 0.020399082740415193, 0.019698831779715365, 0.018956095364791932, 0.01827506970540349, 0.017597529252760903, 0.0169698493558832, 0.016294477756262825, 0.015672285231015107, 0.015005388633532346, 0.014348323948648644, 0.013762253264728111, 0.01311649559914295, 0.012529641356238849, 0.011903310256156048, 0.01129160735702915, 0.01070621019802829, 0.01012055603658964, 0.009502798499897663, 0.008950541800726674, 0.008409147511065286, 0.007955638400234466, 0.007427161069649052, 0.006822743349462932, 0.006337984681486353, 0.005863871553111548, 0.005447164149554937, 0.00499065870329316, 0.0046078192666768715, 0.0041749377667966775, 0.0037613257128638576, 0.0034159977845764156, 0.0030345011337942233, 0.0026841794346203203, 0.0023451756874018877, 0.002028209540478235, 0.00173926909530364, 0.0014652403704751272, 0.0012072655311078488, 0.0009784422844062184, 0.0007716223107856855, 0.0005225651091168418, 0.00036860923548783224, 0.00035047483872395116, 0.00022098310944457377, 0.00011889358814985652, 7.782144627534169e-05, 2.5900802758153956e-05, 0.0, 6.448993354982674e-06, 4.15118365542345e-05, 0.00016964917466501698, 0.00025385653141413514, 0.00028147310928023674, 0.00044145125745237126, 0.0006282934707300202, 0.0008579309536781531, 0.0010983072353465055, 0.0013527987353042163, 0.0016544860757397584, 0.0019856709724136393, 0.002389906982725689, 0.002776379197817111, 0.0031657646708811438, 0.0036235304021870287, 0.004113600214296171, 0.004691721261992212, 0.005240888056467385, 0.005817706141846549, 0.006441777891286451, 0.00710227844016148, 0.007866916426195136, 0.008592295051293074, 0.009337010463949162, 0.010146452885021987, 0.010994994367225713, 0.011855036139183008, 0.012785393921201376, 0.013738157875781594, 0.014746325950561523, 0.01579210972553758, 0.016928174878335932, 0.018044022529427682, 0.019220225884581593, 0.020417630964437477, 0.021658061959809422, 0.0229107497291696, 0.02424093766552394, 0.02563382257058023, 0.02704400300296383, 0.028497176036593644, 0.029981174766602482, 0.03152223655334771, 0.0332042103185782, 0.034818476248848554, 0.03648144219267673, 0.038164937667200936, 0.039927256543167006, 0.04167089902303437, 0.04353286307435367, 0.04543688143544206, 0.047447926042484836, 0.04942939734085717, 0.05144568292423633, 0.05352277641663133, 0.055646074418392616, 0.05783710629265937, 0.060050234397674276, 0.06221884236344457, 0.06453864189222167, 0.06690065284153872, 0.06934238917745587, 0.07178612784069759, 0.07426675420289547, 0.07680402444729427, 0.07938720048239005, 0.08201034717664553, 0.0846866929437122, 0.08743981914635311, 0.09020462133329595, 0.09301753585763213, 0.0958385189424569, 0.09875228859065471, 0.1017237989349409, 0.10472712727779512, 0.1077769392557756, 0.11087631394082749, 0.1140187108260445, 0.11726297758679885, 0.1204915441751826, 0.12376965450677663, 0.1270783366415118, 0.13045624019641142, 0.13386882892041405, 0.1373419128826051, 0.1408606820593996, 0.1444495083521476, 0.1480559818188101, 0.15172122095134638, 0.1554187119838306, 0.15916258623323457, 0.16294009172714907, 0.16677688707168378, 0.17067336968007726, 0.1745965879197981, 0.1785643777064954, 0.1825394668789688, 0.1865997591090339, 0.19072890880479543, 0.19486806303709298, 0.19904975350175538, 0.20325824362817518, 0.20752578120492057, 0.21180927012874387, 0.21616065956772262, 0.22061508321913934, 0.2250353600614684, 0.22949756843908664, 0.2339334696166564, 0.23848598270346064, 0.2430224088294593, 0.24765361681815684, 0.2523177519550043, 0.2570795019755869, 0.26180192528914925, 0.2666411033550834, 0.27142677329368387, 0.2762527516671983, 0.2810257395446441, 0.28594041458943126, 0.2909052193964094, 0.2958807111003013, 0.3008883485986765, 0.30594911160899035, 0.31101678476374556, 0.3161561413268531, 0.32128159789079236, 0.3264396215780665, 0.3315125306841124, 0.3367473665558403, 0.3420758349198187, 0.34734782368705747, 0.35264674973594495, 0.3579319895609908, 0.3632876761428422, 0.3686290607613208, 0.37403406316322035, 0.3794586725505196, 0.3849702238494777, 0.39042484784501785, 0.39588057980222563, 0.4013821699709036, 0.40690327992746533, 0.4124585119084754, 0.41801447168322947, 0.42351486972955227, 0.4291154564846547, 0.4347282142557688, 0.4403866058003059, 0.446018458634406, 0.45166633561858044, 0.4573229443132913, 0.46299113106038464, 0.46866700132142486, 0.47435624537085036, 0.48003903750406185, 0.4857471809390303, 0.49146168083322833, 0.49720022211782255, 0.5029228837256122, 0.5085831345757805, 0.5143236256510269, 0.5200635490407645, 0.52575031549589, 0.5314944141767187, 0.5372243916044794, 0.5429596580876915, 0.5486890504210341, 0.5544736691678464, 0.5601825869095213, 0.5658449646140408, 0.5715511532612715, 0.5772492988341107, 0.5829356397489397, 0.588615966803143, 0.5943534051183631, 0.6000035699043088, 0.6056455022580594, 0.6112379085126415, 0.6168642964583624, 0.6224669608945733, 0.6280645338330119, 0.6336451697359871, 0.639118964525446, 0.6446743093729989, 0.6502050251666127, 0.655710907478493, 0.661191655224621, 0.6666622286515985, 0.6720895265929213, 0.6775525568655131, 0.6829200568859028, 0.6882638703124888, 0.693573506694706, 0.6988672990645028, 0.7040778875798422, 0.7093216485944915, 0.7145321470846109, 0.719693401151015, 0.7248373750493294, 0.7299267962136428, 0.7350002171998364, 0.7400352069250683, 0.7450711313659721, 0.7500225489209414, 0.7549237408520506, 0.7597998286302526, 0.7646353127793398, 0.7693924860355856, 0.7741488001052512, 0.7788567492483893, 0.7835222802992344, 0.7881411478095012, 0.792752635318031, 0.7972712389168839, 0.8016943610108621, 0.8061254229031587, 0.8105053535634249, 0.8147844651308962, 0.8190665917891057, 0.8233482816296848, 0.8275117946464434, 0.8316221562076368, 0.8356140908268888, 0.8396238622999936, 0.8436665274211272, 0.8475459936856202, 0.851370830504473, 0.8551399214189472, 0.858852201377273, 0.8625097234785314, 0.8661049899208246, 0.869640703580751, 0.8731190234580436, 0.8765325538209127, 0.8798656784824007, 0.8831567452529788, 0.8863831973530932, 0.889547511886877, 0.8926425853667858, 0.8956162352889108, 0.8985853835091866, 0.9014841409838994, 0.9043001421476213, 0.9070593718535064, 0.9098545896223857, 0.9124572576624146, 0.9149943063088893, 0.9173388722149844, 0.9197576446752112, 0.9221930309350599, 0.9244494438092404, 0.9266359529353364, 0.9287058935320173, 0.9307565999712022, 0.9326563529034202, 0.9345682144207343, 0.9364013092326392, 0.938263558293967, 0.9399269148116576, 0.9414757914368508, 0.9430009844580296, 0.9444511442157012, 0.945872181504483, 0.9471660611433346, 0.9483502793609909, 0.9495026845411395, 0.9505792952242093, 0.9516352913070907, 0.9525531235360649, 0.9533244172502445, 0.954105353684693, 0.954808411718336, 0.9553939425199899, 0.9559470437980939, 0.9563716468334039, 0.9567727354971207, 0.9570927339964387, 0.9574491464905678, 0.9575947165250219, 0.9576281864347574, 0.9576341200480314, 0.9575651005751507, 0.9573967242121156, 0.9571813780482008, 0.9569024866993032, 0.9565343419996499, 0.9560918582410389, 0.9555722580869432, 0.9549823722939182, 0.9543618609377265, 0.9536196966408356, 0.9528070645054825, 0.9518656754674321, 0.9509196364941724, 0.9499246769076227, 0.9488292388967728, 0.9476630109461291, 0.94637732278553, 0.9450770719694901, 0.9437292157260408, 0.9422824290785589, 0.9407666142066597, 0.9392499412499205, 0.9375894532742396, 0.9357674303441698, 0.9339928553788294, 0.932149754827815, 0.9302207543835387, 0.9282460262667155, 0.9261894217717617, 0.9240846786264367, 0.9219761002019338, 0.919734292061537, 0.9174329594983797, 0.9150112852125485, 0.9126004165488568, 0.9101345226321865, 0.9076016972660341, 0.905010312311834, 0.9024043731618473, 0.8996935090533135, 0.8969295333427136, 0.8941130810377584, 0.8912448193208226, 0.8883131676578704, 0.8853449618921234, 0.8822865320159005, 0.8792236113074772, 0.8761099015347465, 0.8730172270429226, 0.8697966574187058, 0.8665175064465748, 0.8632129952652425, 0.8598656119480328, 0.8565037927929051, 0.8530696324289783, 0.8495168590588521, 0.8460158523870924, 0.842472955566726, 0.838941761301219, 0.835312678985405, 0.8316303399752067, 0.8279347983578363, 0.8242051905624547, 0.820396560518489, 0.8166079075419067, 0.8128165712654581, 0.8089587450033819, 0.805072150795031, 0.8011855515823806, 0.7972413343956988, 0.7932364624417361, 0.7892501659190314, 0.7852398130072308, 0.7812066495421265, 0.7771519045674435, 0.7730860005880411, 0.7689905557205855, 0.7648776470603719, 0.7607606545837534, 0.7566145695635982, 0.7524120365846663, 0.7482454357316072, 0.744064956482474, 0.7398105703975465, 0.7356141502111125, 0.731465783342613, 0.7272366832089746, 0.7230011189181098, 0.7186496817816282, 0.7144184369465537, 0.7103312574409141, 0.7060637308678732, 0.7017991858705467, 0.6974276067368241, 0.6931845185303976, 0.6890196448800899, 0.6847648024736805, 0.6805158248873401, 0.6761967216315822, 0.6719714437825749, 0.6677254734973403, 0.6635124486677902, 0.659304686026196, 0.6550975419297658, 0.6509054884669218, 0.6467533079223842, 0.6425770586020206, 0.6384143056020376, 0.6342660081838175, 0.630133101851625, 0.6259704563723101, 0.6218768733183164, 0.6177987766142619, 0.6137527391010709, 0.6097072861969437, 0.6058167330530383, 0.6017948085776484, 0.5978021265800066, 0.5937433105705437, 0.5898205927160708, 0.5859521229552141, 0.5820734615542998, 0.5782217217714747, 0.5743299211193588, 0.5705422193966772, 0.5667823964152734, 0.5630450434150424, 0.5593348456215429, 0.5556558443402443, 0.5520024322309572, 0.5483361365727987, 0.5447491401081481, 0.5411913847927351, 0.5376700788773311, 0.5341731585116308, 0.5307333585139158, 0.5272992630097205, 0.52390065827734, 0.5205932945753344, 0.517260156112211, 0.5139179216639104, 0.5106710148494528, 0.5074613784419583, 0.5042587632043904, 0.5011288645306298, 0.4980265738862962, 0.49497209697634037, 0.4919551152616565, 0.4889885032494594, 0.4860466929979497, 0.48311399830517654, 0.48025603485849305, 0.4774368136409801, 0.47464765223523736, 0.4719085986941836, 0.46917233877761233, 0.466517632265009, 0.46390129491851306, 0.46138533634848056, 0.4588397436076306, 0.45629459520170595, 0.45384116054753637, 0.4514285029746915, 0.4490691232404816, 0.4467370858049508, 0.4444715953692443, 0.44222042169076176, 0.4400125658177516, 0.4378569757683145, 0.43573381028069963, 0.43358309951899393, 0.4315546357694713, 0.4295646023265698, 0.4276562179928794, 0.42573827894496985, 0.423821816167928, 0.4219913978350901, 0.42019953870674287, 0.41845546262961925, 0.4167395532931259, 0.41511480303739723, 0.4134700519988531, 0.41186678324879195, 0.41028283658532455, 0.40876325590449075, 0.40730349456120757, 0.40585743030825533, 0.40445003699555093, 0.4030837707743148, 0.401751507022862, 0.40036420442643167, 0.39911708284911784, 0.39790065731843444, 0.3967273691081741, 0.39557118742839115, 0.3944067281116179, 0.39331867599736653, 0.3922596190161045, 0.39127871969467715, 0.39027150682581596, 0.38929594789393607, 0.38835146673827015, 0.38743747301868225, 0.38649197177168365, 0.38564489251052364, 0.3848291483252808, 0.38403154064888617, 0.3832591144132873, 0.3825146106528105, 0.3817911216394107, 0.3810672933548851, 0.38039484952478336, 0.37974422116504375, 0.3791549494381692, 0.37854176426065955, 0.3779421836640977, 0.3773749641433234, 0.37682839301779375, 0.3763047938408968, 0.37579688721151927, 0.3753413113508071, 0.3748654808815111, 0.37440854002190055, 0.3739540850558707, 0.37353373140162427, 0.373094575126922, 0.37270757991184533, 0.3723319916142963, 0.37196726769551947, 0.3716128419660103, 0.37128347513839016, 0.3709459252695835, 0.3706637640114916, 0.37033832352856755, 0.37002329767136627, 0.36964082525010783, 0.3693530156776015, 0.36904353682490726, 0.36876423821541904, 0.36848567285529166, 0.36824443105772064, 0.3679618859955873, 0.3676843178736809, 0.36740451103557015, 0.3671254053650776, 0.36686163349265266, 0.3665798475262611, 0.36629442040383964, 0.3660110537500201, 0.3657253128445089, 0.3653842546200315, 0.3650980979160474, 0.3647921257553246, 0.3644921516537217, 0.3641833222853625, 0.3639236915345965, 0.36358893243901413, 0.3632077647958613, 0.3628641983049793, 0.3625102303576925, 0.36213311994204256, 0.36175850180853847, 0.36138979023182927, 0.360987430222464, 0.360572793186789, 0.3601146132250437, 0.3596776001312469, 0.3592248997104399, 0.3587562128747901, 0.3582712194472257, 0.357858599620814, 0.3573287116384502, 0.35664219201307323, 0.35610473597388, 0.3555447324979361, 0.35504529288277775, 0.3544303407366103, 0.35379491038603994, 0.35314490166832263, 0.35247609072819425, 0.3518002188308646, 0.35109066780301285, 0.35034919702197626, 0.34960136083951404, 0.34883212232594973, 0.34803188991542555, 0.34721988404581083, 0.34640943116048234, 0.3455480675358167, 0.34466459819657097, 0.3437002806737274, 0.3427787485544294, 0.3418767262134973, 0.3408964557863197, 0.33989251016355054, 0.3388676891306231, 0.3378152220311519, 0.33669554665800583, 0.3355998260783952, 0.33447704869483424, 0.3333703669239492, 0.3321885588941471, 0.33097951877941456, 0.329749560456891, 0.32849487377819747, 0.3271447343283544, 0.32584917137166713, 0.3245614584405241, 0.3232037875871549, 0.32182019014444146, 0.32042000933329545, 0.3189837987135837, 0.3175379336380004, 0.31604984500523187, 0.3145377637240058, 0.3129648266980032, 0.3114093621717517, 0.30984011800053485, 0.3082313367058613, 0.30659787816130185, 0.30494304421623625, 0.30326054521565043, 0.30159415939863676, 0.2998592585532731, 0.2981032690077013, 0.2962770047384497, 0.29448487993405964, 0.2926596317039729, 0.2908213051689713, 0.2889594650842831, 0.28705621562411715, 0.28515122733372283, 0.28329688512712925, 0.28133716781567863, 0.27935980119469433, 0.27733101220449835, 0.27532264711573945, 0.27327645529987904, 0.27123201392855895, 0.2691679654826556, 0.2671155844863997, 0.2650101672683702, 0.26286094791775916, 0.26072697906779646, 0.25857592367206095, 0.25642984683551734, 0.25424363017902374, 0.2520033467852944, 0.24979424259798505, 0.24756953847044214, 0.2453115652406133, 0.24306021098260466, 0.24078826024756075, 0.23850960034042185, 0.23621776933078914, 0.2339350706077857, 0.2316165961783882, 0.22935297001332794, 0.2270076742275235, 0.22465749112540417, 0.22222878549683503, 0.21987831034273064, 0.21752217350688333, 0.21515464998291356, 0.21278014652062474, 0.2103349311291473, 0.2079567874963743, 0.20566533871361264, 0.20325943897211426, 0.2008527391919346, 0.19843017982341538, 0.19602471811065572, 0.19362469411732983, 0.19121755439331808, 0.18881106910502987, 0.18642719454991288, 0.18402072287074425, 0.18159300235157444, 0.1791965844485228, 0.17680279391925452, 0.17448895975248568, 0.17209249059428683, 0.16957580318020982, 0.16721301489372664, 0.16485171533997847, 0.16253909922577825, 0.16017834017748375, 0.15783411604782183, 0.15548743752911842, 0.153149780527491, 0.15075105032020228, 0.14844188184735815, 0.14617306099271352, 0.14387386548158618, 0.14158523180866758, 0.13934159652842865, 0.13707180598813185, 0.13482869107725184, 0.13258647313277577, 0.13036001624172014, 0.12808511679948953, 0.125899126904345, 0.12371076849106631, 0.1215535111764078, 0.11940998806183988, 0.11732710255760427, 0.11520774753696526, 0.11311019049884123, 0.11102823406358246, 0.10896583938186345, 0.10696321809546601, 0.10493582608131874, 0.10288512141148053, 0.10090900558583626, 0.09895306179897831, 0.09703000605974116, 0.09511415190212749, 0.09320200952860817, 0.09133303726115398, 0.08948574831973471, 0.0876114676309187, 0.08581504728082713, 0.0840388026799212, 0.08228350281270783, 0.08054984805457167, 0.07885689316924042, 0.07716605397007441, 0.07554874959752608, 0.07390087338280761, 0.07228080774449047, 0.07065160169077499, 0.0690914922947169, 0.06753229615460127, 0.06602647957317985, 0.06463117934969205, 0.06316403918375656, 0.06172706251578574, 0.06023393608290009, 0.05886710733506851, 0.05754308281183661, 0.056223155856180304, 0.054929510835830725, 0.053656216852662975, 0.05241651024722074, 0.05126161005563407, 0.05006768145439417, 0.048903848667225976, 0.047763632747734076, 0.0466597821037746, 0.04556634277298282, 0.044522276686418144, 0.043505618469409146, 0.04251941339225537, 0.041557102424665524, 0.040567023389221746, 0.03966659395998968, 0.03879039606593428, 0.03799711034771733, 0.037163015619229314, 0.036348111997248994, 0.03557169978468029, 0.03482261757173228, 0.03408532804800851, 0.03339227530842315, 0.032758879385058524, 0.032113264463163343, 0.03149526453291662, 0.030867659297920822, 0.03030840654632272, 0.029730617034990185, 0.02922562395291018, 0.028742531956006092, 0.028272375853729787, 0.02783491381785577, 0.02745620589521745, 0.027058057958948153, 0.02668410213344452, 0.026386243060526993, 0.02605322631222931, 0.025746458299575604, 0.025465206042165903, 0.025208778736684746, 0.024881366473562025, 0.02468469473714534, 0.024533271393771518, 0.024368552587676937, 0.024223337808507224, 0.02410053936879417, 0.02399344111109435, 0.02388089859363656, 0.023814861035555173, 0.023765998957896318, 0.023792522792759046, 0.02377026150581525, 0.023740367346559158, 0.0237608922974652, 0.023798501068647344, 0.02380366176510695, 0.023880386764257813, 0.023964029222089213, 0.02406760567403846, 0.024183765339047265, 0.024333905997802482, 0.024472198546470494, 0.024700609861379313, 0.02485556451083181, 0.025027404090917218, 0.025101518657531942, 0.025318447398651103, 0.02564426894692347, 0.02586364250164303, 0.026096352026989348, 0.02630468709689173, 0.026566149262019615, 0.026808772765814375, 0.027090860073543055, 0.027379299377690167, 0.02772605408863652, 0.028019914930550498, 0.028306973708907873, 0.02861915672497838, 0.028937637603911572, 0.02924040654933385, 0.029572644093487938, 0.0299176505611345, 0.030255528872069684, 0.030596842128820856, 0.031005640733402735, 0.031344442348187014, 0.03156628406996199, 0.0319313302818373, 0.03229352231376972, 0.03272978537145544, 0.033077055507718986, 0.03338930281295846, 0.03374423873258372, 0.034097715509496085, 0.034489370733424805, 0.034834070019953166, 0.03512959825523883, 0.03547976990458282, 0.035825915721704266, 0.03618321760875152, 0.0365188514041221, 0.036909081933978176, 0.037229544765506904, 0.03754886399514658, 0.03777721023287791, 0.038103122939652234, 0.03847282073192651, 0.03877541107346526, 0.03907263191175878, 0.039311872290345086, 0.03960368618048188, 0.039935085828491694, 0.040201679532671154, 0.040461554884916845, 0.04075419822965089, 0.04099435838011907, 0.041121412802755, 0.04136313675586428, 0.041591860423592135, 0.04189075702418926, 0.042083826502155974, 0.04222935674093261, 0.04241167313930637, 0.042583098927545124, 0.042804897599879294, 0.04294639214670614, 0.04311074320004536, 0.0432320495403072, 0.04334604348463397, 0.04344889804209758, 0.04354646565686014, 0.043591542860783185, 0.04367500513237846, 0.043745586414258, 0.04384621365355068, 0.043885464718677845, 0.0439847252450062, 0.04399349553884123, 0.04399494126727871, 0.04404653907536932, 0.04402353791145712, 0.04393288401289281, 0.0439041145598446, 0.043863763969181915, 0.04386683938937119, 0.043795659203023474, 0.043675515887884785, 0.04359072121284014, 0.0434936374044611, 0.04350393521246204, 0.04336704570223297, 0.04310792020308744, 0.042973688441303115, 0.04282565116695274, 0.04270095033077984, 0.04252156685922932, 0.042417316736280734, 0.04220544911889559, 0.041987651564816535, 0.04168350564500354, 0.041462225109481554, 0.04131191774277815, 0.0410566897163356, 0.04079489553125542, 0.04047403462538409, 0.04020483695204266, 0.03999910536504539, 0.03970051526011881, 0.039396523942351054, 0.039178972598055035, 0.038851877540734846, 0.038490278210189334, 0.03816520513869093, 0.0378361092673907, 0.03746901167420647, 0.03713558564272303, 0.03680813109296274, 0.03646083066797819, 0.03610852366998374, 0.03582205538841801, 0.03545157732885508, 0.035087025465528825, 0.034715111588325666, 0.03434295495770042, 0.03397044888610758, 0.033597567229319565, 0.033273469014519275, 0.03289382813830078, 0.03251689104735685, 0.03211485468180923, 0.03174638122795018, 0.031437123643375406, 0.03106336138602183, 0.030694399890015062, 0.030293305864365943, 0.029938395791633078, 0.02971816972847289, 0.0293523893564642, 0.02892700168614052, 0.02859155382279657, 0.028262127143588053, 0.027975828819989442, 0.02765465387864968, 0.027339458019979165, 0.027036876397168227, 0.026743456763100346, 0.026465602353637548, 0.026190574032906005, 0.025929061602481852, 0.025674887968623477, 0.025432073369192166, 0.02524706198550453, 0.025022378862136017, 0.02489581482673391, 0.02469125206406025, 0.024506885187736065, 0.024283971952851643, 0.024146245429345785, 0.024095172982187454, 0.023981040716039983, 0.023887788571045728, 0.02381226324145201, 0.023761006614892687, 0.023736629747058324, 0.023726281741606275, 0.02373749092496807, 0.02374904600370742, 0.023806968893794845, 0.02392613365940124, 0.02402227956666429, 0.024143204009077945, 0.024350597029050843, 0.024514260349170855, 0.024704112418805484, 0.024926612337895768, 0.025178154327801065, 0.025452729732775008, 0.02576359240335338, 0.025996306667436797, 0.026379687230215828, 0.026787084874203514, 0.027284256005254033, 0.02773534386151544, 0.028208510502679616, 0.028723892801441497, 0.029271156706921715, 0.029866279066648366, 0.03047724116286301, 0.031135076973509573, 0.031814148159037006, 0.03252944854577097, 0.03338265139758059, 0.03415874753116493, 0.03495950912155036, 0.03582369540531931, 0.03672923010277356, 0.0375440688214074, 0.03854889751250854, 0.03974117930135712, 0.04079573596752088, 0.04189516328286462, 0.04297785437865805, 0.044174218391628925, 0.04538089451516025, 0.046663644339476826, 0.04798664991314175, 0.049405883484889626, 0.05080453447623139, 0.0521933321193965, 0.05368992970561783, 0.055229171943056134, 0.05681784356706016, 0.05844349489590825, 0.060144648128966555, 0.06185651189112955, 0.06361583920496605, 0.06540132341881212, 0.06725884114055106, 0.06920614620049802, 0.07115222121385256, 0.07314822897814065