0.05637027800189424, 0.055588289309533905, 0.05476086100122263, 0.05404169176942611, 0.053339429763595375, 0.05267360821654446, 0.05199512856998825, 0.051334227481481046, 0.05067634144865592, 0.05002709072296988, 0.04935508982393687, 0.048723238240248476, 0.0480790346972274, 0.04745614020600262, 0.04683524599918587, 0.046216257132443206, 0.0455991581780126, 0.044985004752834915, 0.044371775101759776, 0.04376081482013686, 0.04315131338903218, 0.04254563016776098, 0.041939825444280564, 0.04134058184154478, 0.04074464272227636, 0.040163376714032514, 0.03957366833131984, 0.03899693016231082, 0.03841635739799889, 0.03784170147346476, 0.03727617615319161, 0.03671360043138512, 0.0361647772735006, 0.0356149861570132, 0.03507274289739479, 0.034530187487931484, 0.03400455327574778, 0.03348653409950202, 0.03297638213949366, 0.03247434633676543, 0.031958608881925185, 0.03147632602979237, 0.031083878045893267, 0.0306068078267279, 0.030142745796674926, 0.029627207188645727, 0.02919643147855106, 0.028827482310935584, 0.02840771302160708, 0.028000335139214887, 0.02752803933654408, 0.027154976413613446, 0.02687705697898256, 0.026509381094260882, 0.0261557043280522, 0.02580582989828767, 0.025480960722649992, 0.025108984996755217, 0.02481789105470011, 0.024536583284533533, 0.02429069897889572, 0.024027450163829053, 0.02374187333919175, 0.02350885984526523, 0.02328714981470727, 0.023097326174393425, 0.022897225430304854, 0.022718038466265408, 0.022545097310875253, 0.02238695540567715, 0.0222959503322412, 0.022161381550808632, 0.021985941502831507, 0.021895223811492334, 0.021819086933589714, 0.021778944491077673, 0.02173035259363228, 0.021656421777580058, 0.021646862616149364, 0.021652020665109042, 0.021752627833763978, 0.021778552492201998, 0.021761929680969266, 0.02183687613956136, 0.021928501214476374, 0.022092343980441714, 0.02221148017854147, 0.022333433520059107, 0.022496480046097528, 0.022679205411050264, 0.022923845212636546, 0.023140965162053613, 0.023372497686292508, 0.023635322791791667, 0.023919825865628755, 0.024155791473442427, 0.02449251477403041, 0.02492625481480312, 0.0252891824524173, 0.025675580291977033, 0.026008141657892364, 0.026451023420773427, 0.026943984467514517, 0.027421555676257144, 0.027921089991327044, 0.028426834321452033, 0.028973190057298596, 0.02962268382337774, 0.03020297004874491, 0.030810472385850496, 0.03139072172889134, 0.03205861788810556, 0.03281911338482319, 0.03352534221674578, 0.03425939944091807, 0.03495579572323926, 0.035752898205892863, 0.03662657616196611, 0.037464178532698955, 0.03832890697177143, 0.03923168830756218, 0.04014899036715757, 0.041048681509466785, 0.04202661060486681, 0.0430293259240801, 0.0440701689878162, 0.04512169866007569, 0.04617752907600951, 0.04728470977428601, 0.0484172770968109, 0.04964171678863827, 0.05081754997688883, 0.05196010818671477, 0.05320342155115587, 0.05447249856612462, 0.055835800792512345, 0.057148553110954, 0.058496621193884706, 0.05986897486096402, 0.061271219164943366, 0.06270202423280337, 0.06416323392717789, 0.06558220409723883, 0.06711012551251314, 0.06866260219332995, 0.07031825582422337, 0.07191109493613979, 0.07350784405675104, 0.0751635696358589, 0.07684709378798235, 0.07857636539057873, 0.08031289774147317, 0.082044842080884, 0.08384232405363666, 0.08566597604900147, 0.08746971413228949, 0.08935165946057946, 0.09129837997151817, 0.09322279683887649, 0.09517382276305535, 0.09711725910958627, 0.09912549596590758, 0.10118616225232355, 0.10323967928204131, 0.1053193387198977, 0.10745604617466206, 0.10958349940337657, 0.11170516340993951, 0.11389094640942724, 0.11610126854123394, 0.11829284733527262, 0.12055720434352163, 0.12291836557175279, 0.1252165304095098, 0.12754072540501804, 0.12989538895863745, 0.13226930984306315, 0.1346127358749835, 0.1370424117306052, 0.13949259003174086, 0.14192711067581193, 0.14442264948866518, 0.14695944859819335, 0.14948858817263005, 0.1520374070776794, 0.1545966962300679, 0.15718543302856056, 0.15981375948617157, 0.16243669378999706, 0.16507890812281414, 0.167768050005836, 0.17044396936147124, 0.17310633198365938, 0.17582483277304617, 0.17855967932961492, 0.18132253501584014, 0.1840874227473508, 0.1868200347777874, 0.18962221950131494, 0.19243653800253516, 0.19531099918555228, 0.19814306398420625, 0.2009463110090151, 0.20381178661677618, 0.20673699378507165, 0.20961715305076037, 0.2125100544368942, 0.21535176965367875, 0.21827591893027326, 0.22120406827707642, 0.2241424271891784, 0.22708720011469452, 0.23006520551015835, 0.23301856250283917, 0.23596089710271395, 0.23892999772846676, 0.24190391453398385, 0.244853101194901, 0.24783891416972825, 0.2509086881559325, 0.2538872640331441, 0.2568715505782736, 0.2598595043389949, 0.2628522621921566, 0.265808571715803, 0.26881069101870353, 0.2718114903810628, 0.2747953920930766, 0.27779383597653506, 0.2808185587235175, 0.28380513472707875, 0.2867886672274696, 0.2897182737360278, 0.2926998500925105, 0.2956753832293081, 0.29864029688620586, 0.3015966084174985, 0.30454691662324856, 0.30748438089612995, 0.3104281319042782, 0.3133435255375682, 0.31624899224346814, 0.3190796568408696, 0.3219713078563386, 0.3249035124220831, 0.3277566729109717, 0.33059696226382057, 0.3333855240100304, 0.33620265143074357, 0.3390406504961184, 0.3418180604948666, 0.3445794900097439, 0.34732314434417483, 0.3500503773326907, 0.3526830194924063, 0.3553823959905203, 0.3580576392886685, 0.36077783331028535, 0.3633956546657519, 0.36590243720315896, 0.36848926006854016, 0.37104856319967766, 0.3736474593659962, 0.3761429210387907, 0.3785971468147978, 0.3810455837060883, 0.38346728354310616, 0.385804451162996, 0.38817800835821875, 0.39058691787935945, 0.3928881329053068, 0.39516089022657014, 0.39738231884106534, 0.3995985522007095, 0.40172758518970647, 0.4038861502097186, 0.4060084648806721, 0.4081054500438147, 0.4101534851173575, 0.4121634009433159, 0.4141391250022241, 0.4160779240851635, 0.4179984874128794, 0.4198599136304507, 0.4217064001379854, 0.4234904682334557, 0.42523765547971376, 0.4269442337143707, 0.42861591444780045, 0.43018430258222246, 0.4317852794322346, 0.43334237048769464, 0.4348515303995652, 0.43632121480309727, 0.43781777346519063, 0.43918969021395976, 0.44052103011911875, 0.44174286467219903, 0.44299952114167096, 0.4441996896293409, 0.4453646498204273, 0.4464824696953465, 0.4475601542410657, 0.44858273150798306, 0.4495544224408152, 0.4504836106264105, 0.45136539562953726, 0.45218660831309715, 0.45297483034687736, 0.4537124911592652, 0.4544038087671279, 0.455046349216169, 0.45570323503220284, 0.4562400492584723, 0.4566722614417024, 0.4571251011829371, 0.45752806902901183, 0.4578942048689941, 0.45819578202341504, 0.45851439836908064, 0.45870919284200967, 0.45885833588209757, 0.45888498999463107, 0.45895068627423735, 0.4589608149723963, 0.458924119812754, 0.4588360572489062, 0.45869183456482066, 0.45850232340577496, 0.45831795340586434, 0.45801953559548464, 0.4576737046379121, 0.4572641777084142, 0.4568248886546103, 0.456345748916837, 0.45580759963106515, 0.4552211732566908, 0.45457244022819127, 0.45389129823045093, 0.4531592108451879, 0.452380656752015, 0.451553490425296, 0.4506679383237953, 0.4497455911448574, 0.44882300289223725, 0.44779818022023404, 0.4467284168604123, 0.4455655591821505, 0.4444120026058383, 0.44320689199536156, 0.44195926919943557, 0.44066489434060674, 0.4393774490279094, 0.43798443136794624, 0.43649706252376896, 0.43502631627536115, 0.43351065593793636, 0.43194967569148796, 0.43034609522826495, 0.4287223735847415, 0.4270300438589091, 0.42529695810568185, 0.4235606081688687, 0.4217424973816243, 0.41987389451722434, 0.4179826689301575, 0.4160536048677459, 0.41409307624727226, 0.41208867815701167, 0.41002488159196987, 0.4079511358337561, 0.40584059799842565, 0.4037069542891789, 0.4015231355211725, 0.3993262772274686, 0.3970721547727088, 0.3947862491028929, 0.39246898386678225, 0.39012081934601156, 0.38770213489403377, 0.3852987555505997, 0.38286379577563306, 0.38046534720795244, 0.3779614145057944, 0.375442353153513, 0.37288715395074046, 0.3703080481476016, 0.3676291602547331, 0.3650129593560526, 0.36243494794375336, 0.3597576186710051, 0.357059129359235, 0.3542728045626722, 0.3515420755621893, 0.3487890723352457, 0.34601281689464725, 0.34321560895643766, 0.34047272900530634, 0.33762740724588586, 0.33472629070590754, 0.33185932992688133, 0.3289771504110051, 0.3261226913645157, 0.323207205230383, 0.3202191415308075, 0.3172911941499375, 0.3143503532384411, 0.3114197365870869, 0.30845345445439604, 0.30551871103904055, 0.3025310031808762, 0.29946134576397704, 0.29647441728223045, 0.2934794139472511, 0.2905477053780631, 0.2875311390704625, 0.28448172163874913, 0.28146817379087063, 0.2784530609145788, 0.2754472166897829, 0.2724301171787721, 0.26939737046734147, 0.26638594195781146, 0.26337638896377447, 0.2603765914614588, 0.2573724683537669, 0.25436412927083757, 0.25137153207731705, 0.24838476385588698, 0.24544175874731067, 0.24246442797915393, 0.23947639254800343, 0.23652292574830538, 0.2335796381294066, 0.23066929901046485, 0.22774569733652833, 0.2248406398486327, 0.22194398516861175, 0.21906220248671684, 0.21613663771894823, 0.2132936419853337, 0.21053298969389406, 0.2077085728207645, 0.20490320843221732, 0.20203304203617684, 0.19927761785526904, 0.19659792420117755, 0.1938671425367688, 0.1911574945803589, 0.18848454285587687, 0.1858168221200267, 0.18309642807795137, 0.18048583516054648, 0.17789532844420144, 0.1753319652411426, 0.1727839231233562, 0.17025020238614352, 0.16775080017862076, 0.16527580032936154, 0.16283802327617747, 0.16041261536164578, 0.15800948437436016, 0.15563984464846875, 0.1532982910332262, 0.1509873686264762, 0.14870332283410323, 0.14650617207566038, 0.14427480509799268, 0.14207724146948006, 0.13992144544595592, 0.1377903363035271, 0.13568037730555094, 0.13361926887070255, 0.13159160474703394, 0.12961959256912414, 0.12765647356851267, 0.1257325160443818, 0.12383918600574245, 0.12198125048724377, 0.120069468909055, 0.11829367237848197, 0.11664163418496798, 0.11491581927404662, 0.113227233039015, 0.11149754495612782, 0.10989301151341631, 0.1083882642220734, 0.10684101587636621, 0.10533125422904635, 0.10385490007571366, 0.10242042941894268, 0.10097692370447994, 0.09962247602451536, 0.09830253212078198, 0.09706359350969176, 0.09580788694838673, 0.09456116118072957, 0.0933851254615545, 0.09224526091876038, 0.09120185162621784, 0.09012703352418762, 0.08901279992299033, 0.08802717563519218, 0.08707606468499962, 0.08616574697326099, 0.08528363919394186, 0.08451624755368899, 0.0836951756503459, 0.08291415101399838, 0.08217956305881784, 0.08147590274294354, 0.08081995952946423, 0.08019198481504373, 0.07960213672805483, 0.07901275702129722, 0.07850223620216147, 0.07808237658325665, 0.0776336074103768, 0.07722218061991984, 0.07682240122541056, 0.0764870031531611, 0.07614367742882529, 0.07588168452039759, 0.0756509133093783, 0.07550656004423278, 0.07533133364195736, 0.07515933088303615, 0.07505613893349346, 0.07498449377271844, 0.07497424922706261, 0.07496118199516426, 0.07497258445205157, 0.07502499721407331, 0.07510842897738135, 0.07525053393538118, 0.07539117897215868, 0.07558120155855719, 0.0757815715787271, 0.07601301963877821, 0.07629486653149872, 0.0765837653848557, 0.07687970804140858, 0.0772309510907336, 0.07760947375978104, 0.07802177913939286, 0.07845243656183865, 0.07900151957758476, 0.07947229900540692, 0.07997335957589162, 0.08046333687289962, 0.08102638503005066, 0.0816521211701642, 0.08225886106488231, 0.08289105607353617, 0.08350068086741941, 0.08418713678951283, 0.08490494566887927, 0.08563030836515631, 0.08637592601778163, 0.08714236507063035, 0.08792706344492232, 0.0887578601166954, 0.08957674894537525, 0.09041532625024647, 0.09127094760166787, 0.09214726847020896, 0.09306239329439543, 0.09397099442610818, 0.09489745009382662, 0.09586214063269323, 0.09681963861641568, 0.09785039604339918, 0.09883423805236613, 0.09983687003975657, 0.10086218944170465, 0.10189851038971817, 0.10292675491286643, 0.10399719980845824, 0.10508055171952896, 0.10618426154344274, 0.10729073163103409, 0.1084279970062475, 0.10955499570686086, 0.11069374867030113, 0.11185565378506832, 0.11301452892592903, 0.11411084443320883, 0.11529966062218457, 0.11649383360913783, 0.11776261782253826, 0.11895888838673935, 0.12016445952169301, 0.12137872797210231, 0.12260113119613243, 0.12387226088194979, 0.12510419179563434, 0.12626886861967618, 0.12752759823103285, 0.12878955034747216, 0.13007174692109236, 0.13133788624082213, 0.13262711479865352, 0.13389869105462723, 0.13517492543658227, 0.13650558693224596, 0.13778369658127776, 0.13902810349187747, 0.14032338989302567, 0.1416214663743324, 0.14297621890566944, 0.14427223853519458, 0.14555828478442664, 0.14686568537640154, 0.14812090048651502, 0.14944080666767684, 0.15075980507757253, 0.15208101182676032, 0.15339811489928032, 0.1547297809995382, 0.1560440468699438, 0.15735871401765672, 0.15866463772754447, 0.1599808977959664, 0.1613157683554191, 0.16262870355688613, 0.1639422055729987, 0.16529118895667547, 0.16660084828470959, 0.1679025129450431, 0.16921709244960625, 0.17053236224932658, 0.1718280269139271, 0.1731465309873937, 0.17444793380190524, 0.17576636810518875, 0.17708287638739814, 0.1784627962398649, 0.17976765492340843, 0.18101951315574227, 0.18233525961322164, 0.18364932614135454, 0.18496287083981192, 0.18627390999647483, 0.18760182445593804, 0.18890835983979493, 0.19021499155389576, 0.1915036496848281, 0.1928127179416283, 0.1941288862566798, 0.19543526810887454, 0.1967415202161205, 0.19806278661158633, 0.19936718587474822, 0.2006966873562521, 0.20200010651787606, 0.20330592207224268, 0.20458489239338554, 0.20589874300057096, 0.20728019327952368, 0.2085865526252407, 0.20989746961848746, 0.21115944544022075, 0.2124852255135531, 0.21379067927539813, 0.21512085749987797, 0.21645112094467525, 0.21784407949292148, 0.2191679264809757, 0.22048053313060306, 0.22181588971748872, 0.22315493604445394, 0.22452884516477886, 0.22587161399274358, 0.22714391270035103, 0.22850770243029558, 0.22987278662523533, 0.23125479626087833, 0.23262229180656205, 0.2339654941080185, 0.23534447124962285, 0.23672635894586308, 0.23812775644771003, 0.2395150558174621, 0.24091071571992811, 0.24230865079516287, 0.24371271638591532, 0.24512718395604355, 0.2465437743792246, 0.24795644263952765, 0.2493888493243887, 0.25082814903647926, 0.25230371065248614, 0.2537539635979635, 0.2551724430781737, 0.2566465974902477, 0.2581278369689734, 0.25970178559149837, 0.2611875343677468, 0.2626641570465554, 0.2641781942737984, 0.2657032461945197, 0.26717605974656305, 0.26873094146477317, 0.27030720211505344, 0.27187550319285525, 0.2734529225935646, 0.2751190096631167, 0.2767055976779797, 0.2782464870732174, 0.2798692566430322, 0.2815024395288173, 0.28318738167516966, 0.2848368679824421, 0.2864305325752756, 0.2881153864868125, 0.2898094979460076, 0.29159357733823976, 0.2932974596522541, 0.29493518342229524, 0.2966791942668361, 0.2984331869164037, 0.30019058942792415, 0.30196673099397925, 0.30374664858747064, 0.30554564512558957, 0.30735575059082687, 0.3091793184377956, 0.3110123872830678, 0.3129167610535307, 0.3147668314260675, 0.3166327474901605, 0.3185051574161142, 0.32040296008972885, 0.3222730967670754, 0.3242049658354592, 0.32614860339646545, 0.3281132303871186, 0.33007981652315493, 0.3320972760128267, 0.33408460462382167, 0.3360868826811568, 0.3381188454858595, 0.34014822075619305, 0.34210628722765496, 0.3441760734176633, 0.3462552498688092, 0.34840637446357603, 0.3504975481295633, 0.3526085753444492, 0.3547263669663077, 0.35685775784722457, 0.3590074444405777, 0.36116446184234147, 0.3633033620363213, 0.3654899348626597, 0.36768711206357807, 0.3698316710113611, 0.3720578964770729, 0.374372221605443, 0.3766023168225138, 0.3788445667964451, 0.3810053019998158, 0.38328245636976316, 0.38556034389169397, 0.3878500068462657, 0.39014580976816365, 0.39250316670255414, 0.394804970142454, 0.3970874761729647, 0.3994121343466179, 0.40174415725068885, 0.40407134752490304, 0.4064191016175416, 0.4087980380287639, 0.4111546934710086, 0.4135185311944194, 0.4158179295524486, 0.41820387484810906, 0.42065592211390657, 0.4230377329376321, 0.42542527635014377, 0.42779998692601057, 0.43019973969860004, 0.4325384976048919, 0.4349523826481805, 0.4373651197649905, 0.43984202180715937, 0.442244525369775, 0.4445614460192167, 0.4469798399944443, 0.44939474760532055, 0.45184740651817784, 0.45425042329357634, 0.4566784632792815, 0.4590756529328975, 0.46147238152488773, 0.46386998509193683, 0.46626354201502085, 0.46865076852724585, 0.4710395460351251, 0.47342449507959533, 0.47577594132594625, 0.478155143600486, 0.48045793462776676, 0.4828311203119686, 0.4851925092622914, 0.4876154839474655, 0.48994445652591345, 0.4921857790263876, 0.4945094007052676, 0.49681980333154463, 0.4991169977177969, 0.5014009232235174, 0.5036915124495799, 0.5059459333526586, 0.5082287896927572, 0.5104522098909436, 0.5126643598331612, 0.5148413690495934, 0.5170315078672485, 0.5191586100763533, 0.5213244933430435, 0.5234716883442707, 0.5256531894332538, 0.5277557687796564, 0.5298279952327933, 0.5318990141492256, 0.5339515332513901, 0.5359147957043219, 0.5379375256585553, 0.5399832943331909, 0.5419518955097092, 0.5438990262259256, 0.5457630336257184, 0.5476735189917427, 0.549623843750982, 0.5514732672283663, 0.5533000061639076, 0.5550452532830837, 0.556832071551828, 0.5585870593994827, 0.560318625827072, 0.5620218643802473, 0.5637266939741181, 0.5653689364884507, 0.5669428193419614, 0.5685352736673601, 0.570097180824381, 0.5716755184699923, 0.5731698689424467, 0.5745775882793235, 0.5760217424011126, 0.5774329531949528, 0.5788692860851413, 0.5802069211084395, 0.581530526099514, 0.58280532643436, 0.5840496804944314, 0.5851856578230534, 0.5863768014017968, 0.587531178495684, 0.5886488369453624, 0.5897297870552981, 0.590789049282457, 0.5917945850626662, 0.5927570884060694, 0.5936912703287661, 0.5945886103743034, 0.59544693974281, 0.5962703542264224, 0.5970512942349799, 0.5978002627349485, 0.5985111677073298, 0.5992240006438877, 0.5998533336331705, 0.6004454720363576, 0.6010020960356396, 0.6015216084569308, 0.6019795760796873, 0.6024268500174154, 0.6028146142538473, 0.6031854475240479, 0.6035155646737062, 0.6038592211157131, 0.6041013486506148, 0.6043291312321976, 0.6044931549892227, 0.6046203788275127, 0.6046301155808961, 0.6046925729291899, 0.6047095324732015, 0.604687756603795, 0.6046240224820968, 0.6045738206351812, 0.6044201704548376, 0.6041754332875674, 0.6039524568900253, 0.6036882499676972, 0.6034031972196582, 0.6030549570805546, 0.6027156788456581, 0.6022831208067856, 0.6018143371441388, 0.601251917015707, 0.6007172244329734, 0.6001575678449177, 0.5995413327548368, 0.5988866704331139, 0.5981717500961207, 0.5974437270277234, 0.59667776121242, 0.5958721534695179, 0.5950285094555391, 0.5942154241539962, 0.5932882789396293, 0.5922659271782253, 0.5912804192789418, 0.5902581262588354, 0.5891714269516531, 0.5880804836705518, 0.5869655734329009, 0.5857996412074263, 0.5845987410849415, 0.5833854411640292, 0.5821133209621624, 0.5807758634851434, 0.5794437447330028, 0.5780781486580391, 0.5766907092060864, 0.5752585540235212, 0.5737892821425407, 0.5722961587088773, 0.570772539117397, 0.5692480276639194, 0.5676612994611244, 0.5660141686501674, 0.5643772899877628, 0.5627118381705537, 0.5610785888378598, 0.5593501875101551, 0.5575422212832662, 0.5557742138053722, 0.553979911539574, 0.5521389167035413, 0.5502966656999433, 0.5484419370089372, 0.5465478169968955, 0.5446305058919558, 0.5427397990624845, 0.5407718512209171, 0.5387854158865552, 0.5367807359518025, 0.5347580998030759, 0.5327198431847903, 0.5306620691373521, 0.5285674951001377, 0.5264791896185722, 0.5243738826486519, 0.5222492033107505, 0.5201121918927728, 0.5179378748354111, 0.515773842816961, 0.5135946807716499, 0.5114092647583252, 0.5092013658608546, 0.5069842914815897, 0.5047523727605295, 0.5025098877720895, 0.5002585277383775, 0.4979968444566351, 0.4957507731282513, 0.49346980248083, 0.4911830621740332, 0.48882483493251155, 0.4865363602573054, 0.48426394730427, 0.48195747744882383, 0.47964642431855103, 0.4773145106353672, 0.4749987424647177, 0.4726857125868162, 0.470363484258501, 0.46804000044157285, 0.4657190203768235, 0.46339487739602003, 0.461075853592651, 0.4587540910303113, 0.4564349934969398, 0.45408006598868583, 0.45177308677680733, 0.44951253389072016, 0.4472054889599564, 0.4449050013630248, 0.44263160118588213, 0.44034311822906697, 0.43801662334987707, 0.43575267544447055, 0.433495890080042, 0.43123298226874424, 0.4289945340583377, 0.4267435827792285, 0.4245257003851462, 0.42231673450816537, 0.4201205816537345, 0.41793168012141074, 0.41577944755779156, 0.41361129175904265, 0.41145754544209656, 0.4092965948839566, 0.40717579901136847, 0.405091568005048, 0.4029975963141889, 0.40092055714808156, 0.3988678505178337, 0.3968249275647571, 0.3947814126742267, 0.39277814234449543, 0.3907929068182485, 0.3888001113254872, 0.3868556641477086, 0.3849361976423086, 0.38302742531800366, 0.3811242092634912, 0.3792569113496827, 0.37740940731517963, 0.37564945489083473, 0.37383470366993826, 0.37201000522178, 0.3702499192026249, 0.3685128965197296, 0.3667611023994919, 0.3650758403074168, 0.3634614459368435, 0.3618139868282185, 0.3601920902069928, 0.35854468986684324, 0.3569806344674463, 0.35543552829831543, 0.3539184179358988, 0.35242503011307225, 0.35098591084482844, 0.349537501469939, 0.3480866741528122, 0.34669536992928324, 0.3453292901359032, 0.34405093481975485, 0.34272837663688765, 0.34139227837881153, 0.3401340668430836, 0.33890250987131476, 0.33772482528626946, 0.3365435595820744, 0.3353577478197403, 0.3342376395806074, 0.33314398780634064, 0.33204185767764677, 0.3310060278323306, 0.32999410444203675, 0.3290085968274596, 0.3280486397000065, 0.32714058450831407, 0.3262292144100467, 0.325312453578604, 0.3244606086118397, 0.32363446512450433, 0.32286528815979226, 0.32208710222597686, 0.32129564661931415, 0.32057816014841983, 0.31988582175362773, 0.31928795863934656, 0.318637512642004, 0.31799128747090105, 0.3174020483108675, 0.31683963413331956, 0.3163238226640128, 0.3158116870952665, 0.3153326892721209, 0.31487360031994, 0.31444112304917726, 0.31395659136770365, 0.3135859203540568, 0.3132372067419531, 0.31290856003654915, 0.31260134382320937, 0.3123868719393919, 0.31211379370760206, 0.31184325535914675, 0.31162369897788067, 0.3114272731925779, 0.31127668227259475, 0.3111225185766284, 0.3109666287602926, 0.3108617825682692, 0.3107778113833113, 0.3107264514178453, 0.31068180737624895, 0.31064476153035564, 0.31064262146146493, 0.3106595603504959, 0.31070229803106575, 0.3107555974316008, 0.3107833160034605, 0.3108789013546071, 0.31098978769558133, 0.3110848551055049, 0.3112301345272895, 0.3114148171853384, 0.3115835504821986, 0.3117671962821805, 0.31195047024408595, 0.312165091180096, 0.3124180477728581, 0.3126558321304985, 0.31290786313298685, 0.3131937357891363, 0.31347033490264475, 0.3137428610142841, 0.3140490700295181, 0.3143670046515701, 0.3146380511942217, 0.31498544588292926, 0.31539811855732974, 0.31575239809924066, 0.3161170254781819, 0.3164232424192584, 0.31681550713257783, 0.31726177281335843, 0.3176575608407876, 0.318060938338132, 0.31844433647576154, 0.31886484361834055, 0.3193370865766964, 0.3197605703185807, 0.32019074378323426, 0.3206269171758521, 0.32106842977007904, 0.32152267071299184, 0.3219719711936291, 0.3224252333743952, 0.3228617718024548, 0.3233236366192723, 0.3237644715758574, 0.32423080241424, 0.3246961504505072, 0.32510514950617814, 0.32557485906312034, 0.3260929570275499, 0.326546600672398, 0.3269987570707781, 0.3273958981739893, 0.3278506690713481, 0.32837404715175783, 0.32880827386604305, 0.3292411046212122, 0.3296548439136844, 0.33008513091094327, 0.3304360072591825, 0.3308669945559312, 0.3312887392900565, 0.3317596132185039, 0.3321560703259639, 0.33256001394442686, 0.3329432835449612, 0.33332087084698764, 0.3336411117802531, 0.3340122714674681, 0.33438944274258064, 0.3347384685497052, 0.3350782570641572, 0.33543064910721865, 0.33574850048427307, 0.3360476395237509, 0.3363489768215206, 0.33664025825275157, 0.33693021444299454, 0.33719936577570625, 0.337406961167529, 0.33766141612260653, 0.3379019219710953, 0.3380854574828251, 0.3383037871600054, 0.338541050485746, 0.3387229633365974, 0.33889132088548235, 0.3390982177638251, 0.3392326916925889, 0.33929916295494067, 0.33941866855190883, 0.3395231357632205, 0.33964568394710254, 0.33971594490466894, 0.3397048480183401, 0.3397571118759527, 0.33979182064890134, 0.3397982389698042, 0.3398000714654865, 0.33983662506835, 0.33979726304163727, 0.3397438644979453, 0.33961601019388804, 0.33954142182636476, 0.3394397053138743, 0.33933034203643114, 0.33920290360634353, 0.33905867217300856, 0.3388957520054619, 0.3387215457938577, 0.3385234175947121, 0.3383086152733446, 0.33812433416275856, 0.3378703935095421, 0.3376105925296527, 0.33732752125002785, 0.33703035847791685, 0.33667965784005127, 0.3363582965176808, 0.3360227808964793, 0.33566681487398964, 0.3352940535412802, 0.33487247542525655, 0.3344703921412674, 0.33406998339254806, 0.33362893155772716, 0.33313014159189575, 0.3326611630463, 0.33217348585570755, 0.331664543619481, 0.33114113409086915, 0.33065622268676353, 0.33009074297920743, 0.32951143076030814, 0.32883790120267453, 0.328240631462354, 0.32762665691572834, 0.3269922894345032, 0.3263404229154462, 0.3257407117641167, 0.32504642800898453, 0.32431170095819545, 0.3235960324032283, 0.3228660481960268, 0.3221378898431232, 0.3213775397617485, 0.3205850283615465, 0.31980086113614103, 0.31900251565154064, 0.3181661079470898, 0.3173430036026486, 0.31645678853932757, 0.3156102037198922, 0.31474668096849195, 0.31394015253159724, 0.3130356020115001, 0.3120570212001518, 0.3111387155564631, 0.3102059530597024, 0.3092622558938675, 0.3083016987885333, 0.30731323202136296, 0.30632922160877213, 0.3053322303649963, 0.30437184809946083, 0.3033439957642566, 0.3022790874867419, 0.30123679423613997, 0.3001838946645906, 0.29911259931275563, 0.2980401947368518, 0.29699251406271565, 0.2958951993752342, 0.2947900270005653, 0.29360777543709105, 0.2924955901173638, 0.29142281216823407, 0.29028128607479964, 0.28913204849267016, 0.2879822177036904, 0.2868169755702044, 0.28560763767856573, 0.28443318004930507, 0.28324981125130544, 0.28208200069511474, 0.2808789445262994, 0.279678485897404, 0.2784615739166075, 0.27723903021077534, 0.27602497628664713, 0.2747896526997331, 0.2735016340501742, 0.27226328857595483, 0.2710177225893697, 0.2697352902016128, 0.268480377971443, 0.26721277785916786, 0.2659437545075101, 0.2646679280604261, 0.26342896436636865, 0.2621356602397151, 0.26084146890987864, 0.25954219193648137, 0.258240275826118, 0.25689767768248334, 0.25559550754799376, 0.2542827644523193, 0.25297263854237734, 0.2516583772004761, 0.2503283284377587, 0.2490084324383471, 0.247764004646932, 0.2464269674298107, 0.2450913660616273, 0.24370373617544241, 0.24237683868829374, 0.24102854710618252, 0.23969963001510017, 0.23836778889535631, 0.23705345347504883, 0.23571431320078737, 0.23441752010956157, 0.23307149819194736, 0.23172736111384326, 0.23035077946502575, 0.22901406620948056, 0.22770381946569954, 0.2263626101663264, 0.22502260235056792, 0.2236245480863933, 0.2222942086771439, 0.22098363856206651, 0.2196463770202894, 0.2183089254549318, 0.21694339693600595, 0.2156096803860561, 0.21429378851549627, 0.21295558123637393, 0.21161792950936947, 0.21033212814366867, 0.20898955408390268, 0.2076337648406855, 0.2063007141257533, 0.20496998267746247, 0.2036424889172168, 0.20231603195067335, 0.20097469496900378, 0.19965468116438947, 0.19833579192316214, 0.1970632659652385, 0.19574124230958728, 0.19439309766730087, 0.193082533206212, 0.19177373479419593, 0.1904968286575972, 0.1891878805287893, 0.18785142167672655, 0.18655336000386333, 0.18525676067339372, 0.18395671483229362, 0.18266398275273774, 0.18132057608561164, 0.1800375087391152, 0.17875322241015346, 0.17754846425473914, 0.17625308857578997, 0.17495835839147425, 0.17367250685523042, 0.17239052698110882, 0.17112726117813812, 0.16985054471404776, 0.168502796315017, 0.16724369682322293, 0.16598407416227004, 0.16471731454497532, 0.16345870193309958, 0.16228248035928458, 0.16101410994622636, 0.15975112072652733, 0.1584459606293725, 0.15719848671231032, 0.15593157018713855, 0.15469008101581214, 0.15344918844501543, 0.15220711811063675, 0.15096833453739977, 0.14971759928341072, 0.14848279573341464, 0.14724864174019603, 0.1460855545317249, 0.14484444150473996, 0.1435593322976751, 0.1423342833166753, 0.14111079259865986, 0.13989291769208997, 0.1386721637791617, 0.13751347200013375, 0.13628887656277663, 0.1350695162594863, 0.133793712824965, 0.1325911040154357, 0.13145614571696534, 0.13024610525428928, 0.12904056905266337, 0.12782707518801845, 0.12663083899670846, 0.12544532487534568, 0.12425328530969301, 0.12306404734424779, 0.12188844166621358, 0.1207028395415862, 0.11946598746714325, 0.11829283208675141, 0.1171191552557494, 0.11596329503020021, 0.11478712418790823, 0.11356408439822542, 0.11239659953380808, 0.11122780344033406, 0.11014739297466858, 0.10896596507057187, 0.10772121884641865, 0.10655775122274438, 0.10539455511245213, 0.10429905370433172, 0.10312857406177427, 0.10192665398832759, 0.10076968605867112, 0.09961464668722166, 0.09847056598059847, 0.09731825940061706, 0.09621354083335182, 0.09506038954993536, 0.09384694180951393, 0.0927114144358553, 0.09157637927448778, 0.09042501919527715, 0.08929379811312259, 0.08819183054886574, 0.08705758632864516, 0.0859257385425283, 0.08481034540969308, 0.08368157294774929, 0.08254802572520274, 0.08142667819588437, 0.08030797390369046, 0.07916885788670991, 0.078058394759794, 0.07701953027053839, 0.07590320093302642, 0.07479261748015327, 0.07362621994693978, 0.07253376200835725, 0.07143660432280037, 0.07034779925517885, 0.06926046828520827, 0.06820195591809065, 0.06711492902296136, 0.06601558693648489, 0.06493803883849597, 0.063863309225497, 0.06281059075741978, 0.06173949689821738, 0.060686725753969675, 0.059622388744196717, 0.05856307009208354, 0.05755077136467037, 0.05649583445002756, 0.05538983447884168, 0.054356071988235444, 0.05332543820088961, 0.05236331781373797, 0.051331288018617346, 0.05030661876576928, 0.04928896340726019, 0.04827803438887178, 0.0472776089010285, 0.0462789706032696, 0.045256634228230085, 0.044274438338969775, 0.04329670598824918, 0.04237977465306961, 0.04140440112757939, 0.040453221863032976, 0.03949184293383023, 0.038539021228457024, 0.03759746790341171, 0.03666054843061441, 0.03568751180098867, 0.03477202969617398, 0.03386180713904393, 0.033051394616446614, 0.03214060903910434, 0.03121211177809762, 0.030327246291300305, 0.029451207051047062, 0.028629020708378673, 0.027764662159296943, 0.026884395401289334, 0.026045440916472384, 0.025215493182516015, 0.02438953490230386, 0.023578255912232313, 0.02284999182013459, 0.022047053243094798, 0.021257331816740947, 0.020446278410421168, 0.01968603119291638, 0.01896706467343422, 0.018223319717130468, 0.01749163495416509, 0.016806957074933397, 0.016094544387556184, 0.015360745164013737, 0.014679894428506748, 0.014010249731305588, 0.013446188499942316, 0.012787381632397257, 0.012171525913887832, 0.011542575875726331, 0.01093087146962978, 0.010274628246773608, 0.009703429543541099, 0.00919667908798896, 0.008643661898822803, 0.008106238942075055, 0.007639353487052987, 0.00712556546519743, 0.0065928993468996715, 0.006119766780591757, 0.005661893455765044, 0.0052754295222351135, 0.004840983336895082, 0.0044601312969756125, 0.004057876895674833, 0.0036754509050575374, 0.00325921420971503, 0.002921800903981844, 0.0026411709371185507, 0.002330092683676688, 0.0020374060823862127, 0.0017579942245539966, 0.0015024667866956607, 0.0013541390813433414, 0.0011232854787511218, 0.0009155509904445497, 0.0007393638220262869, 0.0005750426759697388, 0.00041481779991182005, 0.00029669615167718345, 0.0001990373121854921, 0.00016890235579887372, 0.00010603766816295468, 1.003874896838509e-05, 0.0, 9.259505885512225e-06, 0.00010427645887883713, 0.00014457902037666998, 0.00024181010033861254, 0.00032534129597858326, 0.00043411819904248816, 0.0005366527142274947, 0.0006987364229758899, 0.0008743361709148804, 0.0010827157477796606, 0.001313298323077699, 0.0016515176984441126, 0.0019163094694802662, 0.002225733733256774, 0.0025430638109338647, 0.0028880748975782166, 0.003220207902939407, 0.0036244049711767084, 0.004050940294236867, 0.00450418605147531, 0.004981896493339961, 0.00549526083478721, 0.006020989524592527, 0.006644509994904061, 0.0072123743117855, 0.007810078773830504, 0.008392035174417242, 0.009053829125487928, 0.00981700268673091, 0.010521738978482716, 0.011257117530961678, 0.011978551260295166, 0.012779491778924075, 0.013692694396913134, 0.014537007829286035, 0.015413362885298295, 0.016272070368144473, 0.017217167443513655, 0.018253349363002106, 0.019246361655240556, 0.020271028362823913, 0.02133097538935703, 0.02241735994994757, 0.023571783285254198, 0.02471511829387434, 0.025891074592440375, 0.027030033192245825, 0.028278793726418693, 0.029598373311331118, 0.030897413787448064, 0.032227234121307756, 0.03361086023904655, 0.03499923061463068, 0.036378513129945965, 0.037835982466672684, 0.03932289434824843, 0.04092473448992769, 0.04246046870422318, 0.044047164923330405, 0.04565022214053393, 0.047288207022409254, 0.04890950036355837, 0.05062245968785417, 0.05241540522070685, 0.05418397414420388, 0.05598640673312705, 0.057811402941312554, 0.059682196940970336, 0.06157954194183601, 0.06351617144758671, 0.06548492644707145, 0.06747880692314111, 0.06951276660576931, 0.07168483747514273, 0.07376906216974008, 0.07589123458346397, 0.07797436088160371, 0.08017983517398392, 0.08247610573994522, 0.08473745625159741, 0.08705902479520164, 0.0893871119835931, 0.09175103145141271, 0.09415831497792036, 0.09659147595527552, 0.09907166686016725, 0.1015729138055722, 0.10410911634721565, 0.10664278555317902, 0.10925249286230568, 0.11187200846098665, 0.11454829757233986, 0.11725531546840336, 0.12004041482005229, 0.12280355742417588, 0.1256568062109729, 0.12848049955743077, 0.13134083267094268, 0.13416595318672697, 0.13710669300212136, 0.14012346614513704, 0.14312042531488733, 0.14615103270911642, 0.1491979512965817, 0.15229717060693737, 0.15544433353884193, 0.1586052330665684, 0.16179875564290327, 0.16504975232184332, 0.16830470196711536, 0.17163316942559642, 0.1749494624675884, 0.17830065861601693, 0.1817041541575638, 0.18512097226671947, 0.18857192489586913, 0.19205638186569385, 0.1955737748644046, 0.1990624156006679, 0.202651921596172, 0.20627353728517597, 0.20991883564507802, 0.2135926334100512, 0.2173811887535351, 0.22110109431640707, 0.22483324835821608, 0.22862168704957478, 0.23244082492043971, 0.23625310317171083, 0.2401370025485247, 0.24410641303012096, 0.2480375733457289, 0.2519991752213037, 0.25597459535971234, 0.25999741785782493, 0.2640872792607391, 0.2681606720516103, 0.27226352018059935, 0.27631997615544573, 0.28048939180095966, 0.28476852069447006, 0.2889740592310597, 0.29320804710750187, 0.29747782166696224, 0.30176568507465656, 0.3060263748375917, 0.31037442372386914, 0.31474520765527003, 0.3191376106381449, 0.32355362825542233, 0.3280510837351684, 0.33250398548571397, 0.3369821097140705, 0.34142359174163556, 0.3459578645912262, 0.3505179871167924, 0.355091070335845, 0.35968410137928336, 0.36436105422838505, 0.36898521478761065, 0.37357205645782593, 0.3782487382503616, 0.38294335578938027, 0.3877218728646606, 0.3924432931370106, 0.3971675637904002, 0.40193224296909125, 0.4067152022681738, 0.41149980020476945, 0.41631957935356745, 0.42115199383346885, 0.426003021135021, 0.4308686785180721, 0.4357264971265268, 0.4406229779352499, 0.44554464454699205, 0.4504635203596474, 0.45539473857796836, 0.4603118080918839, 0.46526974477494876, 0.47032351847728887, 0.4752894893472269, 0.48026936875049553, 0.48518493043357475, 0.49019942783418596, 0.4952477199381846, 0.5002719931347213, 0.5053039949537228, 0.5103141177091193, 0.5153636752704575, 0.5203996901759468, 0.5254602432680678, 0.5305236495234453, 0.5356568769644359, 0.5407167774302943, 0.5457253349859722, 0.5508032144289674, 0.5558819610805971, 0.5610163652340745, 0.5660887410584106, 0.5710876731363799, 0.5761743396937481, 0.5812577481863621, 0.5864058737636324, 0.5914734361105664, 0.5964866107837624, 0.6015596510061918, 0.6066276444024761, 0.6116781485843501, 0.6167363171510898, 0.6217774277130169, 0.6268224162988815, 0.6318590012330938, 0.6368627423387033, 0.6418844116098142, 0.6469332135334909, 0.6519278345965159, 0.6569130123472187, 0.6618459469154416, 0.6668155218250874, 0.6717882920341834, 0.6767276578784777, 0.6816533908247623, 0.6865839805918761, 0.6914783278886568, 0.6963754182406616, 0.7012382372212393, 0.706086192612193, 0.7109003508676264, 0.7157182402093797, 0.7204404592438328, 0.7252305437114149, 0.7299965090578776, 0.7347282814898931, 0.7394470653525116, 0.7442049955377349, 0.7488654219942472, 0.7535040120022334, 0.7581259768008002, 0.7627177286746879, 0.7672525091668115, 0.7717998757317667, 0.7763198946104477, 0.7807428535662975, 0.7852153641965782, 0.7896650778475567, 0.794070665135579, 0.7984439011255445, 0.8027614833502009, 0.8070721690358983, 0.8113603772601072, 0.815600322341857, 0.8198059800394812, 0.8239619020407094, 0.8280996358956528, 0.8321949048765697, 0.8362601285352179, 0.8402877784714543, 0.8442634179769093, 0.8482164718402924, 0.8521258658079334, 0.8559997582352106, 0.8598329985595211, 0.8636863566042348, 0.8674293145874606, 0.871126735817116, 0.8747925762897699, 0.8784176066036807, 0.8819247790497516, 0.8854753660962772, 0.8890266042076618, 0.8924760039243956, 0.8958803125767332, 0.8992529622384777, 0.9025635000139273, 0.9057898334120015, 0.9090123091792728, 0.9121851976098287, 0.9153141820386578, 0.9183861182228712, 0.9213987342669591, 0.924370802396705, 0.9272631464589794, 0.9301351260990967, 0.9329531754688289, 0.9356970968998608, 0.9384093674078792, 0.9411332580291192, 0.9437258252199081, 0.9462664218543755, 0.9487282932877282, 0.9511662415407943, 0.9535428062257226, 0.9558704160272172, 0.9581415938104619, 0.9603931381399846, 0.9625458392926489, 0.9646242182750019, 0.9666681934446654, 0.9686546736740639, 0.9705993382595705, 0.9724677176554009, 0.9742172799236001, 0.9759776633940805, 0.9776761120252222, 0.9792836505768444, 0.9808621965550214, 0.9823753973827819, 0.9838277721684564, 0.9852171525834842, 0.9865677826239347, 0.9878286165888387, 0.9889971279290599, 0.9901393004721475, 0.9912182439375306, 0.9922461163706484, 0.993197421876395, 0.9940824497546974, 0.994909682029561, 0.9956743218645198, 0.9964535660489784, 0.9970831828373069, 0.9976113368819196, 0.998129075983623, 0.9985848329453197, 0.9989724383771009, 0.9993045596142355, 0.9996050655664154, 0.9998078153649574, 0.9999495566773022, 0.9999738790327709, 1.0, 0.9999583383497238, 0.999855623619799, 0.9996886117495444, 0.9994415795910663, 0.9991489543696493, 0.9988472124008523, 0.9984194779844421, 0.9979313669440885, 0.9973637506030928, 0.9967571107764749, 0.996120003267185, 0.9953865071903946, 0.9945935870537325, 0.9937281693121846, 0.99281798453189, 0.9917654297503403, 0.9907455630504255, 0.9896613509699678, 0.988527729177975, 0.987315675906994, 0.986095724391776, 0.9847554683152379, 0.9833583513231641, 0.9819055135551379, 0.9803949922600604, 0.9787459392023383, 0.9771334419472552, 0.975460502353085, 0.9738092886060187, 0.9720079464293043, 0.9701182666341291, 0.9682150201666953, 0.9662568744220302, 0.9642082235463936, 0.9621463372683672, 0.9600520894179693, 0.9578772279218497, 0.9556497938220951, 0.9533663274008619, 0.9510359099825697, 0.9486653812895779, 0.9462318697844724, 0.943749005888631, 0.9411611258849726, 0.9385881592875187, 0.9360424369009529, 0.9333586060424749, 0.9306301098655867, 0.9278110890572475, 0.9249999557093544, 0.9221545477999453, 0.9192500405604705, 0.9163014196795182, 0.9132621991206199, 0.910233259940394, 0.9071595201033225, 0.9040420203959447, 0.900881759532474, 0.8977358591604934, 0.8944858269452579, 0.8911207523646553, 0.887807394956145, 0.8844537081046312, 0.8811280002327085, 0.8776884604437626, 0.874165428138204, 0.8706659748971319, 0.8671312820627185, 0.8635903414667295, 0.8599843324021509, 0.8562901687203094, 0.8526300318449096, 0.8489369640862771, 0.8452020495065337, 0.8414476804008023, 0.8376800723354388, 0.8338640431020758, 0.8300207819680908, 0.8261752111252982, 0.8222769872275988, 0.8183844787183432, 0.8144364598434317, 0.8104679538100679, 0.8064262189331494, 0.8024247294269361, 0.7983951010419238, 0.7943510774956821, 0.7902864691306085, 0.7862232899589463, 0.7821176866530258, 0.777954354214955, 0.7738214441290702, 0.7696710538452253, 0.7655343232027287, 0.7613482919088741, 0.757132469745175, 0.7529238160818444, 0.7487028776557887, 0.7444193542385468, 0.7401828334285541, 0.7359727577788425, 0.7317071703010385, 0.727433470251185, 0.7231283644098814, 0.7188437952655627, 0.7145370070567735, 0.7102409193831015, 0.7059386404180976, 0.7016602399130912, 0.6973448181131899, 0.6930226568318459, 0.6887050529155312, 0.6843867074047085, 0.6800231592095725, 0.6757110308362165, 0.6714136518571705, 0.667097908276093, 0.6627837292258715, 0.6584458178258653, 0.6541403695928014, 0.6498814008019944, 0.645575992120901, 0.6412771894093201, 0.6369463480236046, 0.6326671079447039, 0.6284247818885975, 0.6241540551294156, 0.6198924486923726, 0.6155822700901323, 0.611347678835884, 0.6071203631211387, 0.6029012619694353, 0.5986912545501671, 0.5945282711605958, 0.5903341831273559, 0.5861816793118044, 0.5820114383329691, 0.5778570547356257, 0.5736956238918179, 0.5695763811100062, 0.5654822887902281, 0.5613924377325518, 0.5573190977729464, 0.5532485528060068, 0.5492109858133191, 0.5451871152278284, 0.5411837828921878, 0.5371978613820829, 0.533232800284335, 0.5292826267539938, 0.5253051759078091, 0.5213989127900175, 0.5175096411125757, 0.5136440936885625, 0.509790132970836, 0.5059123555383968, 0.502102965644694, 0.49832045963058547, 0.4945464204980459, 0.49079222003609774, 0.48708147910993765, 0.4833656493105941, 0.4796223128814743, 0.4759583122392881, 0.47231454689377866, 0.4687116550508026, 0.46510749996678846, 0.4615282584178054, 0.4579699004452485, 0.45443500204837767, 0.4509106856484045, 0.44742480951282737, 0.4439490325389892, 0.44051127504274135, 0.43709628534700146, 0.43365315844623825, 0.4302908534292647, 0.42698314832742396, 0.42365807867491934, 0.42035642581854915, 0.41702414622871, 0.4137764732296481, 0.41057749272005845, 0.407367948125366, 0.4041814202696719, 0.40098088003509924, 0.3978452699887392, 0.3947106585280554, 0.3916199688151173, 0.38854968973404286, 0.38549912841041273, 0.3824706540343153, 0.37947829402707045, 0.37649017941813695, 0.37352416335332966, 0.3705550681014404, 0.3676360709702024, 0.3647554128573824, 0.36187472425748524, 0.3590153218144011, 0.3561619457450217, 0.35334634764441064, 0.35051839335738366, 0.3477461752976453, 0.3449915661413232, 0.342252614744622, 0.3395335851671834, 0.33687116608695844, 0.3341821094964202, 0.3315125450519175, 0.3288880728764777, 0.3262527784577509, 0.3236099550448134, 0.3210165118336896, 0.31843979006424084