0.03932701899249082, 0.03925602641412921, 0.03925805796487156, 0.03929135558507634, 0.039367298365809385, 0.039471390812843274, 0.039598717184520356, 0.03974705508166316, 0.03992255640821775, 0.040101213890284884, 0.040292724374056274, 0.040486480605669596, 0.040699472856168595, 0.040896030729023786, 0.04112658720208424, 0.04136194969911866, 0.041598511246840664, 0.041843297986504345, 0.04208902484066139, 0.042342989957481814, 0.04260149232582432, 0.042858865459356445, 0.04312836643826892, 0.043403336478229165, 0.04368433871307593, 0.04397195978113567, 0.044268813696465216, 0.04457123668600855, 0.044909039754375726, 0.04522580317682981, 0.045553837237538614, 0.04587273904911018, 0.04622709769225894, 0.0466155421269345, 0.04699019305527757, 0.047378578744856695, 0.047723421838864195, 0.04814769962385487, 0.048619150361990174, 0.04906307228942143, 0.049522275786721255, 0.04998850087750465, 0.0504807207116503, 0.05095889011723367, 0.05148764302047536, 0.052031769272727096, 0.05262011249120992, 0.05319344041429539, 0.053723300217717304, 0.05434259687424468, 0.05497792683938488, 0.05565290168010871, 0.05631980457169018, 0.05696337559859288, 0.057675301522990954, 0.05840527276160045, 0.05916811735612308, 0.05993458719034887, 0.06070386281969966, 0.06151490425982934, 0.06234674863933066, 0.06324085166227005, 0.064110779321819, 0.06496783782111085, 0.06589198707940593, 0.06683897776921448, 0.06782066867549451, 0.06881326536669262, 0.069818598047742, 0.07086263814179929, 0.07193142530223319, 0.07299989013877867, 0.07412259546307816, 0.07528454709220296, 0.07645496229999375, 0.07765182857204984, 0.07885476371870305, 0.0801083484344789, 0.0813836949865215, 0.08269132255037778, 0.08402619548919218, 0.08535800389117561, 0.08675282384905028, 0.08819142659725854, 0.08963888041100389, 0.09111566205580339, 0.09257733487822245, 0.09411986530134035, 0.09565370253857702, 0.09725802861481402, 0.09888995786977443, 0.10058329634468902, 0.10226906370662459, 0.10398220498676311, 0.10573315641182686, 0.1075167953688581, 0.10929333568275047, 0.1111487160371024, 0.11299820924030428, 0.1149223238716433, 0.11687728177046078, 0.11889478264494512, 0.1209100259663412, 0.12290654206336342, 0.12499874640299734, 0.12712355623144952, 0.12932327349259307, 0.1315101719446497, 0.13370113677069734, 0.13596620014826127, 0.1382666788303602, 0.14058890380427652, 0.14296317155353774, 0.145369127998764, 0.14781571567744747, 0.15029851685665557, 0.15276087419635, 0.15532423655243374, 0.15792078543900817, 0.1605526030113387, 0.16321946112485514, 0.16595067274876243, 0.168685350402151, 0.17139289671984378, 0.1742116337122882, 0.17706468030380962, 0.1799331090311152, 0.18285868467255986, 0.18586434664708454, 0.18885358575055738, 0.19188065084123368, 0.19489381889753454, 0.19800272662394952, 0.20112137481238004, 0.2043027494032348, 0.2075176881944396, 0.21077454042663255, 0.21405642065946284, 0.21736293113467559, 0.22071546573856707, 0.22410208918587685, 0.22751005140237604, 0.2309663691455141, 0.23447865420431935, 0.2379983765756457, 0.24155237378813396, 0.24508532511596592, 0.24871375174336213, 0.252411806534412, 0.25609541317079, 0.25981130191238794, 0.2635000519112569, 0.2672866611833587, 0.271097546335863, 0.2749398226808341, 0.27880943784850354, 0.2827049199396653, 0.286628922076324, 0.29059971138117907, 0.29457421852974996, 0.29857587104784106, 0.3025746075385428, 0.30663256324128757, 0.3107129060955242, 0.3148180945537015, 0.3189461022929905, 0.3230890809442745, 0.3272621953086246, 0.3314360590706203, 0.3356529075337045, 0.33988838729601817, 0.3441232821844862, 0.3483970075977821, 0.35271966625134127, 0.35702096472743045, 0.36133924618987373, 0.36562676290442214, 0.36998246370874865, 0.3743446379528742, 0.3787241981950879, 0.38311424984847015, 0.3875296469600287, 0.3919369818755079, 0.39632230887474246, 0.40075178606201795, 0.4052100779957741, 0.40964807717628027, 0.414092044315623, 0.4185336798510088, 0.42298771765916526, 0.42744111882301156, 0.43190008573058347, 0.4363597055596894, 0.4408418276902065, 0.44529701767597174, 0.44975995722148954, 0.4542109251137134, 0.45865904360622245, 0.4631030639771707, 0.46754175064590503, 0.47194371249471895, 0.47637188458961127, 0.4807893878354767, 0.4851577264870716, 0.4895557522526389, 0.49399103122825233, 0.4983502299122526, 0.5026952048157199, 0.5070159933697445, 0.5113298876083139, 0.5156179746408879, 0.5198947790455727, 0.5241504213800039, 0.528340224503765, 0.532555735669393, 0.5367610639644306, 0.5409197931234677, 0.545050913974532, 0.5491735298705832, 0.5532438433250517, 0.5572497248902374, 0.5612640693408488, 0.5652444241957567, 0.5691818006092522, 0.5730923302390194, 0.5770030399193979, 0.5808331401705198, 0.5846260377915733, 0.5883489104382514, 0.5920674597545758, 0.5957418025610663, 0.599373776000719, 0.602960764006943, 0.6064990513593271, 0.6099932936971452, 0.6134868604189359, 0.6168774962072385, 0.6202204362783489, 0.6234592693938811, 0.6267094921703681, 0.6299107752016243, 0.6330494126642626, 0.636131644335735, 0.6391799742799145, 0.642143543178169, 0.6450471165339288, 0.647893809986525, 0.6506801074945846, 0.6533713910339485, 0.656037858200352, 0.6586790349380691, 0.6612086204184378, 0.6636733979482259, 0.6660394025275739, 0.6683754014398103, 0.6706354637118883, 0.6728316616039517, 0.674956099483671, 0.6770543206906635, 0.679027246347533, 0.6808765680635197, 0.6827123861034937, 0.6844718226739029, 0.6861656989612512, 0.687769197779298, 0.6893106269364766, 0.6907565178441188, 0.6921244348562805, 0.6933760568538518, 0.6945904636733454, 0.6957466742434604, 0.6967929809319935, 0.6977575264751811, 0.6986672010458658, 0.6994629852236629, 0.7001728106203455, 0.7008044838478534, 0.7013525536113555, 0.7017902622559328, 0.7021726361206104, 0.7024943751535817, 0.702699607752196, 0.7028189893535184, 0.7027964205740781, 0.7027498047032021, 0.702649838670966, 0.7024182310640997, 0.702098679830558, 0.7016581232787293, 0.7011662276420619, 0.7005866728445245, 0.6999138934187544, 0.6991511930952446, 0.6982799115801362, 0.6973400790051958, 0.6963531957385444, 0.6952268864301316, 0.6940129582855588, 0.6926697719790533, 0.6912856786174304, 0.6897981304210837, 0.6882360252396084, 0.6865838944597698, 0.6848925138672005, 0.683055458322774, 0.6811286486024078, 0.679120719175684, 0.6770270480508866, 0.6747948932391773, 0.6725371348885025, 0.6701854184865061, 0.667753349553646, 0.6652345575450404, 0.6626647078411625, 0.6599704689403181, 0.6571596653583557, 0.654305506703989, 0.6513681054066681, 0.648399264258733, 0.6452914979456879, 0.6420609996034028, 0.6388037347941947, 0.6354671028330575, 0.6320674547193048, 0.6285729445847811, 0.6250148250889636, 0.6213682775467639, 0.6176484419776892, 0.6138179089581027, 0.6099587766899884, 0.6060589183871462, 0.6020511364659357, 0.5979747099799736, 0.5938373114001465, 0.5896256894358108, 0.5853481395101043, 0.5810071044427363, 0.5766028473859227, 0.5720888692975271, 0.5675675150249299, 0.5630265679524601, 0.5583763737911841, 0.5536692317037235, 0.5489036634452925, 0.544086606242481, 0.5391732499601666, 0.534256144015156, 0.5292858917361892, 0.5243084472802261, 0.5192314147892453, 0.5140739290026088, 0.508911419662826, 0.5037039979209991, 0.4984405723327228, 0.49314986763772856, 0.48783655685037025, 0.4824638853409797, 0.4770549778921968, 0.47158055926746373, 0.4661077738230863, 0.460650670260435, 0.4551070190647848, 0.4495365033591069, 0.44393716919613635, 0.4383175737163785, 0.4326685078479614, 0.42700573910898765, 0.4213228732409108, 0.41560944998338245, 0.40989274633017425, 0.40418961676902276, 0.3984390716172728, 0.39267772216442504, 0.38684672266800296, 0.38107588479357923, 0.37530478191928174, 0.36951549868980327, 0.3637211332115513, 0.35793697795500057, 0.35213638065833686, 0.34633367841201984, 0.3405377018911076, 0.33474618234807746, 0.32894206314569713, 0.32316696171521564, 0.3174379136017146, 0.3116769209291416, 0.3058892873612552, 0.30016344253569777, 0.294452511427921, 0.28880658305158186, 0.2831248072535213, 0.27742043318689447, 0.27179173453617683, 0.2661861605708981, 0.26065505964210733, 0.2550946506184017, 0.2495351081203776, 0.2440418297644242, 0.23858041114604558, 0.23313897448378695, 0.22774754376830483, 0.22241924602397678, 0.2170972219547899, 0.2118155313481978, 0.2065466530776278, 0.20135318805912963, 0.1961922907247218, 0.19108686866663963, 0.186026518341957, 0.18104763281392663, 0.1760775732942945, 0.17116571335609085, 0.1662989224226871, 0.16148624811376133, 0.15668450437799777, 0.151988832893221, 0.14739757159394767, 0.1428066324517138, 0.1382760279605109, 0.13380732669610804, 0.12940000206352514, 0.12500814631930673, 0.12073385794716639, 0.11652172952405718, 0.11241323607450475, 0.10832403895298026, 0.10427736596004031, 0.10032814582070995, 0.09644700001920839, 0.09266771464261489, 0.08892133507112067, 0.08521002121056133, 0.08161415449629796, 0.07808988553442814, 0.07468162749581042, 0.07129751076110266, 0.06799382984289846, 0.06476237789286227, 0.06160825668369346, 0.058513674455114385, 0.055517425807202696, 0.05261449440336863, 0.049771103314912676, 0.04700668509507975, 0.044259140757539096, 0.04166127593627205, 0.03914225950023085, 0.03669708612014688, 0.034329540755536, 0.032040807739621105, 0.02982990394566127, 0.027714085807186137, 0.02565944527548737, 0.02368525262109115, 0.021778827216889816, 0.019967271410794938, 0.018285109923154286, 0.01662689772033827, 0.015051294133548429, 0.013518965438110802, 0.012112144405712632, 0.010770325325646955, 0.00952330713378259, 0.008354260715062425, 0.007312684048319327, 0.0062929227553616554, 0.0053145414221973785, 0.004459553678542452, 0.0036813136101803987, 0.0029580146732691753, 0.002334876664077536, 0.0018035226829160023, 0.0013265833127496939, 0.0009243048476959452, 0.0006148957346374537, 0.0003578429827918384, 0.0001411918459991922, 3.540089604995888e-05, 0.0, 8.200912214252604e-05, 0.00017958986190049517, 0.00029472577939559913, 0.0005403602458015079, 0.0008519789812763578, 0.0012302641220688676, 0.001671653476164115, 0.002197753982542604, 0.0027635567903710623, 0.003392777955410889, 0.004125244441415869, 0.004872916302618388, 0.005629422501541506, 0.006507360949707052, 0.007441890707859223, 0.008438077461936042, 0.009482087583382431, 0.010590073799467607, 0.011739534798090043, 0.012941219554213, 0.014197233724694584, 0.015499191698182457, 0.016859843492120937, 0.018256498338300575, 0.019699732048623592, 0.021201547896652802, 0.022732033159678713, 0.024348546804557933, 0.025958347210848918, 0.027610676960429733, 0.029332534859900866, 0.03106084857410927, 0.03279580132173528, 0.03460390143630688, 0.036445245417045274, 0.03834444539769231, 0.040244393977701555, 0.042241553904110864, 0.044191685373340506, 0.04617241844303554, 0.04815679981591654, 0.050195524086442504, 0.05228545441275544, 0.05436503785757612, 0.056465937210426864, 0.05861113936015551, 0.06074614866915381, 0.06297234795664124, 0.06513109203126342, 0.0673078210518184, 0.06947611022940091, 0.07168512030661528, 0.07394114431208579, 0.07616404186753635, 0.07839575191450869, 0.08068868178527537, 0.08292556640678053, 0.08521851762189066, 0.08745997794841906, 0.08970666860385108, 0.0919845163355628, 0.09423157118144913, 0.0965073443276025, 0.09874991973817188, 0.10099068911720772, 0.10326116659083981, 0.10548821240511921, 0.10768157299090263, 0.10989923011259715, 0.11210613410421577, 0.11437261217536249, 0.11654481258539223, 0.11872776833098726, 0.12087410860755314, 0.12300758086025435, 0.125118467067582, 0.12722233001224684, 0.1293678945037052, 0.1314270336954968, 0.13346913710357597, 0.13552414649603345, 0.13752362815714606, 0.13949548340285295, 0.1414553598151046, 0.1433924154140352, 0.14536315689127532, 0.1472439418659908, 0.1490905947230185, 0.15092601091473185, 0.15273550706550426, 0.15456434496738702, 0.15631326667153733, 0.158062310715718, 0.15975478412740673, 0.1614206281664472, 0.16307016266068863, 0.16467820351103812, 0.1662379517295796, 0.1677899260261827, 0.16931042171180286, 0.1708117155527141, 0.17226633189290494, 0.17376207860356702, 0.1751432039242022, 0.17649581771724376, 0.17782981962835373, 0.17912170559930785, 0.1803902877393785, 0.18162075808956096, 0.18282060259764119, 0.18397400841160613, 0.18511346825090574, 0.18625808686977663, 0.18732803956803468, 0.18833359819886003, 0.18934728621203725, 0.1903285842540854, 0.19127105776380596, 0.19218927316456363, 0.1931131945937483, 0.19396343375288772, 0.19478485491740483, 0.19557966383335243, 0.19634384195721397, 0.19711159260033684, 0.19781627190315912, 0.19849554915836257, 0.19910404415351096, 0.1997389763710948, 0.2003675751237733, 0.20094643754560504, 0.2015009438862099, 0.20201968060963224, 0.20252899706445304, 0.20305423003783124, 0.20351355315012568, 0.20395382010339722, 0.20435683961651419, 0.20476316297724526, 0.20512580769435768, 0.20549983325764404, 0.20585603088126564, 0.20620426209928458, 0.20652714040705816, 0.206866954829983, 0.20715920795539058, 0.20744145503497896, 0.2076756652488028, 0.20794541245088743, 0.2082022965016189, 0.20845472587162905, 0.20870001223500728, 0.20895420247392218, 0.20918722736969525, 0.2094030669889203, 0.20963424841878225, 0.209864508481632, 0.21012800386988775, 0.210356188305968, 0.21060798012006982, 0.210844500985184, 0.211089016604943, 0.21133040661704444, 0.21159532234751285, 0.21187656039809674, 0.21216245814259, 0.21246133902234593, 0.21276765837946005, 0.21309685358468353, 0.21338655748954116, 0.2137563624104791, 0.21414175065948424, 0.21455652496904318, 0.21497671136398014, 0.21542492257457646, 0.21588840264995227, 0.2163765510376346, 0.21687064832817762, 0.21741483470453332, 0.21797059532291596, 0.21857364523161182, 0.21920642421776831, 0.21991071684975977, 0.220602505365073, 0.22131674714677227, 0.22208448298682434, 0.2228901709584847, 0.22374910838316953, 0.22463256300053644, 0.22549200317565446, 0.22646961503052696, 0.22748797144027535, 0.2285486586732796, 0.22965319124195435, 0.23079832411059484, 0.23199542116078273, 0.23324025978613863, 0.2345421942530377, 0.2358853717209438, 0.23731000295057852, 0.23875445124050035, 0.2402546459696596, 0.24181806440942336, 0.24343121852233804, 0.24508268386818385, 0.246815922253238, 0.2486078423623623, 0.25040431957667947, 0.25232306496226264, 0.25434611711870264, 0.256376316828685, 0.2584694834069495, 0.26061757003100844, 0.26283974907294294, 0.2651276680415695, 0.2674791305884749, 0.2698963399383665, 0.2723295877502892, 0.2748863239226241, 0.2775196585062943, 0.2802048021999437, 0.282956810319113, 0.28574612439743374, 0.2886374385376938, 0.29158617782926954, 0.29461296917566354, 0.2977072977726628, 0.30090795433636336, 0.30413417771768225, 0.3074315696266273, 0.3108001618460613, 0.3142399534847734, 0.317711358533971, 0.32129841708217505, 0.32493280512966766, 0.3286603262610682, 0.3324557265191183, 0.3363051464293768, 0.3402386541581932, 0.34423294862729187, 0.34830237257280766, 0.35243899957635455, 0.35665554118027565, 0.3609248040451649, 0.36529116182614724, 0.36969153063473237, 0.37416037592084983, 0.3786869357283997, 0.3832918657343348, 0.387904202167837, 0.39264727507493513, 0.3974513896872802, 0.4023444138404512, 0.407266096479845, 0.41225262206077656, 0.4172960937975705, 0.4223996603225347, 0.42753226808103933, 0.43275714021719724, 0.4380369683205829, 0.44337241999846044, 0.44876187865929146, 0.4542004415552554, 0.4596957222886945, 0.46523861705245123, 0.470835237875166, 0.47648055153614755, 0.48212050451479793, 0.4878665685377943, 0.49366631797131144, 0.49949470491235315, 0.5053642960314575, 0.5112786930810985, 0.5172267557289191, 0.5232107950475747, 0.5292337620695078, 0.5352919013897239, 0.5413281622900491, 0.5474594076487233, 0.5536525279558299, 0.5598337287077397, 0.5660422551871985, 0.5722142159413593, 0.5784805950831212, 0.5847573198930357, 0.591061755372442, 0.5973823319310609, 0.6036969860600484, 0.6100485386695893, 0.6164277226779796, 0.6227975432743922, 0.6291763764873652, 0.6355545218871763, 0.641947376471888, 0.6483027763804705, 0.6547059430268615, 0.6611067355204427, 0.6675438820673407, 0.6739302790264543, 0.6802930806089861, 0.6866701757583834, 0.6930373268974306, 0.6993597841770625, 0.7057054689082877, 0.7120235257928705, 0.7183336267931986, 0.7246221190357084, 0.73084705471706, 0.7370921918427927, 0.7433396563312353, 0.7495209189882895, 0.7556716389043319, 0.7617650949925574, 0.7678520914838901, 0.7738597729753882, 0.7798747469193742, 0.7858460502134094, 0.7917721746867012, 0.7976515453106332, 0.8034751548635305, 0.8092570012888712, 0.8149873093595422, 0.8206629522103704, 0.8262829848161016, 0.8318630640561243, 0.837364330008512, 0.8427707207024144, 0.8481543965214448, 0.8534721756264613, 0.8587297659178907, 0.8639097992726082, 0.8689602994327914, 0.8740049395399158, 0.8789721838925141, 0.8838567164587303, 0.8886657452727136, 0.893380388525884, 0.8980263406528939, 0.9025871167849799, 0.9070794726557598, 0.9114635435923252, 0.9157787762844505, 0.9199822688769411, 0.9240954571139933, 0.9280542954156432, 0.9319896910943147, 0.9358370108227932, 0.9395723506635328, 0.9432072736419322, 0.9467412238514854, 0.9501715476516861, 0.9535219464279829, 0.9567398780558318, 0.9598526709903898, 0.9628535726409676, 0.9657526405763805, 0.968493961860145, 0.9711789579763107, 0.97374937204668, 0.9762393138682492, 0.9785738983197068, 0.9807640923930308, 0.9828715815883657, 0.9848604883185834, 0.9867005994253719, 0.9884539352950296, 0.990135207118304, 0.9916370719646436, 0.9930185525899038, 0.9942184747786825, 0.9953643501511182, 0.9964357171093035, 0.9973226164450725, 0.9980858904595927, 0.998698777029553, 0.9992163093407732, 0.9995775646475379, 0.9998450220017892, 0.9999835827274441, 1.0, 0.999880069560361, 0.9996612731655694, 0.9992809015158741, 0.9987738711946688, 0.998119221865967, 0.997361022003126, 0.9964907172042234, 0.9954742484983362, 0.9943308290626647, 0.9930719474111811, 0.9916735134850894, 0.9901277473516085, 0.9884804203780775, 0.9867063802402272, 0.9848235055965588, 0.9827952186585535, 0.9805910355207, 0.9783211433293715, 0.9759249764849395, 0.9734021409481597, 0.970756436070336, 0.9679925929996729, 0.9651001806568547, 0.9620865247865893, 0.9589633054271647, 0.955708689486753, 0.9523115556148922, 0.9488255853694976, 0.9452224203006223, 0.9415093041421929, 0.9376746298237632, 0.9337596185307419, 0.9296956256592819, 0.9255227281004872, 0.9212358859818534, 0.9168489825868573, 0.912358675670473, 0.9077604780400955, 0.9030588227669182, 0.8982657220329382, 0.8933597003336298, 0.8883139266286941, 0.8832166932163056, 0.8780210289545927, 0.8727729453130539, 0.8673801305805815, 0.8618624993424052, 0.8562941891819881, 0.8506362599728862, 0.8448684068272334, 0.8390395046092339, 0.8331815519363268, 0.8271768459774943, 0.821094014579412, 0.8149198885689701, 0.8086874633880881, 0.8023467934151116, 0.7959724311331623, 0.7895258254067677, 0.7830198847955914, 0.7764339753248662, 0.7697561341629203, 0.7630454596142485, 0.7562723255513688, 0.7494497655918525, 0.7425572595682259, 0.7356245117939992, 0.7286223318338614, 0.721570330186309, 0.7144879871788481, 0.7073403041791025, 0.7001204750325548, 0.6928931742062675, 0.6856255002997657, 0.6783029374492601, 0.6709633617589288, 0.6636059462424095, 0.6561974150750756, 0.6487599282773935, 0.6413285210789411, 0.633835527855679, 0.6263186258621051, 0.6187868604121791, 0.6112382158304772, 0.6036163706547186, 0.5960473672614679, 0.5884636028935951, 0.5808690240842022, 0.5732653121461257, 0.5657065223376004, 0.5580852836031105, 0.5504515871599723, 0.5428358482088463, 0.5352241334143203, 0.5276124532576121, 0.5200156791984811, 0.5124267031916393, 0.5048518831261439, 0.4972909093964434, 0.4897103231239748, 0.48218773224703043, 0.4747320961977532, 0.46724165787962724, 0.459776542220833, 0.45233721759477297, 0.4449283451033703, 0.43753875120853053, 0.4301944852436784, 0.42288387813679773, 0.41559206048700925, 0.4083565379663865, 0.40115263177657423, 0.3939965520984996, 0.3868822848447961, 0.3798338798109803, 0.3728061757790387, 0.36582784103764493, 0.3588990656207914, 0.3520222378461806, 0.3451513294857885, 0.33838910005698886, 0.33166737962253906, 0.32501656126970185, 0.31842259953618396, 0.31193762178570555, 0.30545648335065545, 0.2989867063862752, 0.2926435534451217, 0.28636480663426456, 0.2801949863738502, 0.2740444014611112, 0.2679505133982984, 0.26194574558938083, 0.2560136987473624, 0.25015148913516816, 0.24436877094614032, 0.23862833215131826, 0.23300250785944387, 0.22748552618889126, 0.22200878295384904, 0.21661229686419448, 0.21126673997312845, 0.2060370663996704, 0.20090647341565357, 0.19583745160148408, 0.19085232109101122, 0.18597927599263775, 0.18116053729614515, 0.1764030907901706, 0.17176289851926013, 0.16720939709538088, 0.1627531926377186, 0.15837341020814247, 0.1540354805853639, 0.1498395343656803, 0.14573039060944348, 0.14174222682652854, 0.1378043463638206, 0.13395756306464282, 0.1302006164304504, 0.12653443054014948, 0.12297719797380946, 0.11949048883547408, 0.11606221499846947, 0.11276350047209928, 0.10955453947672812, 0.10640726092282948, 0.10338156976440288, 0.1004937606613074, 0.0976385050129722, 0.09487455294649383, 0.09219146466416123, 0.08961022164965787, 0.08707158555799831, 0.0846749841014208, 0.0823645334992111, 0.08014957525204396, 0.0780100305335145, 0.07595077026160456, 0.07398428579148546, 0.07210304865982224, 0.07035828100911866, 0.06863976453572941, 0.06700803718289002, 0.06546212955604731, 0.06400107701908513, 0.06257967183241143, 0.061291035950575376, 0.060123445325560375, 0.05898790358148377, 0.05793289852090719, 0.05695202208691111, 0.0560556303512088, 0.0552269429225639, 0.05448490115221225, 0.0538173774341309, 0.053183852217959744, 0.052667441046962346, 0.05225923933848957, 0.051875848493804944, 0.05156246959467118, 0.05132800960252629, 0.05114992289822368, 0.051032890936434275, 0.05098847225349394, 0.05100825715380535, 0.0510494511554829, 0.05119919485271372, 0.05142451332871126, 0.05168741243132689, 0.05200752109608386, 0.052404449819926535, 0.052832809042393195, 0.053286454541492015, 0.05382669619249646, 0.05441723836263673, 0.055085729778603695, 0.05576966458876899, 0.05645630967713351, 0.05724110763986077, 0.058068662777668395, 0.05891975857739734, 0.05983172702323329, 0.06083627022824391, 0.0618168388193899, 0.06283651764810445, 0.06383872711927548, 0.06493876833241279, 0.0661082693897982, 0.06726485474962843, 0.06845255051950802, 0.06967454435116689, 0.07091935874498712, 0.07214144242108024, 0.07344476096111605, 0.07476913790116686, 0.07617179511927388, 0.07752757262521219, 0.07884125292432684, 0.08024516575604944, 0.08166315480046446, 0.08312294838492137, 0.08456211791983548, 0.0859954928527424, 0.08746014750702093, 0.08893327096841398, 0.09045182389947214, 0.09193329260718688, 0.0933833892546905, 0.09488179520576139, 0.09638178657983863, 0.09788351081644082, 0.09938291958340215, 0.10086565102276845, 0.10236185734397867, 0.10385289197054053, 0.10537521456998664, 0.10684790629532119, 0.10827270424818965, 0.10973659305479581, 0.11118906088418852, 0.1126720223858525, 0.11409324783939498, 0.11548772659199287, 0.11688547547552135, 0.11826775353576904, 0.11965688542794627, 0.12100186543311048, 0.12227505331157526, 0.12359066795072882, 0.12488329562262336, 0.12620383937509558, 0.1274418078144671, 0.12861527780362078, 0.12981290726435948, 0.13098365259682304, 0.13216501429030497, 0.13327503027025844, 0.13429718256071432, 0.1353601939966128, 0.13639097042360565, 0.13743803329233528, 0.13839688559656077, 0.13929344475949074, 0.1401938613763323, 0.14106006929836537, 0.14187546789703873, 0.1426737668518086, 0.14347701079494882, 0.14419646567483865, 0.1448809290149542, 0.1455370872889426, 0.14614861645981778, 0.1467015139370911, 0.14724220370549712, 0.1477439532813536, 0.1482204925030082, 0.1486415583781412, 0.14903824218436815, 0.14937878605963706, 0.14968027108054588, 0.14989532745806328, 0.1501233478946905, 0.15033530632904335, 0.1504742554356095, 0.1505719750066168, 0.15064306513740663, 0.15065604322617046, 0.15064099334565975, 0.1505706445305075, 0.1504599143983168, 0.15025965684691242, 0.1500737771697405, 0.14985635934834313, 0.1495820708900365, 0.14926550192397406, 0.14892765355046303, 0.14852456398723513, 0.14811523936581453, 0.14762706394138458, 0.14710058873895873, 0.14653569140260359, 0.1459323149520987, 0.14529113366753435, 0.14461078262913205, 0.14389216805551916, 0.14316695532006668, 0.14236834886073327, 0.1414889408756453, 0.14062427680039502, 0.13972134574378836, 0.1388544191420541, 0.13786723261556857, 0.13686765947039992, 0.13581291250734193, 0.1347268404552017, 0.1336054048444134, 0.13245723563189402, 0.13131729039387724, 0.13010173435119837, 0.12885767843551515, 0.12755101331176028, 0.12625461522569165, 0.12499132883457308, 0.12362776663672444, 0.12223105193887394, 0.12081846473784107, 0.1193807574963305, 0.11798806339111403, 0.11649260803912484, 0.11497469827452991, 0.11344007058183081, 0.11188570629645632, 0.11033132660116954, 0.10873596390510128, 0.10717602431079447, 0.10553926487240795, 0.10388877340064842, 0.10225415673316864, 0.100572922610776, 0.09891649248907267, 0.09720808648186184, 0.0954908278482316, 0.09377221642508433, 0.09203682439047993, 0.09036748069302628, 0.08860778548684398, 0.08684544785560719, 0.08509990641354982, 0.08332996722703775, 0.08155085458601022, 0.0797799144302098, 0.07800799605383796, 0.07627652848254676, 0.07449917781204715, 0.07275248818541465, 0.07097845054117367, 0.06921010405075737, 0.06751823987064642, 0.0657536814422035, 0.06401233001439653, 0.062268632942376195, 0.06053710539652542, 0.05880729189133532, 0.05710239091575694, 0.05543769876428318, 0.05375544149826484, 0.05208886399253983, 0.0504553052766889, 0.04881978412525583, 0.047226306843195266, 0.045625626256201396, 0.04404620066089636, 0.04253486515357569, 0.040993907918135154, 0.03948343292808209, 0.037993852030851365, 0.03653119507013723, 0.0351221279111312, 0.03371164820307459, 0.03233736259529161, 0.030986939502752334, 0.02966808277579982, 0.028429641318891894, 0.027169616625568604, 0.025928346670168183, 0.024743237340106496, 0.02359410136435536, 0.022494982546544837, 0.02141805050788163, 0.020422781904446883, 0.01941858229012354, 0.01845686560167043, 0.017499782992701964, 0.016629020064244406, 0.015848145389999985, 0.015055366516475844, 0.014308611789892779, 0.013574153205876556, 0.012925199517251358, 0.012333931500788476, 0.011775540961375834, 0.011265140414102287, 0.010822235729525011, 0.010407647087042296, 0.010030896293400086, 0.009721069677566896, 0.009462899013244845, 0.009287924477171609, 0.009131265592423462, 0.009052195618420753, 0.0090040960272692, 0.00901356989718914, 0.009082235903271995, 0.00920755329723244, 0.009390774513221761, 0.009633673640860754, 0.009935825403351747, 0.010294935891558466, 0.01071710511536516, 0.011141913820991676, 0.011692387136010675, 0.0123007750708784, 0.01297265745364307, 0.013698879064838031, 0.014540053965025843, 0.015381384490992873, 0.016287706811309803, 0.017254468684587503, 0.018291800716282114, 0.01937956555993237, 0.02054932873503044, 0.021783851945199537, 0.023060660085429188, 0.024428519337908454, 0.02586544691235163, 0.02736190620509837, 0.02892384620870977, 0.03057035935724583, 0.03226181926003973, 0.03397375298205087, 0.03580602214057524, 0.03770319702408513, 0.03970928220618624, 0.04173198947399055, 0.04382785772785227, 0.04598682359564871, 0.04821434782901629, 0.050463372231199205, 0.0528335506890929, 0.055253834748768514, 0.05775724829385549, 0.06032574201347269, 0.0629703012757449, 0.06566831572168186, 0.06841182902847044, 0.07124503478701119, 0.07414332111935223, 0.07715236903045226, 0.08017528337138341, 0.08325925882292438, 0.08641812806677202, 0.08964354316054708, 0.09292910523447823, 0.09628727161834814, 0.09970851635079167, 0.10319677658453712, 0.10674932009838467, 0.11031886791035567, 0.11400483818300744, 0.11773928538723984, 0.1215478450664501, 0.1254161607270334, 0.12938440765902604, 0.13336694110281735, 0.13738836056316836, 0.14149658158333867, 0.14566408665159067, 0.14986165801626927, 0.15415016820299232, 0.1585225572871313, 0.16292012432718164, 0.16737506215485556, 0.17187740218670206, 0.1764464984064911, 0.18106325544311772, 0.18574278904714953, 0.19047578725333425, 0.1952241515489048, 0.20006712360679763, 0.20500997086387784, 0.20994543783058292, 0.21493257898744644, 0.2199289667314221, 0.22502211796815888, 0.23018078385446716, 0.2353645130142848, 0.2405949217498986, 0.24584643296553244, 0.2511709992931958, 0.2565599311146571, 0.26196698498304205, 0.26741686267048537, 0.2728912582198655, 0.27842634690252926, 0.2839523490319396, 0.2895711310838806, 0.29522481423788793, 0.3009096088633719, 0.30663213266450146, 0.3124220357650861, 0.31820600818397277, 0.32402381558745874, 0.32981279055396295, 0.3357030761594571, 0.34166764737812644, 0.3476061850509951, 0.3535735792774936, 0.35951448386725954, 0.36554330974307736, 0.3715840495659972, 0.37765887167158546, 0.38375438904826475, 0.38986925822462426, 0.39600416998397403, 0.40216826747894163, 0.40833790770637335, 0.41452958779929605, 0.42073232264746885, 0.4269506298878161, 0.4332001773354921, 0.43944422020847423, 0.44564045325774654, 0.4519173337128589, 0.4582014610048911, 0.4645316259240629, 0.4708229063618727, 0.47710713291877066, 0.4834130158132248, 0.48972268200391267, 0.4960095465299759, 0.5023266566650658, 0.5086239832029598, 0.5149405031348535, 0.5212530480797718, 0.5275487016463106, 0.5338522290006258, 0.5401692080605416, 0.5464545751068723, 0.5527319903989311, 0.5589379875739718, 0.5652040066430458, 0.5714390860228399, 0.5776767849914419, 0.5838973539220891, 0.5901128739064547, 0.5962955324499578, 0.602433456301309, 0.6085812915214036, 0.6147071338787005, 0.6207987786178627, 0.6268795976681262, 0.6329506235739462, 0.6389782104284137, 0.6449796860026455, 0.6509372199491744, 0.6568853595390762, 0.6627937927746768, 0.6686814908446163, 0.674536341594373, 0.6803681101777447, 0.6861529987522935, 0.6918932927671005, 0.6976078298728625, 0.7032843859060165, 0.7088535282571463, 0.7144595958842483, 0.7200233348540995, 0.7255385132470883, 0.7310077001352164, 0.736428867630247, 0.7418041266409453, 0.7471237311976623, 0.7524025468833974, 0.7576310027497175, 0.7627687249991636, 0.7678989659226093, 0.7730008864623581, 0.7780168797389813, 0.782978012851964, 0.7878230421639376, 0.7926793393553582, 0.7975074657904466, 0.8022371080447318, 0.8069065828287812, 0.8114955986038935, 0.8160446282653516, 0.8205378459090585, 0.8249574119889299, 0.8293120811675141, 0.8335265972011248, 0.8377583413622618, 0.8419265037178479, 0.8460137161822238, 0.8500291560934459, 0.8539864364413886, 0.8578551084013802, 0.861598306466412, 0.8653279464773701, 0.86898068484866, 0.8725408031220816, 0.87604072919243, 0.8795161201559807, 0.8828511788462405, 0.8861097383511318, 0.889223228904734, 0.8923347850408769, 0.895353456600355, 0.8983003653230595, 0.9011633115019975, 0.9039916364216172, 0.9066795412613303, 0.9092203179428536, 0.9117514685382611, 0.9141953463820999, 0.9165644892363717, 0.9188315742454275, 0.9210288243417208, 0.9231187782067841, 0.925121642648214, 0.9269798860518179, 0.9288141457443961, 0.930594733927676, 0.9322403583291626, 0.9337961327245938, 0.9352247746922122, 0.9366042902889312, 0.9379020909806257, 0.9390938726990253, 0.9401930231881654, 0.9411510793859337, 0.9420704844671389, 0.942896649459194, 0.9436240747064724, 0.9442560935332435, 0.944792142687735, 0.9452337299669303, 0.9455734214199845, 0.9458255254599902, 0.9459821563406248, 0.9460574806806678, 0.94602164076042, 0.9459221943606906, 0.9456935236063457, 0.945372066818418, 0.9449193515939509, 0.9444164205497326, 0.9438487575974202, 0.9431509743932974, 0.9423597290720813, 0.9414528491449411, 0.9404773668732694, 0.9393830154855313, 0.9382213571414498, 0.9369641092699007, 0.9356479384277648, 0.9341963239254335, 0.9326069418349637, 0.9309768873866668, 0.9292524482521516, 0.9274375737220665, 0.9255257221321701, 0.9235643398120083, 0.9214627393969411, 0.919272205743121, 0.916941325969277, 0.9145801204791624, 0.9121171208342418, 0.9095758946081021, 0.9069445066192461, 0.9042800973829775, 0.9014637364015204, 0.8985051657822879, 0.895527322823484, 0.892462422721969, 0.8893549452183398, 0.886113124339146, 0.8827511628762877, 0.8793508446954451, 0.8758675513291287, 0.8723471133343845, 0.8686949341928178, 0.8649134244124053, 0.8611129057083753, 0.8572329402395291, 0.8532819684107869, 0.849245367575906, 0.8451697818840666, 0.8409777977144597, 0.836714013968749, 0.8323261782973612, 0.8279276602945825, 0.8234700344542455, 0.8189260511944575, 0.8143128114718328, 0.8096361334439184, 0.8048871675772395, 0.8000893567782075, 0.7952081650143279, 0.7902645250291708, 0.7852151821334397, 0.7801552401424401, 0.7750401263622292, 0.7698570128268931, 0.7646152346330143, 0.7593100950415793, 0.7539557530724245, 0.7485403640632189, 0.7430781259490119, 0.7375632634914586, 0.7319931558910708, 0.7263777467998649, 0.720711650041527, 0.7150005490349587, 0.7092434629113061, 0.7034987803590418, 0.6976467302257967, 0.6917420124029082, 0.6858154933915424, 0.6798494982439853, 0.6738494504664639, 0.6678141500337383, 0.6616945414922505, 0.6555987868849821, 0.6494780839088377, 0.6433141695206371, 0.6371198052065703, 0.6308891756838549, 0.6246395045118742, 0.618368292256954, 0.612067134914638, 0.6057431376283723, 0.5994340022079513, 0.5930642409894209, 0.5866305476272373, 0.5802353164388324, 0.573823471291759, 0.5674267978164541, 0.5609827412393746, 0.5545191622696598, 0.5480573269380892, 0.5415874565422923, 0.5350982192189848, 0.5286181045703296, 0.5221502130285078, 0.5156604107245705, 0.5091700065037035, 0.5026515150515104, 0.49616757863935745, 0.4897095891893885, 0.4832278080957916, 0.4767523271528028, 0.4702777744882759, 0.46381973680243554, 0.4573883761067052, 0.4509494361552601, 0.4445241085007518, 0.43807675008985997, 0.4316869996354009, 0.42528567929375916, 0.4189313491353209, 0.412593802096687, 0.40628209813922916, 0.3999821839612422, 0.3937043534993701, 0.3874500709052432, 0.38122076115780107, 0.3750017233623988, 0.36882852396423543, 0.3626854690663331, 0.35656970212324557, 0.3504849764116803, 0.3444406533102775, 0.3384209060265302, 0.33242978846273213, 0.32648270278110986, 0.32057284508371214, 0.3147469568372934, 0.30890922968648493, 0.3030630529790229, 0.297318900767135, 0.2916164591811933, 0.2859555485341721, 0.28034014312624805, 0.2747771189442081, 0.2692518590683229, 0.26377411378239846, 0.25832403924922454, 0.2529467408825137, 0.24764467850094316, 0.24236329130564907, 0.23713448859356032, 0.23197778135419087, 0.22685398237646767, 0.22177259560826695, 0.2167626807930075, 0.21180893586561214, 0.20688520812878225, 0.20204916709941434, 0.19728582479695153, 0.19256180192512928, 0.18789691507196501, 0.1832602758553531, 0.17871948005405952, 0.17425661085434915, 0.1698325557869591, 0.1654702596971463, 0.16115484844136868, 0.1569196234103044, 0.15276225443411653, 0.14865053408559595, 0.14460323201055097, 0.1406569194182057, 0.1367349642817757, 0.1328791577689867, 0.12909235888100615, 0.1253730027236736, 0.12171107430386742, 0.11812800214032979, 0.11456970832008995, 0.11112612893928593, 0.10774743464951816, 0.10444881413535632, 0.10119928880125707, 0.09800187994047259, 0.0948881081799883, 0.09184065783909513, 0.08891873362192394, 0.08599705402622412, 0.0830891913357015, 0.08031449477381301, 0.077605995981236, 0.074971160966689, 0.07239435618685415, 0.06992184849441131, 0.06747371407598489, 0.06509422281081736, 0.06274872872821882, 0.060509485915764764, 0.05836377759455845, 0.05625156830613457, 0.05420595817261007, 0.052234537985698895, 0.050319745532017075, 0.0484578971374475, 0.046675548353065345, 0.04495710867869604, 0.04331824132150861, 0.04172429283129732, 0.04019383361860892, 0.03872626293381103, 0.03732098041464899, 0.03598140666274615, 0.034698383956360296, 0.03346600432375401, 0.03230500396672338, 0.031202842064689925, 0.030169001897392966, 0.029181512958398017, 0.028217474351973384, 0.02734888882785853, 0.026534620813693992, 0.025817138891024168, 0.025104732474982665, 0.02443153424370923, 0.023830860956058946, 0.02328279965283748, 0.022762466618729896, 0.02232042027003842, 0.02196489132354998, 0.02161546271776423, 0.021315907399618705, 0.02103175054306755, 0.02083332046638707, 0.020701489295198303, 0.02058997274726764, 0.020523442267502336, 0.020464800202070352, 0.020490123874168754, 0.020546983507117877, 0.020653292058163023, 0.02079808405240578, 0.02102296709235259, 0.021237464190640903, 0.021501538608331948, 0.02179130068583629, 0.022118364380614687, 0.0224286228393767, 0.022833565593529, 0.02331302966825326, 0.023773688463176863, 0.02426636638577104, 0.02475980630979782, 0.025317079686711735, 0.025896083398602873, 0.026507409354152772, 0.027143883035137775, 0.027801345407426487, 0.028486095879340475, 0.029236228337856565, 0.02995967317682429, 0.03070631433300999, 0.03142667136438475, 0.03222219919035505, 0.03302594834006483, 0.03385570894977426, 0.03470040900678859, 0.035551286601307575, 0.036424703515215436, 0.03733451207193509, 0.03822866929569016, 0.03913496531038902, 0.040061820149646175, 0.04098831663401187, 0.041939348342772007, 0.042882531623119856, 0.04383430218699297, 0.044753329885135314, 0.04572406987473781, 0.046728746371598906, 0.047701088587465475, 0.04867685319061607, 0.0496611037670735, 0.05064006250595679, 0.05156027308844583, 0.05254765171397006, 0.05356154945434007, 0.054535965567625556, 0.05550690444155481, 0.05644278616923624, 0.05740844620166894, 0.0583700350359795, 0.059319944363028385, 0.06026163312790822, 0.06120527529525007, 0.06212749689630695, 0.06305716582893896, 0.06395797418666133, 0.06484907701942157, 0.06570554859288785, 0.06657794055386139, 0.06741819929270408, 0.06826571359720235, 0.06909775878591984, 0.06991932214590892, 0.07071860723771603, 0.07152568470421107, 0.072288777364363, 0.07303596495056802, 0.07378201291881033, 0.07449350735333782, 0.07516461759733929, 0.07584453751991992, 0.0765048608059821, 0.07712638383591375, 0.07774860106784719, 0.07836164516374182, 0.07893818847481142, 0.07949304624330572, 0.08005201126321362, 0.08055914825014225, 0.08104705951208596, 0.08151094517902127, 0.08195270042536784, 0.0823698528716347, 0.08276625596767063, 0.08313981475465261, 0.08348876704964783, 0.08381359944498938, 0.08412341482520543, 0.0843980018324438, 0.0846153836231626, 0.08484513460503097, 0.08504816692161553, 0.08524196441532048, 0.0853895149465093, 0.08553695579540964, 0.08563002845196532, 0.08569878905625036, 0.08572086024450842, 0.0857430735458066, 0.08575853891032806, 0.08572596238920746, 0.08566839435504797, 0.08556899278987902, 0.08546334627489528, 0.08534971726229161, 0.08518976157720855, 0.08500503958206658, 0.08482439864546745, 0.08458659097643707, 0.08438812833746233, 0.08409630831886364, 0.08378478320165283, 0.08347313776361688, 0.08311818742792285, 0.08272797600018196, 0.0823348981391366, 0.08192042933552335, 0.081515332494562, 0.08105402707437688, 0.08057102488101632, 0.08007046651475602, 0.07954991931206097, 0.07909321680498228, 0.0785222688763182, 0.07791286733083204, 0.07731444431238396, 0.07669892288868006, 0.0761105251046678, 0.07545522618993099, 0.07480291336621454, 0.07411636898869961, 0.07341615508391795, 0.07277457642568025, 0.07203768088150726, 0.07126235620114298, 0.0705094944656414, 0.06974474550210695, 0.06903457706933415, 0.06823804902235701, 0.06746675846613721, 0.06665065443992033, 0.06582850940056222, 0.06499875884375955, 0.06416416376140276, 0.06338819491544873, 0.0625327223889925, 0.06167488355966204, 0.060818499183175084, 0.059954951741851434, 0.05912659695879823, 0.05825373905883958, 0.05738100648826427, 0.056531882482126136, 0.05565660834849015, 0.054781156078836185, 0.05390993944012647, 0.05304081920440297, 0.052245200952656064, 0.05137240083705472, 0.05053911969587638, 0.0496769088828593, 0.048823919354557176, 0.04800088003913798, 0.047163673628315674, 0.04631426910392647, 0.045501252333638414, 0.04469789455776112, 0.04392011739646331, 0.0431356963601537, 0.04240504282321361, 0.0416403081538399, 0.04089123040008579, 0.04019765958795863, 0.03947586688161281, 0.03875229050533226, 0.03807131113980156, 0.037408633934198285, 0.036778194728292087, 0.03615206045465919, 0.03555609128773476, 0.03497087709614371, 0.034408106884847585, 0.033913918078237806, 0.0333919664822229, 0.03285991478966331, 0.032396454528248915, 0.03195833993127704, 0.03158181400304585, 0.03119205181513637, 0.03084119492707304, 0.03050974833958915, 0.030209314093372346, 0.02991823233316183, 0.029684046966504972, 0.029545488013222786, 0.029366445339583432, 0.029223766243470714, 0.029119685575185742, 0.029050212129846084, 0.02897582924120485, 0.028986714541285607, 0.02903333514980194, 0.029111114683218333, 0.029232232131417894, 0.029425967270340594, 0.029618984421602004, 0.029853279792141144, 0.030151448904137606, 0.03046693797195637, 0.030780152879575206, 0.031189787465625077, 0.03164150205328349, 0.032195047554382406, 0.03272570902429687, 0.03326842591514238, 0.033898958785189545, 0.03457553375100115, 0.035294686867046704, 0.03606551960331106, 0.03691800245014993, 0.037779992184196504, 0.038692462713033136, 0.03966304039191936, 0.040676314799770526, 0.04173861009933558, 0.042855866224790755, 0.04402516634621858, 0.04518646485043112, 0.04646835511008195, 0.04781721871869598, 0.04919677995725333, 0.05062837886623495, 0.052090424922492926, 0.05363045769366875, 0.05522009832117814, 0.056865659029032664, 0.05856452659792638, 0.06032594665112226, 0.062131869830690134, 0.06398097276622856, 0.06589924044968158, 0.0678726980259813, 0.0699010381216814, 0.07198600982094153, 0.07415191121670839, 0.07634625548431204, 0.07861737045536416, 0.08092533598450094, 0.08329233996025569, 0.08567933479142956, 0.08816884856806967, 0.09072615532719207, 0.09332719975979793, 0.09598560473018469, 0.09871413074242466, 0.10148569807412829, 0.10426373745872548, 0.10715788221134627, 0.1101069525406437, 0.11315479595649913, 0.11620896810458252, 0.11932048973413584, 0.12249054774270338, 0.1257181080418165, 0.12894259645984857, 0.13229206502935925, 0.13573245439259893, 0.13918416107551101, 0.14269173799327098, 0.14623955975731148, 0.14986018623782488, 0.1535465331660935, 0.15727422417487721, 0.1610565599112311, 0.16488787740860852, 0.16877926228335244, 0.1727233653389998, 0.17672130098628694, 0.18077194294797067, 0.1848159478921992, 0.18897839095541036, 0.19320185402541318, 0.19745931437325442, 0.20176581871362795, 0.20610240631418558, 0.2105087485998483, 0.21497911520354446, 0.21947768104931908, 0.22402401784041737, 0.2285908725293427, 0.23323479408105582, 0.23791686408932275, 0.24265101990368337, 0.24742896177369542, 0.25225032185274865, 0.25711468010699456, 0.2620148649181298, 0.2669646200388183, 0.27195546627099554, 0.2769754727946033, 0.28204829892976874, 0.28718801226062624, 0.29233418722986004, 0.29751952452884317, 0.3027062929145914, 0.3079720291165842, 0.3133091281363508, 0.31863860221600726, 0.32400342692946565, 0.32938051768082854, 0.3348159560098554, 0.3402430678098367, 0.34574517672885036, 0.3512747045709448, 0.35682578032891293, 0.36240924145015874, 0.36804628158365904, 0.3736764028208072, 0.37933222605477734, 0.38500073786196803, 0.390706638506397, 0.39639580512669537, 0.40215003356113566, 0.40792243662096406, 0.4137593268539129, 0.41956024627918553, 0.42532298336000895, 0.4311675612453209