0.025374702119480497, 0.024946562004053, 0.02455092063119918, 0.024243282427636608, 0.02397107853975451, 0.023746600167427, 0.023553663839558762, 0.0233815359511076, 0.023238689169898616, 0.023063632278521456, 0.022962012705980767, 0.02287927265640074, 0.022796618255445506, 0.02272251611521381, 0.022620554841299947, 0.022565570454882257, 0.022504829351434514, 0.022460432765263737, 0.02242036686125539, 0.022421299439635032, 0.022386702224567304, 0.022300123694940825, 0.022289299766983656, 0.022283843793804353, 0.02231433126689955, 0.02231885325174828, 0.022297133270955165, 0.02232694780021033, 0.022366180966054573, 0.022426214326264623, 0.022486023877276325, 0.02249594770009191, 0.022590476113800283, 0.022696077937292874, 0.022845827659903013, 0.022973292836230914, 0.023043225774151382, 0.023213637178637586, 0.023397798004760023, 0.023612511988323037, 0.023825920302518185, 0.02407076002665597, 0.024319571528285986, 0.024588872729859056, 0.024828247420640496, 0.025146763295519254, 0.02544467668689742, 0.025807806639641592, 0.026189754906843988, 0.026613039765638467, 0.02703302830905246, 0.02745894874815287, 0.027927589566211077, 0.0284194073228064, 0.028933584668111974, 0.029473872375453708, 0.030016154390593398, 0.030609704469841334, 0.03122790252109766, 0.03182110427487173, 0.03249682923055912, 0.033239789202827066, 0.033958121892494295, 0.0347042543785084, 0.03545862970157337, 0.0362640944223476, 0.037095192512917555, 0.0379571631298816, 0.03884787513052977, 0.03971900737215946, 0.0406748056229557, 0.04166391196212459, 0.04267456526126384, 0.043714518281836603, 0.044731921773483736, 0.04583903409685886, 0.04700392117409505, 0.04816464867640691, 0.04935708077248333, 0.05054333912631342, 0.0518057337279034, 0.0530963441424874, 0.05442225430685026, 0.05578069914326855, 0.05716942290245917, 0.05859536632434951, 0.060093350642081364, 0.0615837678275466, 0.06311176662016736, 0.06461544179398426, 0.06622710045959453, 0.06791270353901978, 0.0695896401078235, 0.07130493245674699, 0.0730108220183323, 0.07480982132956633, 0.07669418971007497, 0.07856081871989654, 0.08046804655718187, 0.0823554157069818, 0.08435205440957465, 0.08638052641670546, 0.08845408908757667, 0.09056636474540107, 0.09273867065552002, 0.09492753323724719, 0.0971246659801659, 0.099401121949987, 0.10171781787974658, 0.10412333581910524, 0.10651592664535547, 0.10892104755384224, 0.1114062972977122, 0.11393406128097108, 0.11648831966544823, 0.11910388758334718, 0.12180387107101255, 0.12449893825096374, 0.12723919468226857, 0.12997349897947028, 0.13281024287678583, 0.13567197385820043, 0.13859516798523483, 0.1415599715605232, 0.14457339025121144, 0.1476215620278869, 0.15069780225001042, 0.15383369025829866, 0.15701182472747935, 0.16022867704358035, 0.16349222761181845, 0.16684106535229995, 0.17018404339269252, 0.17357189504686596, 0.17699389450897818, 0.18047168817764336, 0.18395939071810494, 0.1875274829725397, 0.19113632163098215, 0.19476590589435655, 0.1984586137942152, 0.20221881429337, 0.2059867544193144, 0.2097956099189736, 0.2136110313315173, 0.21750499951894037, 0.22148646094502625, 0.22544994119873396, 0.22945386093258646, 0.2334391835932625, 0.23752952285253456, 0.24164926843973536, 0.24581086139726796, 0.25000710845562646, 0.25423115019121434, 0.2584968787669214, 0.26281385947008723, 0.26714404620099963, 0.27150806914132203, 0.2758839356291056, 0.28031667421568496, 0.284787721732479, 0.28928090485753005, 0.29380447680553845, 0.2983874261706072, 0.302966233192978, 0.30754047338241597, 0.3121831416935373, 0.31685223066957924, 0.32152049541523375, 0.32624388972695534, 0.33102796033199483, 0.3357920110026084, 0.3405800883052503, 0.345386111666802, 0.3502201772902035, 0.3550486237254514, 0.35992717616887815, 0.3648234561304696, 0.3697190206192913, 0.37465087530089175, 0.3796334978286032, 0.38458917669736176, 0.38956005382455394, 0.39449849760358835, 0.3995025260029984, 0.4044967660870016, 0.40952141839082196, 0.4145530103003769, 0.41958277854481946, 0.42462732876529957, 0.42971770423598304, 0.43476511067292734, 0.4398177289348296, 0.44484332671943305, 0.44990677026442855, 0.4549524011553839, 0.4600170226768368, 0.4650786760965457, 0.47012097226782135, 0.47517602707388307, 0.48026002362883297, 0.48529662177779626, 0.4903268865415803, 0.49534883806751995, 0.5003628039251081, 0.5053252493238944, 0.5103229869385199, 0.5153057954213041, 0.5202838471258282, 0.5252325910695137, 0.5301227300442743, 0.5350411954374381, 0.5399378677363025, 0.5448503672967588, 0.5496960349736956, 0.5544757732679425, 0.5592810629411367, 0.5641019019592828, 0.5688461387674258, 0.5735635027957727, 0.5782496620032558, 0.5829095414077835, 0.5874791280597713, 0.5920828975812822, 0.5966495739880855, 0.6012197341013269, 0.6057044322846302, 0.610091069018847, 0.6145072814549772, 0.6188800607567341, 0.62321229756277, 0.6274952691513492, 0.6317272641785117, 0.6359183118203791, 0.6400612805047449, 0.6441536954528654, 0.6481976776958606, 0.6521985650593601, 0.6561380050128076, 0.6600245444796863, 0.6638659058782537, 0.66764206580784, 0.6713290874775, 0.6749965095891737, 0.6786037697771792, 0.6821477202577878, 0.6856321302035664, 0.6890504548663858, 0.6924080272458127, 0.6957003821093186, 0.6989435772018131, 0.7021004879713769, 0.7052117116157054, 0.7082305471990799, 0.7111812745972569, 0.7139983246090454, 0.7168173106408593, 0.7196038895753047, 0.7222662600276516, 0.7248545178178784, 0.7273181254923127, 0.7297614728344859, 0.7321464729821212, 0.7344270064098012, 0.7366278918496472, 0.7387210352004224, 0.7407638920774513, 0.7427529686285528, 0.7446248790659002, 0.746414101813913, 0.7480969632722786, 0.7497214839179606, 0.7512531963304793, 0.752705758589607, 0.7540708080185301, 0.7553538265435935, 0.7565418009986341, 0.7576627429350165, 0.7586705797652658, 0.7595902160513048, 0.7603581836112424, 0.7611075712086914, 0.7618012277082575, 0.7623589665062378, 0.7628253714278247, 0.7632023230311105, 0.7634847891346, 0.763637388566069, 0.7637400343240465, 0.7637478717362001, 0.7636654136357947, 0.7634832922338717, 0.7631846320630278, 0.7628166330450513, 0.7623530925705602, 0.7618112386597168, 0.7611551136110432, 0.7604079920422758, 0.7595636486808194, 0.7586256647404158, 0.7575830275623575, 0.756459428684188, 0.7552130404987559, 0.7539054351866201, 0.7525027690595987, 0.7510077716180111, 0.7494162269881878, 0.7477482632632573, 0.7459681905135465, 0.7440966034954339, 0.7421493835747442, 0.7400938876843915, 0.7379156097429461, 0.7356856214460318, 0.7333649248926883, 0.7309645376521945, 0.7284631184739475, 0.7258869055570706, 0.7232082085445454, 0.7204434077012306, 0.7175745738559802, 0.714641616471585, 0.7116491913307992, 0.7085430836759999, 0.7053547410602038, 0.7020397060236145, 0.6986945969985188, 0.6952461050623169, 0.6917394048348715, 0.6881511508073982, 0.6845410673752235, 0.6807862131615998, 0.6768963035513914, 0.6730010692180136, 0.6690296388297675, 0.6649856023344056, 0.6608655980404097, 0.6567157441443844, 0.6524477265807307, 0.6481127053617372, 0.6436628484050684, 0.6392029569512654, 0.6347333139898524, 0.6301343286004168, 0.6254748153442062, 0.6206936695240562, 0.6159240427260564, 0.6110935882589452, 0.6062039602319321, 0.6012567921694365, 0.5962958513848678, 0.5912331087531487, 0.5860719342600558, 0.5809157821822657, 0.5757090886956674, 0.5705097525146261, 0.5651999456226704, 0.5597886363714909, 0.5544028258321717, 0.5489738035029842, 0.5435129496483088, 0.5380015691442183, 0.53244536541558, 0.5268617010672617, 0.5212434657428529, 0.5156189728013879, 0.5099332957797884, 0.5041759616970056, 0.49844120173997103, 0.4926788967426425, 0.4869093797076136, 0.48109515842310596, 0.47526876559286113, 0.4694129584969, 0.4635398577294616, 0.4576288336109913, 0.4517286240373606, 0.44580864923999436, 0.4398832446863937, 0.43394715337625317, 0.4280465158205476, 0.4220887340902245, 0.4160858589002303, 0.41012887974950674, 0.40416933655461307, 0.3982385581371363, 0.3922753738120586, 0.3863127748266806, 0.3803600763853087, 0.3744143706715617, 0.36845201897955515, 0.3625279934358143, 0.3566207267126245, 0.35071777916279384, 0.3448287079785153, 0.338931457816253, 0.33307793897333404, 0.32724839671818473, 0.3214304252096612, 0.3156336004761061, 0.30989798961025805, 0.30414340743044654, 0.29842797516742325, 0.2927293244890014, 0.28706180357206296, 0.2813740591262896, 0.27577890489450047, 0.2702176513893601, 0.26468719391534135, 0.2591917229272698, 0.2537268279729321, 0.2483065547931169, 0.2429186798352738, 0.23757879398955462, 0.23228042390748446, 0.2270316357319637, 0.22181964287982725, 0.21669209211415902, 0.21156844275030443, 0.20649684293110643, 0.20147500239856103, 0.19650553208171825, 0.19155305105532672, 0.18669546752650296, 0.18191519093793165, 0.17716147402541332, 0.17246427804999312, 0.16783038555071567, 0.16324806847355186, 0.15868300730653753, 0.15422560377937564, 0.14982676920475774, 0.14550015630170784, 0.14122005595013604, 0.13700452035517158, 0.13284964518040446, 0.12875882854057077, 0.12471947874111215, 0.12076058482123446, 0.11691142554621618, 0.11307837553052962, 0.10931458118900711, 0.10559961222831057, 0.10197777440700291, 0.098395276475371, 0.09491545324862946, 0.09150373248556178, 0.08817330220617274, 0.08489798868939642, 0.08167541334463807, 0.07854366427743523, 0.0754820637969923, 0.07253909401140321, 0.06961290456726348, 0.06674363819174642, 0.0639673351567759, 0.061263755892872154, 0.05861146333996747, 0.05605604581584233, 0.05355583814238629, 0.05114554795446364, 0.048806004372241106, 0.0465854295351903, 0.044381709392723796, 0.042205879565824354, 0.04015503724012348, 0.03817456539253578, 0.036258513743168866, 0.034419375622623004, 0.03265593487995593, 0.030955475800315976, 0.029324807464979494, 0.027743680817804206, 0.02625422989211047, 0.024890162390751164, 0.023528587342570958, 0.022237422598039805, 0.020962617033150846, 0.019816590236673533, 0.018786610724885182, 0.017763815930123994, 0.016808132655248505, 0.01586322722010356, 0.015046168766014372, 0.014342270592342802, 0.013641041340051133, 0.013003221283882427, 0.012406422321149399, 0.011895305853800458, 0.01142878173650625, 0.011037530616266106, 0.01070326955116167, 0.01040533459637623, 0.010185447504582638, 0.010065814384874711, 0.009946725710076171, 0.00988258007851912, 0.009872261376927231, 0.009914656166328086, 0.009962803907434745, 0.01011308636262243, 0.010310172026030833, 0.010561448829336286, 0.010848824587929538, 0.011209919363427464, 0.011582460579975133, 0.011999578064353667, 0.012426020858134124, 0.012932892274096832, 0.013491309033926415, 0.014073586446110191, 0.014693605925404592, 0.015376134115098654, 0.016065004345264564, 0.016740134954810894, 0.017505519084574577, 0.01830121755743388, 0.019178058106292292, 0.020024993302791422, 0.02085933979349809, 0.021770847976772794, 0.022707368499783054, 0.02371220930414695, 0.02468993815058272, 0.02566308159772904, 0.026691489924816823, 0.027739610860136543, 0.028836575364942763, 0.02991672000640771, 0.030969595632070555, 0.03208968372391268, 0.03322222977124932, 0.03436547348739097, 0.03551994686296556, 0.036728826946975004, 0.03789512672232572, 0.03907111194051421, 0.040258289632676025, 0.0414489559866737, 0.042640053350075424, 0.043841218715170285, 0.04504499389004612, 0.046270081628374544, 0.04747278619445158, 0.048652579494499755, 0.04985685539305094, 0.05105719323472256, 0.05231018514807841, 0.05349210338120996, 0.05468045092486964, 0.05585170349908512, 0.05701666641071058, 0.058151700700814137, 0.05930259843933336, 0.06050984218326687, 0.06162768783414754, 0.06273554782456901, 0.06380598556876127, 0.06489258273010588, 0.06601439299828803, 0.06706184313862237, 0.06809425236618047, 0.06912576702775776, 0.07012207760297132, 0.07110848309097852, 0.0720664422588835, 0.07300442015160509, 0.0739545563652147, 0.07484503551214168, 0.07574750999314055, 0.07659004477746513, 0.07741091704699325, 0.07824806769698088, 0.07901701917890425, 0.07977861883739687, 0.08049859656624749, 0.08119419648724761, 0.08185467667975664, 0.08249947246058167, 0.08314072244954286, 0.08372581675378948, 0.08428297789601079, 0.08483585243658681, 0.08533188498092857, 0.08584002720239342, 0.08627309570006382, 0.08667858594940984, 0.08708079929945214, 0.08742555023239813, 0.08777006038122767, 0.08805386142310695, 0.08830958595139107, 0.08860011188611223, 0.08878961195538702, 0.08897055940768214, 0.08910432574727155, 0.08921116693367294, 0.0892918300045633, 0.08934258498550036, 0.08939578761628658, 0.08938505062293325, 0.08934687029846279, 0.08934150329437807, 0.08923974663132378, 0.0891161175169472, 0.0889637896737011, 0.088785875752103, 0.08864717852629851, 0.08840917390570308, 0.08816949157923726, 0.08788365126777889, 0.08757584630438893, 0.08722209708647805, 0.08687255658955388, 0.08651547818308004, 0.08611654704897666, 0.08569536720766098, 0.08530993018482365, 0.08483797900164246, 0.08431639898590718, 0.08381288502696188, 0.08330408171446703, 0.0827606721042735, 0.08219989636996161, 0.08168296267689872, 0.08108156365219003, 0.08046588455157133, 0.07984090420339524, 0.07920436883151012, 0.0785486290295962, 0.07789155244814842, 0.07724709092013904, 0.07656727873184335, 0.07588005981682677, 0.0751816954952883, 0.07448238443646296, 0.07380210537036269, 0.07308987711941575, 0.07237551110263256, 0.07164353344080762, 0.07092939157410046, 0.07027760816525186, 0.06955560433771027, 0.06883881910298806, 0.0681411876931885, 0.0674351122729518, 0.06671862712643867, 0.06603178406736857, 0.06535353282075314, 0.06470560417221766, 0.06404503264836489, 0.06339222581477315, 0.0627591528469351, 0.062140700867832056, 0.06151133952669147, 0.06092880028752178, 0.06035683435770655, 0.05980940722338175, 0.059280901435723475, 0.05880083601511237, 0.05831086111107066, 0.05782637126461411, 0.05738940211124571, 0.05697838256011692, 0.05662718245602981, 0.05626793549261141, 0.05594043248130625, 0.055645715214020446, 0.05538484781815594, 0.05512119925900561, 0.054936064663107756, 0.054775603337407795, 0.0546632542196459, 0.054588168330790665, 0.05454957531042241, 0.05455360258235053, 0.054633017258739446, 0.0547168431029648, 0.05484663019976362, 0.05498642144536077, 0.055215861108936455, 0.05554696817089222, 0.055864696831178506, 0.0562350381236936, 0.056604071466308574, 0.057088981325508735, 0.05763624453778794, 0.05822513449237161, 0.05886913636462161, 0.059610037821253924, 0.060362437238294625, 0.06111928514417911, 0.062000788637800966, 0.06294119677987618, 0.0639446380614537, 0.06500594228197486, 0.06612228391230439, 0.06731038934395842, 0.06856247418843006, 0.06988617433391056, 0.07126827247701233, 0.0727700345436449, 0.0742806111460743, 0.07586285481247623, 0.07750672205896574, 0.07923455779725956, 0.08098565912929538, 0.08286425121405558, 0.08481305660351636, 0.08687061552873067, 0.08895750158805076, 0.0910805767891103, 0.09332197201314849, 0.09563656375956071, 0.09802795544338003, 0.10049044889568452, 0.10304139317092964, 0.1056529506247108, 0.10834128442243061, 0.11109927167610797, 0.11394288040144566, 0.11684509260422447, 0.1198454646767525, 0.12292234188226268, 0.12613150597372016, 0.12935528686422093, 0.1325973683713194, 0.13598955746790375, 0.13945812278027309, 0.1430084694944146, 0.14662975723971952, 0.15035483732764038, 0.1541271110265251, 0.15797802225286492, 0.1618954408556662, 0.16590420983997858, 0.1699567240287658, 0.17412348327141244, 0.17836484025094704, 0.18273323801264382, 0.1871169038105713, 0.19153706560944053, 0.19607953979915096, 0.20069555550544096, 0.20540990233894113, 0.21016871411263147, 0.21494803150417938, 0.219860377217627, 0.22484207355170638, 0.2299334868594782, 0.23504775202755193, 0.24022808194829534, 0.2454830730874282, 0.2508066201587058, 0.2561475946937914, 0.2616120569373132, 0.26716700893848905, 0.2727537542627229, 0.27840405932122436, 0.284108170454646, 0.2898840394949972, 0.29567584854061096, 0.30157702796322594, 0.30753414707424576, 0.31352437590168303, 0.31959416064238405, 0.3257164614967029, 0.33189058055458903, 0.3381157318768278, 0.3443917879990944, 0.3507162349398889, 0.3571066849234335, 0.36352431942903696, 0.3699889901014481, 0.3764638699686002, 0.3830230758975718, 0.38963285481199783, 0.3962716321847274, 0.40294958384040774, 0.4095988304807138, 0.41635952903565354, 0.4231959405643725, 0.4300128123069382, 0.43686161166705473, 0.4436691601756719, 0.4505865038448642, 0.4575154670390324, 0.4644802373158293, 0.4714657513700356, 0.4784539347436608, 0.4854797954107778, 0.49256708628436363, 0.49961870495311234, 0.5066867301044378, 0.5137021647400692, 0.5208063786430545, 0.5279284003132609, 0.5350449932057735, 0.5421670966977183, 0.5493028645646563, 0.5564303404618851, 0.5635401037782704, 0.5706713571515881, 0.5777996544876928, 0.5848642580765754, 0.5919893484873939, 0.5990877847748957, 0.6061913822969476, 0.6132804853069578, 0.6203723394045095, 0.6274263092281113, 0.6344562062384794, 0.641474575508106, 0.6484719026035551, 0.6553992383216268, 0.6623555666694815, 0.6692669688536118, 0.67616671419544, 0.683034172657035, 0.6899109168882624, 0.6967043595831166, 0.7034534281360786, 0.7101783035514699, 0.7168649105817341, 0.7234715713784463, 0.7300814502032613, 0.736673674174597, 0.7431870604739725, 0.7496437620067937, 0.7560625010790409, 0.762430193289401, 0.7687097105767746, 0.7749748982192922, 0.7811961987234517, 0.7873423921885719, 0.7934287223313353, 0.799405614364391, 0.805373767302551, 0.8113184559203006, 0.8171457790251159, 0.8229061637131446, 0.8285832657350239, 0.8342069944752951, 0.8397383695702827, 0.845218460075924, 0.8506222709667772, 0.8559581992488929, 0.8612045758179526, 0.8663412167747443, 0.8714312808688356, 0.8764376115418742, 0.8813761711893205, 0.8862097315755045, 0.8909159228264418, 0.8955815892802989, 0.9001565596095744, 0.9046458995497713, 0.9090361563968806, 0.9133785452909864, 0.9175761961315095, 0.9216815033795893, 0.9256332592306441, 0.9295575769064988, 0.9333868518885965, 0.9371109719015571, 0.9407344944871733, 0.9442507713974585, 0.9476716516797818, 0.9510012455621218, 0.9542137235972851, 0.9573224133656993, 0.9603502280115792, 0.9632461212799509, 0.9660455097434428, 0.968730231174868, 0.9713090917554053, 0.9737775660071912, 0.9761427459142166, 0.9783943679398394, 0.9805428085797326, 0.9825813642960768, 0.9845117607097484, 0.9863288289528316, 0.9879771016141273, 0.9895788439324338, 0.9910654991711145, 0.9924342676623548, 0.9936915805360322, 0.994882875424935, 0.9959045143154298, 0.9968143534213476, 0.9975773823995411, 0.9982673041818537, 0.9988687455447417, 0.9993268428961053, 0.9996723890809621, 0.9998757967711507, 1.0, 0.9999886504738452, 0.9998877055404577, 0.9996721712717065, 0.9993315071237335, 0.9988898458776624, 0.9983508822297948, 0.9976806553433509, 0.9968990312969753, 0.9959798824605133, 0.9949803295235253, 0.9938827320907946, 0.9926595505671089, 0.9913272863058501, 0.9899154322800099, 0.9883633306791779, 0.9866503116399147, 0.9848947855127986, 0.9830316891545448, 0.9810901405138831, 0.9790113936623277, 0.9768015818908014, 0.9745212352950223, 0.9721379286322531, 0.9696904369981681, 0.9670996268521972, 0.9643764087650843, 0.9615954607546014, 0.9587164998579599, 0.9557162652258483, 0.9526477994894833, 0.9494841448092696, 0.9462250973339654, 0.9428728887645126, 0.9394259044868807, 0.9358917737413122, 0.9322638996473813, 0.9285530800479316, 0.9247554313323785, 0.9208738340712425, 0.9169065450135028, 0.9128781623978366, 0.9087444806918733, 0.9045322639941723, 0.9001946855611668, 0.8958352278325289, 0.8914397614459029, 0.8869219437206698, 0.8823324421838294, 0.8776785192959314, 0.8729489696245784, 0.8681374003879642, 0.8632766402469263, 0.8583506086422745, 0.8533667781395325, 0.8483141376339147, 0.8432012637399536, 0.838029701317415, 0.8328010125763429, 0.8274502218719229, 0.8221204462055464, 0.8167271943707893, 0.8112883471862453, 0.8057972615768653, 0.8003055961561648, 0.7947100567169523, 0.7890106124578158, 0.7833377843122754, 0.7776214544185849, 0.7719117795403098, 0.7661085890986185, 0.760252234248905, 0.7543835975011942, 0.7484823994174132, 0.7425030552719448, 0.7365479381738747, 0.7305857316473596, 0.7245697889906962, 0.718529265999087, 0.7124881611130458, 0.7064010924773991, 0.7002420851927633, 0.6941275073332108, 0.6879951035689369, 0.6818372814585227, 0.6756764538454024, 0.66954015144804, 0.6633517099815209, 0.6571567656110038, 0.6509302669730144, 0.6447303900264598, 0.6385567954257989, 0.6323483563662274, 0.6261417937254281, 0.6199090022419201, 0.6137143577004228, 0.6075029126438579, 0.6013219837474197, 0.5951478943145584, 0.5889632439451944, 0.5828106939714773, 0.57666628030404, 0.5705381348716647, 0.5644245420802, 0.5583790172073877, 0.5522931834145636, 0.5461729607902924, 0.5401406138002647, 0.5341299977498231, 0.5281568171698124, 0.5221927956295891, 0.5162723679970014, 0.5103623307478968, 0.504483283870792, 0.4986490004930737, 0.492833938898533, 0.4870400935511646, 0.48129840624425324, 0.4755933253976567, 0.4698720419246192, 0.46425050171308757, 0.458700758433006, 0.45315045517088814, 0.4476421688151436, 0.44216741340059484, 0.43674772862907435, 0.43134249506660804, 0.4260173008499405, 0.4207373701844939, 0.4155172991840945, 0.410330002690883, 0.405179068416404, 0.40009379356318037, 0.3950497748585575, 0.3900684725809588, 0.3851394847274782, 0.3802822932888286, 0.37545852494355986, 0.37067096153184453, 0.36596274719111505, 0.3613109287747886, 0.35676436338567397, 0.35222158229932987, 0.3476868812863119, 0.3432737464888307, 0.3389194885846717, 0.33463368703266727, 0.3303981254035274, 0.3262031955767286, 0.32209341216652393, 0.3180447383515677, 0.3140740232276579, 0.3101471978900754, 0.30628989110748117, 0.30248981741571246, 0.2987542369597907, 0.29509368983387724, 0.2914863256519971, 0.2879008987231396, 0.2844302204907122, 0.2810227181853358, 0.27772090180084835, 0.27443544070862763, 0.27118832614009186, 0.2680391676071313, 0.2649545826997922, 0.26193685552748247, 0.25898129641746354, 0.2561156629665197, 0.2532864295542464, 0.2505232362578301, 0.24780948918895146, 0.24517945339960825, 0.2425824958322649, 0.24008444811697796, 0.2376483437572809, 0.2352845224373297, 0.23297090067174359, 0.23069519713950418, 0.22850905029194787, 0.2263833124826725, 0.22432007451542296, 0.22231443411483753, 0.22037691099024626, 0.21848990209021074, 0.21666267678524376, 0.21488442532467908, 0.21317667478593907, 0.21153701836628544, 0.20994298013618468, 0.20840630524828116, 0.20691454668572334, 0.2054922271844869, 0.2041535372999435, 0.20283656788163923, 0.2015748110152053, 0.2003378134561535, 0.19918760259755652, 0.19810977285932058, 0.19705808859167306, 0.19605724565778937, 0.19508863090470188, 0.19418911314198808, 0.19331612240300722, 0.19251294833169572, 0.19175434138244607, 0.1910478161638292, 0.19037541400103883, 0.1897564076018699, 0.18916798229517373, 0.18862155708429176, 0.18811250543459657, 0.1876477507992103, 0.1872707790701331, 0.1868768799020347, 0.18652283183284984, 0.18614591659777902, 0.1858753486442272, 0.18568978281600093, 0.18547683186154346, 0.18529781093890185, 0.18512265460541774, 0.18501148985595176, 0.18495491705967693, 0.18489697547156958, 0.1848673385461183, 0.18481604922033462, 0.18484575827665156, 0.18492351462747014, 0.18499357158090513, 0.18508579121826693, 0.18519031487151677, 0.18532502505480827, 0.18548731266609741, 0.18565738895873207, 0.1858448194128609, 0.18605155429178916, 0.18627029825959143, 0.1864724879350013, 0.1867231440370973, 0.1869845208424768, 0.18730762185152078, 0.1875815884993211, 0.18784982116998872, 0.18814724734730717, 0.18845255077780093, 0.18875656497776508, 0.18907557011367324, 0.18937454100723766, 0.18970444647957194, 0.19003551101940863, 0.1903640617917878, 0.190695656331827, 0.1910689402234391, 0.191391974746803, 0.19171473350113963, 0.19203019955138745, 0.19234988758581745, 0.1926783418476637, 0.19298787884588559, 0.19329243846770597, 0.19358510128840603, 0.19387747942807995, 0.194105441678587, 0.19438764197756528, 0.19465678864006927, 0.19495911435705193, 0.1951951642883335, 0.19542479077078517, 0.1956361709172885, 0.19583463719650548, 0.19602751926264592, 0.1961967454302788, 0.1963430555378635, 0.19648296452586478, 0.1966061060203431, 0.19667633653740815, 0.19676851116644498, 0.19681860836241052, 0.19687193724268015, 0.19690283140437473, 0.19693037349355808, 0.1969135059977546, 0.19685554164167796, 0.19679699306153103, 0.19671475466743438, 0.19663819664079837, 0.19650419763739702, 0.19632384214712942, 0.19614697402254164, 0.19594515995313716, 0.19572038461697577, 0.19546769844846518, 0.19521168121406576, 0.19490491778892835, 0.1945734116489738, 0.19423007481590074, 0.19384623790369673, 0.1934077303076149, 0.19297704423125842, 0.19251883699775646, 0.19201084027042, 0.19150015483291252, 0.1910240794823902, 0.19044750845416608, 0.1898457662061091, 0.18916003340834717, 0.18851419571033884, 0.18783888327170492, 0.18713433226748513, 0.1864007689077889, 0.18568352103944166, 0.18488688143576087, 0.1840266914656886, 0.18318299574332145, 0.18231108926697867, 0.18139790149752863, 0.18047198023509625, 0.1795548064660394, 0.178568115783407, 0.17755598551103866, 0.1765236430327672, 0.17546016620245072, 0.17434813042125816, 0.17323796183878973, 0.17210181775144354, 0.17091935581910364, 0.16973497554400307, 0.16852900530930295, 0.16729256145224924, 0.1660314294890391, 0.16473722811240438, 0.16342931587521403, 0.1621287440248674, 0.16077002539720456, 0.15939043722323104, 0.1579917509937961, 0.15657114054618604, 0.15512034562214774, 0.15366173612786072, 0.1522115486588515, 0.15071051332267524, 0.1491923559109536, 0.14762038162121655, 0.1460735323775218, 0.14448699132730938, 0.14290704268781665, 0.14130900109039085, 0.13970923683169706, 0.13807554221840973, 0.13645369411590724, 0.13478772858507515, 0.1331097700036633, 0.13140323687532163, 0.12970474828709008, 0.1279746998719118, 0.12625618166692834, 0.12452621783639138, 0.1228344130822583, 0.12107776454150258, 0.1193103170217359, 0.11754186462849311, 0.11576755601070865, 0.11398563694300595, 0.11220131451967524, 0.11039546949245482, 0.10860481972906189, 0.10680981877932302, 0.10497568875545352, 0.10317862172363618, 0.10137808988999097, 0.09957350964017628, 0.09776670416830077, 0.09595636099102477, 0.09414807060583347, 0.09234448937203127, 0.0905370154821706, 0.08873170139465118, 0.08694112355771741, 0.0851408481545159, 0.08335001261128278, 0.08155977962849832, 0.0797759907634028, 0.07797627760478552, 0.07620994391135866, 0.07446448805956583, 0.07271077427856107, 0.0709661356389832, 0.0692696085687021, 0.06754000068835773, 0.06578342331844933, 0.0640850451420328, 0.06239793008445711, 0.06077521734305588, 0.05910588081134268, 0.05739271582706188, 0.05576326209060593, 0.054146892838468, 0.052591657512867714, 0.05099760893752321, 0.049427293471797404, 0.04786838695367436, 0.04632816279660464, 0.044802432550274704, 0.04330090104718252, 0.041815651420183876, 0.04035331228887287, 0.03891073209189687, 0.037459446312809064, 0.03606115770330391, 0.03472650539671364, 0.033361744691142975, 0.03201991666366603, 0.030732264069188962, 0.0294329418687545, 0.028164805923334344, 0.026915247582041675, 0.025691272059401794, 0.024484000038571978, 0.02331232976340893, 0.022202799332153786, 0.02107693800403965, 0.01997863518939797, 0.01890924618818195, 0.01786554524284039, 0.01684997691904537, 0.015860944346681765, 0.01489932550156482, 0.014018384537107067, 0.013104943555647649, 0.01224124947645006, 0.011386059268310341, 0.01056181373823175, 0.009775511841016242, 0.00901109921971351, 0.008311065733812807, 0.0076027964271353134, 0.006926287604976319, 0.006264070660379691, 0.005651923091964951, 0.005113773110099031, 0.004555133994466652, 0.004028366187827888, 0.0035803551878518607, 0.0031100837582113427, 0.0026916831720621543, 0.002285184992337649, 0.0019118827553407315, 0.0015999761135330017, 0.0012875832975266374, 0.0010615726110163497, 0.0008080786719835722, 0.0005895032948297512, 0.00038496514303425303, 0.00023612378060378122, 0.00014825380808507001, 5.801363785730495e-05, 0.0, 2.466807485812002e-05, 2.301992850689856e-05, 0.00010154990096058888, 0.00016040275446606623, 0.00025398015166134934, 0.00038943639569418814, 0.0005486153042729848, 0.0007610899658894206, 0.0009821072978440845, 0.0012355195322901827, 0.0016004704941992786, 0.0019065003532721717, 0.0022541557050266814, 0.002628156311406588, 0.0030353830309095245, 0.0034948814164160297, 0.003963388283254171, 0.004458632921775368, 0.00499084481621845, 0.005553221370454311, 0.006197711554817607, 0.006812183068473009, 0.007468650936015748, 0.008144302838193666, 0.008850680102948262, 0.009571552902775135, 0.010339326700317404, 0.011164673516641105, 0.011984339522783712, 0.01283298963261469, 0.013744121738169201, 0.01464494099782722, 0.015607061773949002, 0.01656222730065483, 0.017547472133648535, 0.018539850185294155, 0.019585861103970356, 0.02071709169559, 0.021808963620256656, 0.022930246607698185, 0.024104591385182065, 0.025279439517193466, 0.02647122695806224, 0.027704394210821576, 0.0289643139820962, 0.030272704945403843, 0.03158198059079446, 0.03290322113668862, 0.034267374660877044, 0.03565650813373752, 0.037105844336237086, 0.03853966218465542, 0.04000267998427781, 0.04148813051370991, 0.042999089949038845, 0.04453146457843934, 0.04609276721815635, 0.047691628060037995, 0.04929950067832955, 0.050931912929127174, 0.05258930971008226, 0.05426985957885822, 0.055979386175797924, 0.05770667705293311, 0.059457674301742675, 0.06123809577172979, 0.06303518904915596, 0.06486097670472118, 0.06670427437748011, 0.0685710506037561, 0.07046335096558423, 0.07237630970940977, 0.07428949985556442, 0.07625154404091385, 0.07823522878901813, 0.08025026553534398, 0.08227630353875837, 0.08430409104474704, 0.08637766055406092, 0.08847253427761062, 0.09060959700593056, 0.09274498216266419, 0.09491071901272313, 0.09709105241428817, 0.09929544621174623, 0.10152225721642619, 0.10377230543588048, 0.1060004365245583, 0.10830254099885629, 0.11067998003011541, 0.11301674824504757, 0.11537788324278163, 0.11773070348459788, 0.12014428264661658, 0.12257191938709645, 0.12503110718548308, 0.1275124124076776, 0.13001977459035724, 0.1325455574788947, 0.13507659785372408, 0.13765080529180948, 0.1402473549508042, 0.14287024386152847, 0.14551188645404609, 0.14821906293388512, 0.1509023513943463, 0.15361179568349378, 0.15635094232078955, 0.15911181149474088, 0.1618476640316571, 0.16466691250015042, 0.1675091574474472, 0.1703940025684021, 0.17328091334308887, 0.176221792435292, 0.17915546260152712, 0.18211617822437584, 0.18511051204083895, 0.18812425783812925, 0.19111571223494309, 0.19419017329233693, 0.1972890193830817, 0.2004370457615612, 0.203582725117906, 0.20671384349169356, 0.20991857973847722, 0.21314808524299836, 0.21641095244057337, 0.2196903024622427, 0.22304716191372895, 0.22637331379501793, 0.2297293604473142, 0.23310552095875697, 0.23652210272319232, 0.2399728081488085, 0.24344662749662635, 0.2469496932483859, 0.2504302219456661, 0.2539982828622994, 0.25762668638628883, 0.2612435332901143, 0.26488944223161115, 0.2685652318588459, 0.27226940632129865, 0.2759873843450045, 0.2797522519750518, 0.2835457054149131, 0.28733982529649454, 0.29119452700094184, 0.2950626713981872, 0.2989744849072572, 0.3029136557725095, 0.30688573465479885, 0.3108800352637484, 0.3148985142431357, 0.3189507919548363, 0.32303177055119264, 0.3271733992968158, 0.33130817721877676, 0.3354442107079838, 0.33964419588407174, 0.34387295343269264, 0.3481453135891154, 0.3524298389624125, 0.35671516508065093, 0.36106246087903154, 0.36543745481074136, 0.3698298506965901, 0.3742616822957853, 0.3787406570097691, 0.383224352541867, 0.3877363741577153, 0.3922676437860037, 0.3968368119090313, 0.401420579375223, 0.4060455015294901, 0.41069651244245203, 0.4153128536024245, 0.4200233147253569, 0.42474417053275043, 0.4295008533194579, 0.43427955538214214, 0.4391255839659388, 0.4439431302403666, 0.44871827850838236, 0.45359372405739995, 0.45848946690871817, 0.4634448001179461, 0.4683763967636248, 0.47331723063948244, 0.4782951568628565, 0.4832939592892234, 0.48827257365516613, 0.4933170584645292, 0.49835075511047944, 0.5034332531943682, 0.5085310883634205, 0.513650105626914, 0.5187775685308293, 0.5238803057949863, 0.529042877907149, 0.5342176498762476, 0.5393963419845055, 0.544596017271546, 0.5497815985888812, 0.5550062271785887, 0.5602397724612911, 0.5654893657512517, 0.5707389321400824, 0.5759768218738699, 0.5812449332123842, 0.5865190394795621, 0.5917853236588889, 0.5970715179844397, 0.6023893500817423, 0.6076784866491886, 0.6129715175624489, 0.6182142771129796, 0.6235190392537134, 0.6288492371075238, 0.6341461342317929, 0.6394414629417439, 0.6447010398981873, 0.649994691374026, 0.6553065069534819, 0.6605838772890339, 0.6658548888931166, 0.6710556682687827, 0.6763188396129358, 0.6816089491856581, 0.686840517846597, 0.6920601260429903, 0.6972512121284656, 0.702445743306839, 0.7075917426215735, 0.7127574309691553, 0.7179033309230728, 0.7230375498313645, 0.7281403937148082, 0.7332288754322095, 0.7382862766193908, 0.7433203161672727, 0.7483247033922897, 0.7533093133426351, 0.758215112071851, 0.763151052813774, 0.7680547835731117, 0.7729462735832847, 0.7777806923741468, 0.7825994149247713, 0.7873636255858375, 0.7920932114141538, 0.796724790416192, 0.8013891853953725, 0.8060619591424737, 0.8106354182258723, 0.8151682035858198, 0.8196065297875967, 0.8240607647126974, 0.8284971250694565, 0.8328518646272556, 0.8371590694632379, 0.8414234834151983, 0.8456313486193976, 0.8497441095475089, 0.8538548832091623, 0.8579099735454536, 0.8619366174765446, 0.8658741599446039, 0.8697371511239321, 0.8735621447591675, 0.8773269724173571, 0.8810165521681276, 0.8846597193577043, 0.8882861369720072, 0.8917942254975497, 0.8952389954891742, 0.8985621562478575, 0.9018834766000793, 0.9051269496773651, 0.9083075163427317, 0.9114156241042468, 0.9145104043484863, 0.9174636963229093, 0.920327038743852, 0.9231384404695214, 0.9258873570053114, 0.9285459984930394, 0.9311282002950629, 0.9335736975222012, 0.93600722161123, 0.9383563043993383, 0.9406235722763496, 0.9428067333216109, 0.9449362954840553, 0.946945647258237, 0.9488361813877866, 0.9506809662818716, 0.9524380884276104, 0.9541099987107712, 0.9556898916973225, 0.9571947953631887, 0.958594287049602, 0.9599044411670384, 0.9611504932478603, 0.9622767834687764, 0.9632889172644999, 0.9642380050263788, 0.9650944586444943, 0.9658311722854659, 0.9665042944906178, 0.9670693355350937, 0.9675528295408056, 0.9679397108092284, 0.9682402357585651, 0.9684322854365309, 0.968515423255077, 0.9685161896913086, 0.9684195399200475, 0.9682564703893479, 0.9679608793837516, 0.967532470970228, 0.9670495795832389, 0.966468234455842, 0.965776697225314, 0.9650002258640147, 0.9641241949012642, 0.9631503879608723, 0.9620781423998902, 0.9609587049641463, 0.9596838028691677, 0.9583140137905056, 0.9568491774026254, 0.9552891986301342, 0.9535682299942154, 0.9518262488945551, 0.9500239626323627, 0.9480802692861292, 0.9460412962608575, 0.9438726233660614, 0.9416485263885258, 0.9393497518565945, 0.9369314126419135, 0.9344195820635807, 0.9318281131518041, 0.9291292692748881, 0.926283184281643, 0.9234098806187243, 0.9204434510225395, 0.9174307889094754, 0.9142754277558927, 0.9109956255758023, 0.9076706428721807, 0.9042574318716299, 0.9007311235570622, 0.8971477691070562, 0.8934785189079638, 0.889723032629549, 0.8858833992013472, 0.8819467634188136, 0.8779441888169488, 0.873908308230087, 0.8697382027721681, 0.8654919938104689, 0.8611099271256056, 0.8567218724080707, 0.8522859285095388, 0.847742262345591, 0.843126450145352, 0.8384522844766304, 0.8336942692345192, 0.8288241530411803, 0.8239374516701082, 0.8189828918842609, 0.8139790633529805, 0.808891363906271, 0.8037658619972592, 0.7985520713213221, 0.7932802657836313, 0.7879354071368998, 0.7825533565231686, 0.7770954701165237, 0.7716072412009107, 0.7660656622298954, 0.7604916189366404, 0.7548458794007642, 0.7491225092363526, 0.7433874704876761, 0.7376064167781119, 0.7317463601546256, 0.7258829609239313, 0.7199687250467206, 0.7140229602367454, 0.7080380141613755, 0.7020432419894826, 0.6959824138720457, 0.6899016325362327, 0.6837774002059306, 0.6776253689925662, 0.6714086496313958, 0.6652105868386099, 0.658977680157664, 0.6527322773746882, 0.6464648865245115, 0.6402188467032104, 0.6339079937046903, 0.6275580214703878, 0.6212238999300729, 0.6148774191783863, 0.6085262355224628, 0.6021594982658288, 0.5958036698989273, 0.5894226724787488, 0.5830391522181866, 0.576613210008636, 0.570234431095011, 0.5638775669180746, 0.5574973241050379, 0.551121785258633, 0.544751849499079, 0.5383907210834453, 0.5320258391983042, 0.5256871312043373, 0.5193604699802574, 0.5130202055780992, 0.5067262076590848, 0.5004751465388075, 0.49421070384817567, 0.48796705063652196, 0.48169692994991203, 0.47550565937726247, 0.46935183039502, 0.4632058877578015, 0.45708715072616674, 0.45099800886834235, 0.44493849808118974, 0.43893768347029255, 0.4329404813596168, 0.42697986423480955, 0.42100679013977305, 0.41512942549045145, 0.4093257705148846, 0.40352039992833794, 0.3977577301251299, 0.3920094001711535, 0.3863395109232644, 0.3806935608815884, 0.3751169827218473, 0.3695866453261395, 0.3641624432996724, 0.3587215608208199, 0.3533285161725574, 0.3479967118403386, 0.34271997878785077, 0.3374629578022756, 0.3323035690380674, 0.3271946453943854, 0.3221483338487626, 0.31715960368993196, 0.3122095739920201, 0.3073417365654906, 0.30254677738295643, 0.2977974921388885, 0.29311065728592467, 0.2884841822276289, 0.2839251794397036, 0.2794575520141512, 0.2750254521676974, 0.2706610798650091, 0.2663286625423625, 0.2621057001937027, 0.2579586495956473, 0.2538693483721173, 0.24984894362825222, 0.2459031418809962, 0.24202142507143481, 0.23819187698532104, 0.23445417892358789, 0.2307868052119925, 0.22720573802003033, 0.22367835767105082, 0.2202041557348039, 0.21682419934695218, 0.21351590500692597, 0.21027881172463508, 0.20711472205419468, 0.20402886100939166, 0.20100879355960416, 0.19806161664583466, 0.19520508932309524, 0.1924014485575966, 0.18969454893331952, 0.1870354103653496, 0.18441244060859394, 0.1819069605009557, 0.17947305419865686, 0.17714682628050718, 0.174851056345635, 0.1725751449625375, 0.17043177693721384, 0.16835745574694444, 0.1664075361131415, 0.16446391769728477, 0.16259418745596776, 0.16079291263673867, 0.15906200822431052, 0.15737265111666027, 0.15578387648540568, 0.154229937094943, 0.15277795514056294, 0.15138980090759185, 0.1500636930306215, 0.1488024117484031, 0.14765702829599614, 0.14651385818245805, 0.14543534622373872, 0.14436947162931818, 0.14342374626701285, 0.1425612484363594, 0.14172951363256747, 0.14095677692601793, 0.1402466087860282, 0.1395886880890421, 0.13895925558630767, 0.13841710545888108, 0.13792803296792203, 0.1375496958601052, 0.13715706458194488, 0.13676070140512706, 0.13648191194734263, 0.1362511626886973, 0.13608832115434102, 0.13594848057355158, 0.13583080997971192, 0.1357860877396085, 0.13578433176954322, 0.13583643620052024, 0.1359162697150816, 0.13608414895046445, 0.13623830917339455, 0.13643357796761044, 0.13665067460246505, 0.13692584126196491, 0.1372373643574666, 0.1375823776228091, 0.13796047001651512, 0.13834669366560629, 0.1387900909850379, 0.1393035587741744, 0.1397963913683006, 0.14031734244354782, 0.1408575698322332, 0.14143137877310127, 0.1419864790318328, 0.14261119004884568, 0.14325436744593206, 0.14394908081982438, 0.14462201886671053, 0.14531536216147103, 0.1460215197936633, 0.14674270206488285, 0.1474509886347615, 0.14820170535509422, 0.1490146055884756, 0.14977700263952087, 0.15054993217835133, 0.15130158946937725, 0.15209500462624548, 0.1529114100996123, 0.15371037502471627, 0.15451264822050825, 0.155292570450167, 0.15610080258164316, 0.15689396841393632, 0.15769938435436007, 0.15850031882967613, 0.15934025673240637, 0.16012395223137427, 0.16089557327601722, 0.16166957441119867, 0.16243598012033794, 0.1631958753298908, 0.16394343746131437, 0.16463584278454682, 0.16536637096563672, 0.16608151116216777, 0.16683236997864814, 0.16750819812622134, 0.16814585643066923, 0.16879454751437836, 0.16942521481540895, 0.17004145444481675, 0.1706330069882835, 0.17122575700887907, 0.17177327680896404, 0.17230012338532408, 0.17275727672793656, 0.17324603881953635, 0.1737079607488052, 0.17414417374084398, 0.17455335230785965, 0.17496388498879728, 0.17531398914104437, 0.17565949731769026, 0.17595254719194728, 0.17621871801104846, 0.1764335440577499, 0.1766465960010566, 0.17684546083113606, 0.17699508427404312, 0.1771142677790765, 0.17715513828787, 0.17721782767237523, 0.1772991423155187, 0.17728581068055194, 0.17724073107487756, 0.1771641413988055, 0.17705401535400592, 0.17688641595005086, 0.17671286424906357, 0.1765041734816393, 0.17623584838506254, 0.17595970299553182, 0.17567269850450087, 0.1753199472872587, 0.17493219792749218, 0.17449384963483944, 0.17403787667793524, 0.17351852931250675, 0.17299411328762476, 0.1724324041949848, 0.17188774584585076, 0.17124569157355177, 0.17055562116135095, 0.1698488728887714, 0.16910789343999982, 0.16831651486061505, 0.1675094610280678, 0.16669279297752845, 0.16581336157753798, 0.1649012252439096, 0.16395725861262056, 0.16298006183161384, 0.16196775986885584, 0.16092687937061648, 0.1598541925650059, 0.15873819352670737, 0.15760439544191937, 0.15645101832485278, 0.15525340315506622, 0.1540260552715666, 0.15275239778515234, 0.15146905410330555, 0.15017266001232063, 0.14882926091780693, 0.14745874071486403, 0.14601059463527613, 0.14459386644314529, 0.14316209108950498, 0.14168795846176044, 0.1401881725072678, 0.13870867097903164, 0.1371543511579097, 0.13557714905918855, 0.13398222389619688, 0.13236743445245086, 0.13067859598047732, 0.1290326420061012, 0.1273802499174602, 0.1256910375937216, 0.1239835334129278, 0.12228377419573758, 0.12053918204606436, 0.11877149587385782, 0.11700025826960954, 0.11521566906408538, 0.11341037823610609, 0.11160247641648739, 0.10977427203019942, 0.107945509716881, 0.10610656951934712, 0.10424730358082752, 0.1023922341131582, 0.10051585930462237, 0.09864749150530015, 0.09677237932620057, 0.09489308159628722, 0.09300750481068645, 0.09116057468085305, 0.08926365044580056, 0.08736754917727656, 0.0854765828472195, 0.08358352944120652, 0.08164683696537708, 0.07976622584742622, 0.07793312739589066, 0.07605111722588039, 0.07417545346696577, 0.07227941856666129, 0.07042185801001657, 0.06855852533345315, 0.06671706846608803, 0.06488352192101933, 0.0631032426772206, 0.06128284301109167, 0.05943875409407614, 0.05765015600772339, 0.05587390211117624, 0.05414638176888088, 0.05239298863465527, 0.05066986165520891, 0.04894924400848974, 0.04724744103513473, 0.045561966074938266, 0.04389960473251702, 0.04228769449331863, 0.0406623209757042, 0.03905990672436436, 0.03743049937061532, 0.03588139648923484, 0.034411212492070874, 0.03289812349919953, 0.03141114079878824, 0.02995131342939116, 0.028517408920239674, 0.02714246548756224, 0.025759247338797406, 0.02440575633473254, 0.023090284087311976, 0.02179573280396574, 0.020506814636599206, 0.019277194074092563, 0.01807737142679307, 0.016934430720038533, 0.01579222210415526, 0.014724093169134063, 0.013642218534828358, 0.0125958211641031, 0.011615892107142426, 0.010636371054510494, 0.009743560539089896, 0.008831920251868684, 0.007959919396864553, 0.007098251639667736