0.04822187495917002, 0.04756469879255554, 0.04693005369895776, 0.04631109171033539, 0.04571272316558997, 0.04510823227180186, 0.04453800504866805, 0.04397662602951296, 0.04342635620634964, 0.04287831862509876, 0.04231768832399857, 0.04178225966388169, 0.04124989724336409, 0.04076017204123997, 0.04022786271260526, 0.03969639694206001, 0.03917307354586213, 0.03865328277746116, 0.03807509520699535, 0.03756968239571569, 0.037056727978719596, 0.03655218840457281, 0.03604797399280777, 0.035579130420182396, 0.03507281625156102, 0.034584858228011536, 0.03408456715180772, 0.03358933498792104, 0.03302118604780452, 0.032546281196594196, 0.032150509029026976, 0.031668619120244455, 0.031193664518719407, 0.030714778299572452, 0.030255177196221093, 0.029792964994883556, 0.029347617925379856, 0.028908571201906187, 0.02843612216810092, 0.028015455694817042, 0.027586847393264786, 0.02717786656380013, 0.02677397399519046, 0.026343034817611403, 0.0259550493902226, 0.0256244746065087, 0.025240002723134574, 0.024864504427327953, 0.024505353556008098, 0.02414721055517423, 0.023760633663230023, 0.023426749648356344, 0.02310050928774383, 0.022804059041081817, 0.022491387014090196, 0.022230319922211608, 0.02193214209633771, 0.021646335422514252, 0.021290944533516164, 0.02103952649520384, 0.02085158065727551, 0.02060793848652433, 0.020375649672152434, 0.020132910221352603, 0.01992605874277296, 0.01969484547449154, 0.019512843831425767, 0.019339455517296458, 0.019233259066064077, 0.01907112521151992, 0.01886768917191132, 0.018738685626681673, 0.018619620192937527, 0.018538121053337485, 0.01843663001713697, 0.01836766594019313, 0.01828884694392902, 0.018223892267159952, 0.01813642908537469, 0.018103652462626806, 0.01810439862005648, 0.018092638311101257, 0.01809442868876941, 0.018117131804259008, 0.01814540926078995, 0.018144384092905395, 0.018206788696839837, 0.01829205662871987, 0.01837745659851688, 0.018476275639686103, 0.018606957287017015, 0.01873115727799463, 0.01891418260734648, 0.019063456547328352, 0.019230614860679323, 0.019397253577880545, 0.019601787781182992, 0.01981351022124186, 0.02005175704561646, 0.020305837528160103, 0.02051051428148535, 0.0208049288595455, 0.021122809589297492, 0.021441652647197898, 0.021774940788999716, 0.022152179209593795, 0.02251199595974945, 0.022856432131382706, 0.023255089661316633, 0.023669411224287343, 0.02410156593294073, 0.024548008963624135, 0.025014802138239266, 0.025494460369214218, 0.02599148951579337, 0.026491520774552902, 0.027025583831746053, 0.027576622519068957, 0.028144860539324017, 0.028730492723965814, 0.02931916078256096, 0.02994189920520896, 0.030607073328073494, 0.03126084426231816, 0.031933460878079974, 0.032648481121751394, 0.03335565879796923, 0.03413733344763602, 0.03487742468842425, 0.03564013282720938, 0.036346738803433254, 0.037162711324428506, 0.037995213097355526, 0.03884442751556767, 0.039710511312538686, 0.0405972280527716, 0.041496963889520594, 0.04246131254330688, 0.04338991888387389, 0.044338636752806575, 0.04530346395342366, 0.04629178635695893, 0.04727721245272652, 0.04830582631674447, 0.04935162807663762, 0.050443631331975235, 0.051520008536120585, 0.05261324673745018, 0.053726911714216626, 0.05485858211873521, 0.0560189122344751, 0.05718450789836088, 0.058337169294952786, 0.05954224583383055, 0.06076295934079078, 0.062037433341763155, 0.06328455488405031, 0.06451669039008222, 0.06580297801825864, 0.06710442382487664, 0.06840099420942836, 0.0697350881352958, 0.0711084165160288, 0.0724669774647852, 0.07384085587853861, 0.0752334699641089, 0.07663688008477165, 0.07804789651745758, 0.079481709886241, 0.08092947548414225, 0.08238009981869344, 0.08385654283128455, 0.08530212346742734, 0.08680937403064089, 0.08832660037720681, 0.08987031888831279, 0.09140589117276463, 0.09295088512593296, 0.09450903788522588, 0.09607804834637612, 0.0976904355174353, 0.09927650402523537, 0.10086561042339608, 0.10247656031087957, 0.10409812910788926, 0.10574988774681994, 0.10738896022941828, 0.10902585548239882, 0.11068704176307327, 0.11235694750671711, 0.11397886176823034, 0.11567206749377072, 0.11739682090078875, 0.1190952435278469, 0.12079953153076697, 0.12253119260923578, 0.1242435913606806, 0.12588591412757227, 0.12761982787080595, 0.12935464572350833, 0.13113951681528133, 0.13287023837767184, 0.13461930386193446, 0.13635536068693913, 0.13809512284961117, 0.1397871632920704, 0.14153902687270567, 0.1432555277148419, 0.14500988951677518, 0.14676113077004616, 0.1485492577244271, 0.15028931194555242, 0.15205388496593955, 0.15378847114776759, 0.1555226760313801, 0.15723767159575686, 0.1589714194452944, 0.16061465154518237, 0.16235223606423835, 0.16408062357432715, 0.1658672201131664, 0.16756928867803, 0.16919006470461417, 0.1708911580675967, 0.17258181851310028, 0.17430749510385438, 0.17597163541143526, 0.17756428187861792, 0.17922006852886813, 0.18086332046793974, 0.18254668398626414, 0.18415810116893291, 0.18572520239369902, 0.18732073333235916, 0.18890328086172883, 0.1904652505722139, 0.19202172782682758, 0.1935619226838312, 0.19508934838873812, 0.19660148370671163, 0.19809613109115168, 0.1995767490406148, 0.2009536088176579, 0.20241162941893637, 0.20384730118918554, 0.20527903285290494, 0.20666836432780156, 0.20804954534589776, 0.20939538886817152, 0.21072071740321696, 0.21199975358712908, 0.213286173415662, 0.2146003536186714, 0.21583396021802356, 0.217046859790372, 0.21814574145835183, 0.21932684722173043, 0.22053810622086353, 0.22165605758039192, 0.22274944221396142, 0.2238032270356953, 0.22484779617809228, 0.2258908884062398, 0.2268780614175857, 0.2278389832204287, 0.22869496552137777, 0.2296114552366514, 0.23052641686257108, 0.2313742851890848, 0.23219158107723922, 0.23294714982167594, 0.2337063314383579, 0.2344795180941241, 0.23516623924703292, 0.23582220934415332, 0.23643237201319503, 0.2370271057774788, 0.23757057945846222, 0.2381010457419364, 0.23859667355945788, 0.23912444088843912, 0.23954125902555276, 0.23995540079162436, 0.24030430551373244, 0.2406216115293672, 0.24086647434046612, 0.24112302730371973, 0.241374158214124, 0.24155387493949865, 0.24169835473144824, 0.24179433265561595, 0.241868334682103, 0.24188126743192914, 0.24188301656023192, 0.24185446175538627, 0.2417762271008067, 0.24165897923675816, 0.24160789433489435, 0.2413988862798483, 0.24114366793478562, 0.24086830998626801, 0.2405569379818182, 0.24017259894064605, 0.2397919646993604, 0.2394133742735541, 0.238947900051615, 0.23844483845437545, 0.23793828628725386, 0.2373545388935302, 0.23672684990933346, 0.23607015746278834, 0.23537544766212584, 0.23472051046485956, 0.2339390807773803, 0.23311968756152582, 0.23226930116026523, 0.23138299829343764, 0.23048389738645342, 0.2295214119602355, 0.22859760535108253, 0.22755375399533598, 0.22647758330752407, 0.2253755293282395, 0.2242314720004267, 0.223031673002763, 0.22182199533210673, 0.22057631705087946, 0.2193199876129253, 0.21799895061092933, 0.21666149461688727, 0.21526892894003063, 0.21384272700749038, 0.21246089406907842, 0.2109574003362806, 0.20941013224614946, 0.2078494950108532, 0.20625796099694102, 0.20466084218064676, 0.20300406633229004, 0.20138132187179036, 0.19965740789067749, 0.19790751904409346, 0.19616939939890174, 0.19436171268834398, 0.1925130858820581, 0.19065795138931235, 0.18877680241696607, 0.18695505827370754, 0.18501140887793996, 0.18299800605143318, 0.18101874830759107, 0.17901545381034611, 0.1770792415600269, 0.17501744825602256, 0.17290158962608151, 0.17080868469492327, 0.16869572174626835, 0.16662116146065473, 0.16446187404157636, 0.16226891543227465, 0.16008099150915991, 0.15787683357313376, 0.15569684041973222, 0.1534565850604937, 0.15122205117650958, 0.14895494431527703, 0.1466771450789029, 0.14442167914744747, 0.14211947279504172, 0.13982239724930937, 0.13750373940744287, 0.13517894143394135, 0.1328901610417723, 0.1305490704450964, 0.12826554136025864, 0.1259124462513133, 0.12356104568046258, 0.12122406000447317, 0.1188746121513706, 0.1164826165523535, 0.11414489538902728, 0.11180816902479891, 0.10954230915834691, 0.10720150153178225, 0.10484106003502328, 0.10251933487632227, 0.1002046441659316, 0.09795774402475116, 0.0956520950103504, 0.09332861547635113, 0.09105342799123534, 0.08879060035925113, 0.08656645628135688, 0.0843278808387873, 0.0821222577031303, 0.07991563986589174, 0.07772820912350296, 0.07559523569739134, 0.07344417996197466, 0.07132034611997781, 0.06921664967543406, 0.06713809441593518, 0.06502368411611877, 0.06300550268629143, 0.06106405146233254, 0.059088745461292884, 0.057143226147959615, 0.055228416103975116, 0.05334526821459323, 0.05151655129400464, 0.04969693057500206, 0.047913192791623656, 0.04617164383647536, 0.044461591857042876, 0.04276316194936315, 0.04113517441336, 0.03954634603293439, 0.03805050362569686, 0.03653682847634886, 0.03508508437824466, 0.03366123458712205, 0.03228536148777575, 0.030905466587756135, 0.029634234725830887, 0.028415589133853694, 0.02723915265706102, 0.026112551043642306, 0.025051428362895072, 0.02402599493501514, 0.02307267142332181, 0.02215379479504332, 0.021291785486580173, 0.020463834460701037, 0.01972094767789739, 0.01904147611792124, 0.018414851253850287, 0.017848511008226018, 0.017408758516657415, 0.016957507086463267, 0.01653846493422725, 0.016225361154529997, 0.015977811255816092, 0.015789287404067837, 0.015675972836531545, 0.015617305638233351, 0.015641109397887678, 0.015733136090467316, 0.015925128123253647, 0.01615229088419882, 0.016468293060692266, 0.016838931064651164, 0.017284084553314077, 0.017776941080027718, 0.01837586154429751, 0.019052721981710603, 0.019800482219321996, 0.02062409780614859, 0.021547784483384645, 0.022521936917342486, 0.02351875129674123, 0.02465828910122164, 0.02587434753437456, 0.027196797120535906, 0.028564615730450736, 0.029987441508671914, 0.03151974829804315, 0.03313186794765014, 0.03485343105958285, 0.03662318692409035, 0.03848505655496257, 0.04041994114366053, 0.04243877244354556, 0.04450534195612191, 0.04669697760118751, 0.048947221193688994, 0.05130664595733749, 0.05374766544742459, 0.05630888539582186, 0.05890962486213204, 0.061555371974854466, 0.06433105107792579, 0.06718937867579033, 0.07014332573867652, 0.07316606403835685, 0.07625461113445867, 0.07944756912069001, 0.08272341632628148, 0.08612397853891186, 0.08956045485434866, 0.09308945573725005, 0.09669511128936974, 0.10038558274318032, 0.10415674673884738, 0.10801583449059328, 0.11190358265245891, 0.1159353608182408, 0.12005898101409833, 0.12424736190746485, 0.1285154151557629, 0.13281382776626427, 0.13724652170671892, 0.141749693780589, 0.14633490118996484, 0.15099558500501858, 0.15576608928192373, 0.16057280965142165, 0.1654144637380155, 0.17037919417239208, 0.17541691298522033, 0.18051996204365411, 0.18570331983900068, 0.19100507562593064, 0.19632429952696315, 0.20171622085016191, 0.20712713902407284, 0.21266798085070884, 0.21823546500113003, 0.2239138920979693, 0.22965530932655862, 0.2354719778291215, 0.2413363237281931, 0.24725185081027476, 0.2532409114359656, 0.25928974481901373, 0.2654574278792617, 0.27161562964601427, 0.27774890064291774, 0.28403721818359257, 0.29037816479406503, 0.29677820522757353, 0.3032210166962764, 0.3097687136725382, 0.3163043831416608, 0.3228913170333621, 0.3295061100637327, 0.3361934915361169, 0.3429097523274227, 0.34968822647394365, 0.3565081532065282, 0.3633881869446071, 0.37028450182726064, 0.3771467031817291, 0.3841276716529326, 0.3911399370463477, 0.39817523656240816, 0.40524793655802327, 0.4124172986149655, 0.41953543589580966, 0.42668272180831107, 0.4338028400230439, 0.4410098010178198, 0.4482028675648951, 0.45545403577695287, 0.462721092520538, 0.47000104401585585, 0.47729650137405455, 0.484609449222441, 0.49192694368606904, 0.4992540116367479, 0.5065800653518515, 0.5139228635991161, 0.521261007907358, 0.5286122638749458, 0.5359643172963571, 0.5433537637583293, 0.5506979417108581, 0.5580566798088159, 0.5653932829231199, 0.572725146113481, 0.579997559928023, 0.5873204794630791, 0.5946114778692956, 0.6019076199985521, 0.6091858548904591, 0.6164755942795119, 0.6237096983597085, 0.6308940846089425, 0.6380887202909127, 0.6452574386413724, 0.652356904036247, 0.6594743307600098, 0.6665805049048028, 0.6736277947995062, 0.6806406166760067, 0.6876210266893914, 0.6945597063175194, 0.7014121255841754, 0.7082770221606616, 0.71509690301363, 0.7219304040553216, 0.7286487676994706, 0.7352924252355634, 0.741921262295906, 0.7484990565310378, 0.7549806255277304, 0.7614570372178383, 0.7678315743833466, 0.7741956607429058, 0.7804964754571768, 0.7868220286809504, 0.7929820825765114, 0.7990190227583056, 0.805062270537411, 0.8110369995456345, 0.8169582755425315, 0.822790051204905, 0.8284649977652432, 0.8341631432278455, 0.8397821207284415, 0.8453302654871261, 0.850787455866922, 0.8562053164719265, 0.8614940367230179, 0.8667019698612471, 0.8718331648160215, 0.8768746598194347, 0.8818315413228369, 0.8867024339057064, 0.8914859928984938, 0.8961572990995306, 0.900765267760934, 0.9052898138350266, 0.9097106047583078, 0.9140373607911764, 0.9182562939869506, 0.9223933799683547, 0.9263871629572645, 0.9303332745392692, 0.9341771451826285, 0.9379745612344312, 0.9416052917160374, 0.9450609025163548, 0.948498686176362, 0.9518296282302771, 0.9550788206959537, 0.9581918464566346, 0.9611675166713551, 0.9640708693163698, 0.9668648096893143, 0.9695145111690758, 0.9720929999125517, 0.9745155507281364, 0.9768747628917808, 0.979118995603026, 0.9812393889955446, 0.9832554055096877, 0.9851491480282843, 0.9869361937204811, 0.9886080408894088, 0.9902210910033451, 0.9916557200898913, 0.9929349640061774, 0.9941510695509836, 0.9952521195673772, 0.9962272314114983, 0.9970995850608495, 0.9978508655985371, 0.9984927693075013, 0.9990189675556044, 0.9994314385144596, 0.9997264867764694, 0.9999391182457967, 1.0, 0.9999479703706161, 0.9997629974760238, 0.9994875514735035, 0.9990417692028062, 0.9985456105739657, 0.9979327985554091, 0.9972440554867764, 0.9963951826594284, 0.995423257316094, 0.9943518437961588, 0.9931684864937459, 0.9918265217296375, 0.9904269124610976, 0.9889053414083532, 0.9872821111670192, 0.9855474591361223, 0.9837786811592337, 0.9818146137235824, 0.9796883329472356, 0.9775237709469304, 0.9752526541316081, 0.9728977473266374, 0.9704136951714513, 0.9677691463463685, 0.9650884837051861, 0.9623038477843681, 0.959491043526639, 0.956493088930754, 0.9533339647489272, 0.9501533730508095, 0.9468747687065348, 0.9434940480635196, 0.9400241296854847, 0.9364925856351437, 0.9328312829058174, 0.9290384735217773, 0.9252040654704329, 0.9212798008646559, 0.9172689934289533, 0.9131692684601093, 0.9089896992102507, 0.9047201602769999, 0.9003685510346614, 0.8959235751157919, 0.891413684103964, 0.8868361735237409, 0.8821694198189002, 0.87742784923474, 0.8726437857302375, 0.867753054867482, 0.8627972732689367, 0.8577699636692284, 0.8526767101986132, 0.8474588914425666, 0.8422452725409484, 0.8369663730354879, 0.831624092012294, 0.8262203017654222, 0.8207459559694209, 0.81522605031581, 0.8096022987696865, 0.8039769759341081, 0.7982961076387153, 0.7926109358474702, 0.7868193541532534, 0.7810141146428593, 0.7751273563262765, 0.7691993751744931, 0.7632242913587634, 0.7572189688102244, 0.7511272415036384, 0.7450549025145509, 0.7389455315961939, 0.7328119931211787, 0.7266330554287345, 0.720423508242013, 0.7141851421173206, 0.70791973335948, 0.7016290451389489, 0.695314828447169, 0.6889788229031286, 0.6826227574232961, 0.6762483507662651, 0.6698355218164495, 0.6634323053272512, 0.6570672828877422, 0.6506303340084877, 0.644185557443914, 0.6377198007234215, 0.6312653542953102, 0.6247156699684059, 0.6182653696229901, 0.6118086456083516, 0.6053986302080417, 0.5989294042510198, 0.592479547640467, 0.5860159343273261, 0.579559495018113, 0.5730989721004335, 0.566662844651902, 0.5601903152683575, 0.553783319573103, 0.5473875499362538, 0.5409830997202505, 0.5346181214257083, 0.5283503155981073, 0.5220077987692004, 0.5156890002598375, 0.5093568604844532, 0.5030935566321, 0.49681333458298776, 0.4906064251596678, 0.4844248307117379, 0.47825753768669976, 0.47213320193903596, 0.46605288011702845, 0.45998728418696966, 0.45395512498874085, 0.447941410061142, 0.4419821945432399, 0.43605396460922147, 0.4301696535239536, 0.4243241127810469, 0.41851136376914727, 0.4127480814238939, 0.4070540922946517, 0.4013726654435053, 0.3957371461336816, 0.3901266106404869, 0.3845882407021317, 0.37913341156613717, 0.3736858793656269, 0.36828953061818365, 0.36289231370334346, 0.35760681109779097, 0.35241856315085074, 0.34722819527401266, 0.34209249654193796, 0.3369393551313609, 0.3319237369327386, 0.32705104684579783, 0.32212930139509466, 0.3172668639389593, 0.3124294219693761, 0.3076905456941218, 0.30302418185827534, 0.29839994674321496, 0.29383549736593834, 0.28928213942361586, 0.2848444470796549, 0.28046111521740036, 0.2761405488601426, 0.2718790694387882, 0.26770086559894696, 0.2635562607774723, 0.2594572886336805, 0.25543891578443656, 0.25148200193129866, 0.24761225709133683, 0.2437758670055239, 0.2399831210828545, 0.23627644908633214, 0.23263217224883279, 0.22909395868410967, 0.22556919053320315, 0.22209671181186094, 0.21870318711488354, 0.21537323246857232, 0.21208663161599672, 0.2088856092957517, 0.20568454796485072, 0.20261462280466472, 0.19960268441164006, 0.196701717684051, 0.1937999796329699, 0.19096715571971887, 0.18818744848258284, 0.18546907489884323, 0.18281884784310665, 0.18022085952385153, 0.1776323802899731, 0.17516097870418282, 0.17274597570285896, 0.17038721886489613, 0.16808449661016095, 0.16587930676734217, 0.16368252251573212, 0.16154316777166286, 0.1594350761199925, 0.1574115613827654, 0.1554400003427614, 0.15352371225204953, 0.15165997967801054, 0.1499045118514141, 0.14813700091764354, 0.14637616922295624, 0.14472130065067287, 0.14311548915054634, 0.14163070260943586, 0.14011180360328326, 0.13861311042189356, 0.13719895652660347, 0.13583158402211254, 0.13446827245051574, 0.13319688746734423, 0.1320252140142168, 0.13082910256218425, 0.12967664470706988, 0.12853040139800176, 0.12746650430245574, 0.12646817553513556, 0.12547674127817027, 0.12452364010524902, 0.12365144616573016, 0.12276649559559578, 0.12190481570863373, 0.12109597410881176, 0.12032152151391284, 0.11955674482479915, 0.11885076069930056, 0.11814009700057329, 0.11749727328880188, 0.11688064081347445, 0.1163077814670186, 0.11573946728135912, 0.11522012732784562, 0.11469873727467154, 0.11420237454591708, 0.11375179261668, 0.11329963549795799, 0.11285977031944255, 0.11245419751526646, 0.11206890054259137, 0.11169560293018062, 0.11134875503913196, 0.11101152649720354, 0.11069845908155253, 0.11040006784136949, 0.11017363020290048, 0.10989475646572777, 0.10961135961442062, 0.10936462104101287, 0.10910971378691328, 0.10888809607567637, 0.10867516255112342, 0.1084428804244546, 0.10824838058728006, 0.10807319858756295, 0.10788588941576875, 0.10770305741049231, 0.10759481278748682, 0.1074098592359584, 0.10725302876187824, 0.10707671612363068, 0.10690549480346112, 0.10665453574616925, 0.10650024275579394, 0.10635722860863825, 0.10619421010634698, 0.10602795571417153, 0.10587971406606025, 0.10570261107688818, 0.10549282619285444, 0.10531143403652057, 0.10512339858280184, 0.10495190664793372, 0.10474633847384368, 0.10453963160725228, 0.10431958667696897, 0.10409205490818471, 0.10382192464862217, 0.10358197799519415, 0.10336536180760957, 0.10309846094340248, 0.10282181502982007, 0.1025294330567607, 0.10223238572813305, 0.10192374706989318, 0.10160310497083457, 0.10127006894184584, 0.10095332325686629, 0.10059073937913246, 0.10021453151023693, 0.09982802053968051, 0.09942856800899674, 0.09894855733509957, 0.09853046647324878, 0.09819254909806294, 0.0977265231750681, 0.09724853981308072, 0.09673437247521967, 0.096233671958335, 0.09570896712072262, 0.09517934162305533, 0.09463387185811113, 0.09404342409811611, 0.09346972110117191, 0.09285657940160184, 0.09225055266309855, 0.0916260822245708, 0.09103257361018366, 0.09036612384769524, 0.08964509154589861, 0.08895434072087958, 0.08824657917383551, 0.08757295245065984, 0.08682563717498656, 0.08607049144865095, 0.0852958029076403, 0.08450793280941415, 0.08367048437452089, 0.08286065016217811, 0.08203731005881582, 0.08119694623271366, 0.08034205114667939, 0.07949111639371406, 0.07860586776239194, 0.07765546360725034, 0.07675208549840663, 0.07583368990757847, 0.07489732094266419, 0.0739513462904495, 0.07296303608521798, 0.07199479475117218, 0.07101286501590898, 0.07003258666911338, 0.0690238359751368, 0.06805354486001924, 0.06701803188475516, 0.06597583155846008, 0.06492709238644014, 0.06387200052397866, 0.0627708286697276, 0.061708778628514926, 0.06063889296636091, 0.05955635733556694, 0.05847337488102686, 0.057456744814240776, 0.05635265773284487, 0.05524763521219016, 0.0540854187115266, 0.05298580266328985, 0.0518333434678719, 0.050732950963330685, 0.04962729274673997, 0.04854282172521299, 0.047426454507150315, 0.04630736130746547, 0.045190076301296206, 0.044073108939072785, 0.04300795988893984, 0.0418871561811607, 0.040775084926469966, 0.03966423351862149, 0.03855914721700261, 0.037400161300815395, 0.036314992359117795, 0.03525671141051274, 0.034175960039801716, 0.033101458017545556, 0.03203742066826298, 0.030976704188892448, 0.0299350721841031, 0.028889896829208467, 0.027854600684235564, 0.026820553746029815, 0.02580752023825568, 0.024877862273604796, 0.02387767310444478, 0.022893386334248048, 0.021892268539695798, 0.020943841921782926, 0.01998411193193311, 0.01906753159449138, 0.018164447528219954, 0.017322696912676388, 0.016442495850274328, 0.015571189372924574, 0.014728282226454482, 0.013903267815002996, 0.013160031129188218, 0.01236377266560135, 0.011604532964508285, 0.010851277321722386, 0.010121110403100368, 0.009437509559646572, 0.0087502187888224, 0.008134366811532165, 0.007489425524115455, 0.006871160660397159, 0.006217450125064352, 0.0056592937557428695, 0.00516161931312751, 0.0046437181370137465, 0.004151068154783499, 0.003692828527837046, 0.003249810774280866, 0.0028873766101419093, 0.002489791066333718, 0.002121608094707198, 0.0017716536781492817, 0.0014628910014407367, 0.001169585414934874, 0.0009187694955573698, 0.0006954523681659093, 0.0004979913889008136, 0.0003304331812927458, 0.0002798004291448211, 0.0001571043058317421, 6.77784787131444e-05, 2.584659428240027e-05, 0.0, 1.6152249788118247e-05, 5.460034549430025e-05, 0.0001257545972641918, 0.0002728568174848231, 0.0004029596993792032, 0.0005383222475136927, 0.0007401961213860038, 0.0009737767915186849, 0.0012952128815448423, 0.0015846950937390808, 0.0019196030406610474, 0.002276255321833479, 0.0026670953068079857, 0.0031043690968796966, 0.0035606485571167278, 0.0040270164368520454, 0.004553272764917954, 0.0051111591895418845, 0.005764122776301131, 0.006376926879378651, 0.007024647626786563, 0.007706701193496989, 0.008422571723832562, 0.009209935123631163, 0.00998729895838814, 0.01083026485586246, 0.011672560269071512, 0.012550128651366352, 0.013442246870733124, 0.01439072320697969, 0.015411292541330585, 0.016418638015789418, 0.017437877258032284, 0.018514720050318234, 0.019622836825686035, 0.020774607667864146, 0.02194269904243273, 0.023179991885930396, 0.02440503154684882, 0.02566257060370525, 0.02695743039549174, 0.02827745679772743, 0.02964672860164182, 0.031026109803292443, 0.03243659225726952, 0.03391934884662249, 0.03538502783658244, 0.03682804290622187, 0.038363433369224806, 0.039926053197852945, 0.041613734335267084, 0.04321774702634316, 0.04478845703681443, 0.0464638609066671, 0.04816574062065059, 0.04995189972117844, 0.05169848435893791, 0.053448502459612635, 0.055255265513345836, 0.057088026427698085, 0.059004467059160945, 0.06088062483184189, 0.06275033169935945, 0.06468611978131239, 0.06664642970893257, 0.06863629057143915, 0.07064372265883198, 0.07273653020478753, 0.07478302656435427, 0.07685583783608467, 0.07890870547636886, 0.08103737508416468, 0.08319834010608346, 0.08536814041033373, 0.08755937634107763, 0.089773499642428, 0.09200630156985617, 0.09426141220730888, 0.09653463498356406, 0.09882779441235577, 0.10115145893233986, 0.10348214547529343, 0.10584514332920071, 0.10821303895521148, 0.11060049751493954, 0.11305791075980046, 0.11547673887251259, 0.11789128635617903, 0.12035482561890867, 0.12283657942558232, 0.12536697101081817, 0.1278799451598765, 0.13041162237948975, 0.13296139668974805, 0.1355287166772407, 0.13804589385839003, 0.14065533701815155, 0.1433116767754582, 0.14594170565487755, 0.1485863447213473, 0.15123451136017776, 0.15390919119691238, 0.15658098060197584, 0.15928454611732032, 0.1620004700592488, 0.16479960418960712, 0.16753137165330903, 0.17027769699999143, 0.17304185006281284, 0.17582114839717278, 0.17857517428916353, 0.18138845141606436, 0.1842242498466107, 0.18705937668315487, 0.18990668469332084, 0.1927315487954333, 0.19560721540111745, 0.19849640489186673, 0.2013915658023188, 0.20429713486169876, 0.2072495159492591, 0.2101715514592551, 0.2130953441961199, 0.21604380633874457, 0.21900382197402224, 0.22202611235971878, 0.2250024492453685, 0.22795109053250728, 0.23096034254523687, 0.23398037277962633, 0.23699841629356838, 0.24004145536542595, 0.24311439325860715, 0.24617482518752318, 0.2492464347859612, 0.25239085776138237, 0.2554767235877822, 0.25850615124402254, 0.261629174715512, 0.2647615658485184, 0.2679361639287766, 0.27108361006433607, 0.2742118219652991, 0.277386305219277, 0.280570444133739, 0.28373352923955625, 0.2869413515656939, 0.29021565320278214, 0.29343325298864986, 0.29666320702728055, 0.29984724790811806, 0.3031088024727902, 0.30643170543864956, 0.30970435894137094, 0.3129893767210231, 0.3162230873603567, 0.3195405395878245, 0.3228701313271346, 0.32620459097623583, 0.3295486159651198, 0.3329515639908149, 0.336309474945593, 0.33961703451308306, 0.3430092258948393, 0.3464107532246387, 0.34985650957212805, 0.3532734777184362, 0.3566428404201205, 0.36009201135225655, 0.36355012070491266, 0.3670485124421405, 0.3705219603439973, 0.3740418321373711, 0.3775348292973982, 0.38104180434802826, 0.3845588901188116, 0.38809359799053317, 0.39160149550890183, 0.3951673902200138, 0.3987439140136389, 0.4022985882982956, 0.4059010931856202, 0.4095546911921787, 0.41317096136289316, 0.41679962564760636, 0.4203752608823084, 0.424036815749553, 0.4276851343786171, 0.4313670114176167, 0.4350570683472712, 0.43876851719361243, 0.44247475062291264, 0.44619841277267536, 0.4499242403301449, 0.4536609578049882, 0.45740859969802916, 0.4611671694326824, 0.46492937884048874, 0.4687106225439736, 0.47250223733812485, 0.4762460793756393, 0.48006564546305514, 0.4839302647253313, 0.4877592061407645, 0.49159784085969, 0.49540430357303683, 0.49926727571225626, 0.503139031822856, 0.5070158712521796, 0.5109000395745639, 0.5147443517574385, 0.5186491778308249, 0.5225531708562439, 0.5264681840565211, 0.530387959913663, 0.5343053863338574, 0.5382359844335878, 0.5421784361007944, 0.5461173008405807, 0.5500611096002974, 0.5539606608061677, 0.5579199905319555, 0.561879046167975, 0.5658417879393443, 0.5698060854739119, 0.5737446585131254, 0.5777153145896935, 0.581665695431302, 0.5856382636724136, 0.589609309106806, 0.5935897273722704, 0.5975562679566616, 0.6015143934348125, 0.605479235497768, 0.609441841320295, 0.6133891499552722, 0.6173477926440268, 0.6212859549670879, 0.6252380116319067, 0.6291642383312114, 0.6331067739164765, 0.6370416079649022, 0.6410410960876195, 0.6449504456327539, 0.6487970443423454, 0.6527034188630918, 0.6565998465278368, 0.6604712838392557, 0.6643480680849387, 0.6682088034054716, 0.672060714325517, 0.6758989672673068, 0.6796885146429554, 0.683502137133098, 0.6873510780029856, 0.6911229912201159, 0.6948797195310843, 0.6985767744603953, 0.7023059213810738, 0.7059584307428414, 0.7096534526037039, 0.7133238289327336, 0.7170274916524048, 0.720640615771855, 0.7242170448910688, 0.7277867855011131, 0.7313317684863128, 0.7348221611748931, 0.7383189456723814, 0.7417760544456842, 0.7452160588983601, 0.7486254369758333, 0.7520272069986014, 0.7553705409974129, 0.7586808682663415, 0.7619611557069186, 0.7652083549068706, 0.7684070473939433, 0.7715872258337882, 0.774678150036259, 0.7777910081610655, 0.7808627216535127, 0.7839310262338276, 0.7869143734782477, 0.7898064946367834, 0.7927146283861016, 0.7955777650478654, 0.7983936078488842, 0.8011654826390611, 0.8038888427546516, 0.8065669384318466, 0.809196972760118, 0.8117855407677952, 0.8143164985986928, 0.8168122377124698, 0.8192410632223357, 0.8216193385174476, 0.8239098067493836, 0.8261887623525609, 0.8284413908242128, 0.830605293192154, 0.8327141834948576, 0.8347435582148671, 0.8367427284026459, 0.8387101435261707, 0.8405872148912212, 0.8424054734548341, 0.84414222427701, 0.8458429206876839, 0.8474409866065445, 0.849020707731016, 0.8505341802008167, 0.8519665376687005, 0.8533482941756895, 0.8546872855498172, 0.8559291374298459, 0.8571035601218251, 0.8582353884275024, 0.8592699779476947, 0.8602095699372233, 0.861111300044786, 0.8619422067074874, 0.8626563924781513, 0.86334989093877, 0.8640575018327677, 0.8645899018907619, 0.8650521536891354, 0.8653761685820132, 0.8657039749519307, 0.8659825802214709, 0.8661538834114937, 0.8662498993977338, 0.8662066497833502, 0.8661588757552721, 0.8660237745336609, 0.8658169406480691, 0.8655298922207663, 0.8651736546728389, 0.8647251539626708, 0.8641628360670177, 0.8635600154414996, 0.8628758337788387, 0.8621758744923728, 0.861321308636897, 0.8603569024373967, 0.8593517566647184, 0.8582668637187649, 0.8571439404705127, 0.8558941415827356, 0.8545395955312559, 0.8531378780312425, 0.8516564937548952, 0.850064562453709, 0.8484277404225063, 0.8467495119432511, 0.8449452438429306, 0.8430624880737535, 0.8410540208573623, 0.8390202646992788, 0.8368981947062708, 0.8347037433515055, 0.8324287989782687, 0.8300793389862317, 0.8276442991560472, 0.8251270027405939, 0.8225356380030413, 0.8198663809689481, 0.817114291154066, 0.8142914648861093, 0.8113447682395619, 0.8083751673121501, 0.805327409660936, 0.8022950686385577, 0.7990821472806713, 0.7957972409873543, 0.7924443383528905, 0.7890214917008822, 0.7854436386541368, 0.781892603145269, 0.7782878367859151, 0.7745880086982242, 0.7708178493543604, 0.7670109651389049, 0.7630987713133492, 0.7591153901691583, 0.755073062342874, 0.7509660391050008, 0.7467224588423295, 0.742497572595314, 0.7382771320487682, 0.7339119855089725, 0.7294872708602718, 0.7249874280190578, 0.7204480274003202, 0.7158233590719512, 0.7111723604192985, 0.7064638549926524, 0.7017590337661526, 0.6969317316468435, 0.6919668987226383, 0.6870506363724874, 0.6820806879607129, 0.6770767796015543, 0.672001827182684, 0.666889693793684, 0.6617185311556109, 0.6565025356513902, 0.6512647172294972, 0.6459599682705659, 0.6405590017019983, 0.6351825863906847, 0.6297652547523781, 0.624315851159256, 0.6188204821891404, 0.6132856315846028, 0.6077204673433404, 0.6021221282784466, 0.5964739086800145, 0.590815862132811, 0.585169710578094, 0.5794482135854518, 0.573702304215451, 0.5679676706146142, 0.562172158866386, 0.5563360101758054, 0.5505065344094592, 0.5446589910282955, 0.5388164210087835, 0.5329337620035008, 0.5270181007579382, 0.5211130470795853, 0.5151961538922382, 0.5091888921569799, 0.5032625359051233, 0.4973748322587735, 0.4914197013783009, 0.48545923076546377, 0.4795185124547196, 0.4735488254683142, 0.46750691699847463, 0.4615485037838884, 0.45563436799995444, 0.44966985322341807, 0.4437104559131894, 0.437737592668314, 0.4317951210961945, 0.425891666055461, 0.4199631153434767, 0.4140474757458794, 0.40816776563433066, 0.4022788847754056, 0.39631704921174277, 0.3904763907489934, 0.38465063384643744, 0.3789233323890269, 0.37312249622531896, 0.36730105865119533, 0.3615565308807936, 0.35583623211538173, 0.350116127765452, 0.34445163376110305, 0.338841255249798, 0.3332285810685538, 0.3276472782474699, 0.32207129947043694, 0.3165597365646523, 0.3110797187751815, 0.30563646393060895, 0.3002291364955492, 0.2949207594366924, 0.2895812924503691, 0.28426134312763196, 0.2790117788488093, 0.2738053815122162, 0.2686739296837259, 0.2635526856948854, 0.25846270901527946, 0.25343939217500716, 0.24846407157643002, 0.2434848986702209, 0.2386146579226309, 0.23378824685937855, 0.22901460587038003, 0.22429059631579007, 0.21966637288754845, 0.21503874958551902, 0.21042858497240985, 0.20591753242537972, 0.2014610636671905, 0.19703825782573148, 0.1926962760835266, 0.18844645155247258, 0.18421247837683685, 0.18003816286132268, 0.17593491107760587, 0.17188004924328837, 0.16789056918274256, 0.1639591185660248, 0.16009035429818605, 0.1562827840075206, 0.1525405850288505, 0.1488582852758929, 0.14524391811441015, 0.14169348569935972, 0.13822364151323036, 0.1347999252427559, 0.13145464465987874, 0.12816088949130733, 0.12493380475452935, 0.12173707799844044, 0.11864794270229423, 0.11563798747775547, 0.11267662067765184, 0.10978127886633941, 0.10694116866760327, 0.10417953565770749, 0.1015017081672174, 0.09886919082020788, 0.09630353920060387, 0.09379920779108532, 0.09136766717914971, 0.08899689841313213, 0.08669838268011723, 0.08446555215205132, 0.08229103813478468, 0.08019015157024353, 0.07816685152869927, 0.07619397722276873, 0.0742863936322119, 0.07245106225854724, 0.07067221667564974, 0.0689544736114967, 0.06730513656258014, 0.06571947925179047, 0.06417347999850553, 0.06271690195868823, 0.06133045763924844, 0.05999456107690091, 0.05871962768808458, 0.0574979603893345, 0.05634454222879463, 0.055293874837537366, 0.054252830809070146, 0.05327245726668731, 0.05231556752683893, 0.05145853161506355, 0.05063395289863269, 0.049891484863355026, 0.049202639399879906, 0.04861058564229849, 0.048022191808955506, 0.04745216945561187, 0.04697684278523239, 0.04655236706881542, 0.04620537593504861, 0.04587731099936029, 0.04555794586825097, 0.04533516816597857, 0.045158666073594825, 0.04502603441296508, 0.044940500891258, 0.04488471718395629, 0.04488887642153126, 0.04493506668451033, 0.04502627010868943, 0.04515406984525613, 0.045378316776849954, 0.045578510675726665, 0.04582038885573879, 0.04611353722011303, 0.046433511367659566, 0.046732025111677886, 0.04713519188906473, 0.047570875601448286, 0.04807644802665173, 0.04857003014537235, 0.04907410537754182, 0.04963385636809913, 0.05022237751193745, 0.05083508856185214, 0.05147875445182153, 0.05217898431162889, 0.05286919342883652, 0.05358493419243514, 0.054346788275509726, 0.0551072361442833, 0.05578556498157229, 0.05660441169015377, 0.05743795392244803, 0.058342089450054875, 0.05919665419721027, 0.060076766464831996, 0.06096208205606084, 0.06186230536817873, 0.06273820428635833, 0.06366978126671186, 0.06462539921305212, 0.06557341884970314, 0.06653024548874002, 0.06750041554289307, 0.06847143074338342, 0.06943792173290537, 0.07042209551273772, 0.07141011357387979, 0.07240111583615447, 0.07339423879772063, 0.0743849854920843, 0.07538021292348844, 0.07637476202764111, 0.07741501206885483, 0.0783997376370744, 0.07934762226083471, 0.08033468465906672, 0.08131682281461239, 0.08224237783291237, 0.08321865855015309, 0.08421742692467589, 0.08516880078843939, 0.08611101268746844, 0.0870905575146691, 0.08800632825498986, 0.08884262853066636, 0.08974896492036948, 0.09064056210722685, 0.09157148610131821, 0.09242546642995818, 0.0932809988112076, 0.09410628884317292, 0.09491765363190977, 0.09570144435078344, 0.0964838048797176, 0.09718712968879883, 0.09794201501198774, 0.0986747949783828, 0.09936718037168919, 0.10005761954201646, 0.10071173502318063, 0.1013564841185917, 0.10197672543077688, 0.10260510343984917, 0.1031720342452738, 0.10372876556697162, 0.10424786170188154, 0.10470945500224205, 0.10518641953801318, 0.10563748967450566, 0.10606250031747656, 0.10646127558457012, 0.10682636859441562, 0.10717303615993412, 0.10749249848401768, 0.10785907338299444, 0.1081143124366178, 0.10831343341686157, 0.10852520346952475, 0.10871031173248283, 0.10881577438482037, 0.10895327792208936, 0.10913292537901315, 0.10920046276793509, 0.10924195845667255, 0.10921703669071808, 0.10921027598976527, 0.10914143408304192, 0.10908006953729936, 0.1089875929032356, 0.10888975919660947, 0.10873281987385447, 0.10857981211056414, 0.10836130153201333, 0.10811602102676585, 0.10780748447329433, 0.10751279359111289, 0.10728516026946563, 0.10692018837535304, 0.10653194012014283, 0.10603092194418556, 0.10560591880837002, 0.10513685824035297, 0.10465510294123534, 0.10414393420484386, 0.1036438668901802, 0.10307049635532475, 0.10245706088276613, 0.10183463613595525, 0.10118625433001872, 0.10053950478249678, 0.09983682826636571, 0.09911080307961702, 0.09836158693547661, 0.09758937320443267, 0.09680709921479833, 0.09598799315732606, 0.09520003146475896, 0.09433144730038479, 0.09344476105788953, 0.0925216730652961, 0.09160073895167212, 0.09068592648087181, 0.08972341259003334, 0.0887435396321355, 0.08777729285965967, 0.08675920878966067, 0.08575144843110831, 0.08469999114020145, 0.08363501346184415, 0.08257646814240151, 0.0814819470898755, 0.08038611059569775, 0.07926584546597053, 0.07813417314751518, 0.07701845536547088, 0.07586097429724936, 0.07468149923202133, 0.0735071713790873, 0.07232315293881676, 0.07116431295860973, 0.06995770678062695, 0.0688008898634005, 0.06757439021067178, 0.06634507206132043, 0.06508741912939281, 0.063855504765123, 0.06262119546136904, 0.06138103447343577, 0.060137624996441916, 0.05888963702315111, 0.05764145792137379, 0.05643508127950224, 0.05517844144921847, 0.05392370270347039, 0.05276740195399852, 0.051505248646198376, 0.05023511850869825, 0.04899144449142733, 0.04775471765308633, 0.04648687447904351, 0.04526916157395753, 0.04412935829718086, 0.04291363028953915, 0.04170851109583328, 0.0405721829684339, 0.03938124831380697, 0.03815745056321625, 0.03700102385922766, 0.03585609519106362, 0.03477031700161401, 0.03364378066887051, 0.03256915574601107, 0.03146939072597596, 0.03038767967054047, 0.02930588342747094, 0.028262725526552193, 0.027229660216068527, 0.026222539470224637, 0.025233223282399683, 0.02429675621973499, 0.023340340327628536, 0.022418070242570337, 0.021503237972967847, 0.020611240470316317, 0.01976598515182158, 0.018917621750780773, 0.018069028351310096, 0.017274489627035813, 0.016504219898037967, 0.015778717913979817, 0.0150560454596773, 0.01437126208657253, 0.013701588398775114, 0.013060318997127422, 0.012485927689148848, 0.011897694151360116, 0.011375600875452044, 0.010846381611674762, 0.010350985340810354, 0.009872986390600958, 0.009447125909122101, 0.009061394633330474, 0.008700587762921664, 0.008373566683127305, 0.008127783551377067, 0.007863114838047544, 0.007617526959050727, 0.007429567171070193, 0.007277759669524333, 0.007229489166970434, 0.007142116796672254, 0.007084452130632273, 0.007079396232974883, 0.007113881865050869, 0.007191518329851283, 0.0073046138611181045, 0.007417591135911644, 0.007615484448024749, 0.007851175057751856, 0.008146927507580252, 0.008456866510566688, 0.00885441682897475, 0.009239439280670149, 0.009668024169376451, 0.010130975362755036, 0.010647530232772892, 0.011205108615259083, 0.011807652547018802, 0.012453116411370056, 0.013174318700058012, 0.01390190153670075, 0.014701908473963398, 0.015516317679327441, 0.016377272923467568, 0.01730449438986889, 0.018255307593335317, 0.019216862529547, 0.02026611035205223, 0.021359884175401793, 0.022520092950297613, 0.02370052458394477, 0.02493251984319432, 0.02620444482440495, 0.027522711230287055, 0.02885094408058434, 0.03026632861725744, 0.03173678719344135, 0.033239429272243055, 0.034787388016339904, 0.03645343178650012, 0.03808322951137732, 0.03971738371785242, 0.04145193249511912, 0.04323275611702643, 0.045088887274539385, 0.046958523858798916, 0.0488433140744023, 0.05081249964340085, 0.05282719153446541, 0.054898331129333865, 0.05700278170055335, 0.05920428658704931, 0.06139464344048465, 0.06363388739968426, 0.0658779347269526, 0.06821899785988432, 0.07063417586692163, 0.07306165526895883, 0.07553574723208425, 0.07801439443233782, 0.08058612897152366, 0.08323761476992071, 0.08589170863847109, 0.08856780054895436, 0.09131581316255499, 0.09410756419532042, 0.0969792987319468, 0.09985369997201704, 0.10273910372401589, 0.10570845447179017, 0.10872055225763838, 0.11177710618430471, 0.11487412781217007, 0.11802632890334305, 0.12120650125175722, 0.12442948153289443, 0.127727643459738, 0.1310311715975883, 0.13434027123111547, 0.13773545004975918, 0.14117106479204689, 0.14465961006763797, 0.14817382576365715, 0.15175755140497632, 0.15534864578923807, 0.15898110556519005, 0.16262891405735513, 0.1663455619846272, 0.17012949744175404, 0.173918623276867, 0.17774697357202873, 0.1815558777901629, 0.18546835512510737, 0.18942424747725123, 0.19340420953925855, 0.19741889518070013, 0.20150079339006277, 0.20558017708047224, 0.2096772898960113, 0.2138302078579524, 0.21801693129086397, 0.22219714018011993, 0.22645540026886576, 0.2307858419052386, 0.23509957461336098, 0.23944585693005954, 0.24378604538452348, 0.248200716599598, 0.25267695173898275, 0.2571450444471558, 0.26164340498698513, 0.2661188342709306, 0.2706827699947962, 0.2752651367205918, 0.27988126318761025, 0.28452239043903277, 0.2891738320524186, 0.29386626719188763, 0.2985768119850299, 0.30331686711294814, 0.30807975465005905, 0.31284344462690983, 0.3176539838556456, 0.32257243251049084, 0.32741325336170085, 0.33227926593006607, 0.3370823054920066, 0.34200674986387747, 0.34697402249324866, 0.3519298739115839, 0.3569041189672724, 0.3618762803682657, 0.3668883086175033, 0.37187246079732533, 0.3769210093213262, 0.381981984884246, 0.3870480096412042, 0.39213434225627963, 0.39721035191753284, 0.4023221224244003, 0.40744357435035056, 0.41258904446291284, 0.4177273827304509, 0.4228282333856305, 0.4279914938744857, 0.4331608017940276, 0.43832326219028206, 0.4435056444592806, 0.4487506971450092, 0.45393457448254826, 0.4591256401306839, 0.4642830683173173, 0.46949093522123136, 0.47470476490381613, 0.47991629562789634, 0.48512924902733323, 0.4902667274201627, 0.4954902488054406, 0.5007361866495492, 0.5059465410469659, 0.5111533496042322, 0.5163198217564562, 0.5215226626008794, 0.5267274427111284, 0.5319145490174263, 0.537094342820063, 0.5422971838296305, 0.5474568754644127, 0.5525348778840379, 0.5576886245092051, 0.5628291950343536, 0.5679472294623101, 0.5730616800075038, 0.5781414159642267, 0.583228506041871, 0.5882988630902866, 0.5933194416757238, 0.5983593161825572, 0.6034229254885559, 0.6084173188201665, 0.6133936721341536, 0.6183039919043913, 0.6232478698614986, 0.6281523145006147, 0.6330516246234025, 0.6379259628349248, 0.6427512912413462, 0.6475773122698564, 0.6524245891695257, 0.657188459944385, 0.6619264293481874, 0.6666375718505242, 0.6713209598010299, 0.675946611531321, 0.6805753799996308, 0.6851719823119352, 0.689713939353697, 0.6942468721625611, 0.6987533559485339, 0.7032135051069746, 0.7076374398317755, 0.7120407807356651, 0.7163880353292582, 0.7206160595972765, 0.7248977086582484, 0.7291354550303364, 0.7333308796469566, 0.7374798108381041, 0.7416366779305003, 0.745689052758163, 0.7496987066363509, 0.7536174588072535, 0.7575447475349552, 0.7613947476580324, 0.7652286920282079, 0.7690116423728554, 0.7727958820411843, 0.7764690045708156, 0.7800183567999347, 0.783601310078316, 0.7871288994107906, 0.7906316850958087, 0.794043658805982, 0.7974245140610298, 0.8007233450446346, 0.8039673507214048, 0.8071665152450923, 0.8102967811472633, 0.8133138722128916, 0.8163365513895349, 0.8192973452533351, 0.8222503048788643, 0.8250791398299043, 0.8277678971210628, 0.8304855385984825, 0.8331366846853501, 0.8357501698610789, 0.838263948680492