0.031179730591322053, 0.030861610987081112, 0.030595403290068133, 0.030367739025106665, 0.030152596392680607, 0.02998849053744799, 0.029838314805275785, 0.029717200335147107, 0.02961184775416801, 0.02959272018931488, 0.029502798958785093, 0.0294411924207045, 0.029374969245062922, 0.029319791510169183, 0.02928594243967953, 0.029247537063020225, 0.029112578645554492, 0.029103564911448318, 0.02909588878190595, 0.029093007036690818, 0.02908931454361872, 0.029048077350015328, 0.02905673635454373, 0.029067690618442416, 0.029084869208676947, 0.029103054645034203, 0.029126643729207, 0.029156527087046323, 0.029193562302754373, 0.029218163992652806, 0.029274519826254616, 0.029324671661836926, 0.029400502641554648, 0.029485603531772913, 0.029691661947347254, 0.029783919164301335, 0.02988833664589381, 0.030017144250264784, 0.030163337179034813, 0.030198621446013492, 0.030395820041288137, 0.030638283641267684, 0.030852746292524137, 0.031081613396750335, 0.031214751991279575, 0.03148836440961236, 0.031868213436168184, 0.03215112382792751, 0.03245214589824845, 0.032745406381225674, 0.033087048062073285, 0.03337347643759911, 0.033760205590687126, 0.034161518495339264, 0.03454345717824744, 0.0349813437554379, 0.035522103153521896, 0.03598077232438959, 0.036461709024813035, 0.03683092045759198, 0.037373722142441564, 0.038057012077915266, 0.03861541127719693, 0.0391982609417592, 0.03971805676132351, 0.040360779132100254, 0.04104924330953166, 0.04172838718086377, 0.04242991203295419, 0.04307549962377731, 0.043832921741990855, 0.04471148868402696, 0.04549518031268387, 0.04630555063277174, 0.047075518576568776, 0.0479476848892222, 0.048860275524806054, 0.04977668911010329, 0.0507181672274212, 0.05169091725209853, 0.052682900094022364, 0.05368969618697659, 0.05473639343874484, 0.0558094854106557, 0.05686852969925185, 0.05800068489135224, 0.05912012794420412, 0.060308122102408275, 0.06152046079752891, 0.06281341421164577, 0.06406998188142218, 0.0652864232210696, 0.06661174779902153, 0.06796341948927252, 0.06938885948055894, 0.07078957141584508, 0.07217179120785948, 0.07364111677728763, 0.07513912987798828, 0.07668682688978028, 0.07824134174768224, 0.07977189595645957, 0.08139655854607447, 0.08310838439342093, 0.08478405643714787, 0.08649313750097773, 0.08830275755587295, 0.09007039221409989, 0.09177045043042277, 0.09362565312357088, 0.09551147163594155, 0.09750129045534744, 0.09944055729597508, 0.10145376454128667, 0.10346007890934614, 0.10550411833674264, 0.10750376636302002, 0.10963219876434659, 0.11174003252833685, 0.1139392048751774, 0.11616795643553299, 0.11850860981643752, 0.12078817062572991, 0.12312410715443145, 0.12547281149624756, 0.1278582234741492, 0.13023334672023307, 0.13269706046301974, 0.13520557001280134, 0.13773418152980682, 0.14029676358950938, 0.14293117546624312, 0.14555676305980425, 0.1481657972548463, 0.15086948496964378, 0.15360539976546778, 0.1564144362937963, 0.15920983872981326, 0.16200781315914456, 0.1648762051139393, 0.16777674696459127, 0.17062189592889093, 0.17359754358771398, 0.17672258176274558, 0.17973717142626114, 0.18278656359850773, 0.1857389142638291, 0.1888726001454996, 0.19199689350622412, 0.19518667962273245, 0.19840095946853514, 0.20158488996765261, 0.2048566902033993, 0.20817156527046043, 0.21148675929380684, 0.214826896611218, 0.21823589752807368, 0.22162084685456038, 0.2250042929492309, 0.22844778282276473, 0.23191635341560848, 0.235500106908999, 0.23900651339380086, 0.24257997155665229, 0.2461387262120487, 0.2497264913538295, 0.253216530120457, 0.2568741445818263, 0.2605994245561859, 0.2642868270145077, 0.26799475042029564, 0.271812902571269, 0.2755484085484005, 0.27922874284875815, 0.283019878943342, 0.2868273884354326, 0.2905660906185876, 0.2944151383724544, 0.2982943008772831, 0.3021601951363513, 0.3060368757979078, 0.30997649170235964, 0.31386705621252203, 0.3177147900330739, 0.3216365734349588, 0.32556598909665124, 0.3294734240688276, 0.3334203685009806, 0.3373863680443589, 0.34134006212739837, 0.3452982607420636, 0.34931575220008004, 0.35327409218359296, 0.35721186406308447, 0.3611837018099072, 0.3651574357708737, 0.36900387473109925, 0.37299489663894053, 0.3771090787629164, 0.38106753763894524, 0.38502539977483685, 0.388926068336012, 0.39288616054618336, 0.39678652861498653, 0.4007380734550102, 0.4046779998263193, 0.40874590795959637, 0.4126437774661006, 0.4164141445664692, 0.42031570181460826, 0.42420202041625565, 0.42808128320944977, 0.43193426971623644, 0.43570942369409615, 0.4395361511649029, 0.4433412251443006, 0.4471796819606559, 0.45093327924211707, 0.45462909907934107, 0.4583466993942622, 0.4620402121624316, 0.4658313449322423, 0.46945891915500704, 0.47292988831320143, 0.4765338025511119, 0.4801068681658834, 0.4837651505776928, 0.48726004348329227, 0.4907404570084477, 0.4941799443717817, 0.49759072652749203, 0.5008400092657773, 0.5042052657068553, 0.5075415578215715, 0.5108237567946716, 0.5140652513379528, 0.5173908497219885, 0.5205333538901167, 0.5236374576812423, 0.5267076705543627, 0.5297389490500127, 0.5326685806892789, 0.5356253519890709, 0.5385909154582621, 0.5414466929241755, 0.5442574091394505, 0.5468498147545062, 0.5495885212578983, 0.5524089282954857, 0.5550137498182366, 0.557568657059185, 0.5599559620094504, 0.5624226273896088, 0.5649667773645953, 0.5672969977882731, 0.5695752275272254, 0.571701050673983, 0.5738840434358826, 0.5759504316689359, 0.5780177160963724, 0.5800200492473213, 0.5819312598826314, 0.5838071271836017, 0.5858002056858794, 0.5875199566079882, 0.5891835570588643, 0.5906232326006668, 0.5921909030662286, 0.5938169691339108, 0.5952287202743851, 0.5965778702961801, 0.597735049890478, 0.598972039679172, 0.6001886746710248, 0.6012735144830708, 0.6022887091517969, 0.6032280367276145, 0.6041035084525644, 0.6050128060156469, 0.6057324082544187, 0.6063861122468197, 0.6068298922778712, 0.6073664877773625, 0.6078843204677189, 0.6082596939153766, 0.6085618113921972, 0.6087991522229186, 0.6089528694525665, 0.6090505729187495, 0.6090547876241611, 0.6089859547173241, 0.6087620815542689, 0.6085564522813904, 0.6082518531542435, 0.607892116003787, 0.6074534985098725, 0.6069190292086993, 0.6063263795236953, 0.6057631695681446, 0.6050005439954653, 0.6041665634997984, 0.60322582627753, 0.6022523905156038, 0.6010617508662123, 0.5999577763430418, 0.5987716301159576, 0.597498763793288, 0.5961527442331678, 0.5948356176491533, 0.593319015747591, 0.5916556442389405, 0.590006699038646, 0.5882825835014308, 0.5866268617861298, 0.5847364137564967, 0.5826700354269664, 0.5806627941152697, 0.5785832749861406, 0.5764175117438461, 0.5741971138016164, 0.5719462722149314, 0.5695789236627744, 0.5671440635379833, 0.564598351175312, 0.5620352152735678, 0.5594733818095886, 0.5567649140215031, 0.5539934101723726, 0.5511183351872811, 0.5482268367137147, 0.5453206239204816, 0.5422951022577372, 0.539209701935594, 0.535916162694505, 0.5327311723321915, 0.5295115213112743, 0.5261908217247695, 0.5228087129535256, 0.5193694801657001, 0.5158682492047054, 0.5123389112674909, 0.5087207001570053, 0.5050493012061352, 0.501281932847721, 0.49751255603320904, 0.4936875144407385, 0.48981434917847166, 0.4858909234128263, 0.48190979897520403, 0.4778908589816212, 0.47397954852202046, 0.46984859593292294, 0.4656820316646039, 0.461474059712731, 0.4572372544130125, 0.45283673702569643, 0.4485457630517717, 0.44421319222540856, 0.4399427559403685, 0.4355191026372923, 0.43102368886697656, 0.4265440553938301, 0.42203274566476745, 0.4174209900486219, 0.4128588036098365, 0.40823843275681165, 0.40361748547925613, 0.39896668279389985, 0.3943462458359947, 0.3896340147935356, 0.3848424041527193, 0.3800966499102585, 0.375329039452836, 0.3705529514535321, 0.3657452483026711, 0.3609446580293423, 0.35610305622126237, 0.3512494710480073, 0.3464696868353331, 0.3415851433219194, 0.33675245830666206, 0.3318543923128499, 0.32695709649120214, 0.321961715712865, 0.3170794416855398, 0.3121993900858331, 0.3073105693468102, 0.30242127374613487, 0.29744829349169344, 0.2925727595389253, 0.28776307446942945, 0.28287864820609554, 0.2780006946350529, 0.2732704524188954, 0.2683916136877643, 0.2633909993106117, 0.2585663363268532, 0.2537523951223066, 0.24910812363960005, 0.24430020411085349, 0.23948126911460646, 0.23472585431335086, 0.22999284994962446, 0.2251517126140101, 0.22048215387562256, 0.21601056352500891, 0.2113544346501535, 0.2067293235133143, 0.20214131580162115, 0.1975783697772236, 0.19297785619600116, 0.18848905151986536, 0.18402976436591703, 0.1796740683483808, 0.17526813948874337, 0.17093431618424443, 0.16659875446983222, 0.1623034371123253, 0.1581041348081248, 0.15388350136583287, 0.1496929823458576, 0.14556370146914877, 0.1414786466226359, 0.13749364720012894, 0.13349140365006462, 0.12940094238957134, 0.12551380159122258, 0.12166817238073185, 0.11790629216952629, 0.11414271373293218, 0.11049404811974434, 0.10681859165325747, 0.10319651571567949, 0.09970976707459157, 0.09618510695728626, 0.0926115906603385, 0.0892183759691475, 0.08587776355481432, 0.08264889393175812, 0.07940857191388265, 0.07628775262793516, 0.0731565136597825, 0.07008756085159326, 0.06708072562360932, 0.06413591734527029, 0.06137556686155172, 0.05853931785234722, 0.055772063243981124, 0.053105015100556666, 0.05046927269859143, 0.047908028014362114, 0.0454081791703167, 0.04297605694205971, 0.040512040075374144, 0.03822653934944738, 0.03606618396971399, 0.03389516996146117, 0.03178991140460982, 0.029791241442446277, 0.027812410105745353, 0.025930914759222795, 0.02408452002565531, 0.02230752045997942, 0.020573302404426952, 0.018937355955231005, 0.017347988875959872, 0.015848603869716742, 0.01441508175318601, 0.013094258019555008, 0.01178710442458159, 0.010604330883073117, 0.009427894139086868, 0.008323080112765132, 0.0072542525293627265, 0.00629522850546339, 0.005374957173819128, 0.004555246741751695, 0.0038014364625351634, 0.0032476983532783786, 0.0026088695301167216, 0.001976491054369108, 0.0014920502881493134, 0.0010752447238516721, 0.0007927620774740066, 0.0005016513232453968, 0.0002225557256356439, 7.859327764547528e-05, 0.0, 3.6063312599284e-05, 8.110430847065734e-05, 0.0003217320395814792, 0.00048446010560484917, 0.0007203376869077008, 0.0009519074079199707, 0.0013388679649685674, 0.0017027519095565266, 0.002228928725738368, 0.0028133721887688393, 0.003502870536322337, 0.0041983010853568125, 0.005001491108491015, 0.005812824520559567, 0.006687040076313926, 0.007541691788134724, 0.008549600755964485, 0.009727193941244074, 0.010832622328060194, 0.012000236034960265, 0.013296010074326844, 0.014576330076273838, 0.01580291046053014, 0.01722229028445169, 0.01885557086540516, 0.02036145863585549, 0.021929251202240374, 0.023481494733079988, 0.025177869297932004, 0.026866109939195255, 0.02867573424652567, 0.030533679144563983, 0.03241646948255474, 0.03437350455962342, 0.03653148320297302, 0.03856171905335719, 0.040646788316492606, 0.04266277940255636, 0.04486872810918174, 0.04728474985340556, 0.04955726085720715, 0.0518825440117788, 0.0541744243183694, 0.056611197709305415, 0.059041927063463055, 0.061571404190954915, 0.06414041731970165, 0.06687414072026178, 0.06950574272076278, 0.0721161395247397, 0.07484659779807461, 0.0776165791836303, 0.08037006981000146, 0.0832242535090747, 0.08614800108963798, 0.0890667573401231, 0.09202168673744915, 0.0951055501387071, 0.0981194099157146, 0.10103892965135262, 0.1041479929809677, 0.10728678086805855, 0.11059809566950154, 0.11377802601406492, 0.11693119639435677, 0.12019262755968382, 0.12348519096423184, 0.12687235813995776, 0.13021708019180267, 0.13348961128186354, 0.1369120051291175, 0.14035907847438073, 0.14391523576493315, 0.14740049532025878, 0.15086797079791928, 0.15441592206857802, 0.157988302323209, 0.16166046056163538, 0.16527074628532423, 0.16882088020809835, 0.17249579131562154, 0.17619105648217118, 0.17990354468480904, 0.1836392161726498, 0.18747308279402902, 0.19123749444078986, 0.19502526778849297, 0.19885297221334028, 0.20268254941772842, 0.20645808076929273, 0.210339872912868, 0.21423746058918264, 0.21817693200577, 0.22210231634034863, 0.226044452913773, 0.23000292333836944, 0.2339773211509773, 0.23794392649992788, 0.24195195292083144, 0.24592970920517337, 0.24997001385879772, 0.2540209564134871, 0.2581060072360811, 0.2621756591190494, 0.2662808615916854, 0.27037182775678276, 0.27447593653192454, 0.2786510953878501, 0.282772917395976, 0.2869303896221113, 0.29107927852230964, 0.29524295411392065, 0.299324337641196, 0.30352723577736385, 0.3076963368989637, 0.3119185607949565, 0.316145722838813, 0.32038694889026426, 0.32462394741055617, 0.32889646130892736, 0.3331426085698665, 0.33739694064837455, 0.34173797889229623, 0.34599812569568417, 0.3501478118401862, 0.3544465862313448, 0.35874887425434565, 0.36306662656063754, 0.36737527338947723, 0.3717908277310888, 0.37609633289941724, 0.3804124687333792, 0.38458678377276884, 0.3889409027363278, 0.3934289609208659, 0.397766357437308, 0.4021121890669249, 0.4064774527441035, 0.4108367425283235, 0.41517997158921266, 0.4195561390991608, 0.4239371184947518, 0.4281768242261028, 0.43258495948739795, 0.43713464357598675, 0.4415168079912672, 0.4459046346134952, 0.45015767564229386, 0.45457305822130717, 0.4589761106481986, 0.4633861583204167, 0.4677934708241701, 0.4722219537389237, 0.4766224883589499, 0.4809822271655291, 0.4853880845411109, 0.4897918565746582, 0.4943017671563924, 0.4986886900111416, 0.5029754265302783, 0.5073844276463285, 0.5117908779327089, 0.516122081934917, 0.52053316278975, 0.5249496563488985, 0.5293473655718876, 0.5337405632617178, 0.538251982734889, 0.5426214266416248, 0.5467693215210515, 0.5511721135765042, 0.5555634417058882, 0.5599792736857079, 0.5643460182112545, 0.5688339832958403, 0.5731706046248484, 0.5775077214123254, 0.5817977057276341, 0.5861388300876583, 0.5903321919177521, 0.5946811268667848, 0.5990162316849003, 0.6034023333103489, 0.6077035742918508, 0.6119728881150779, 0.6162596441100798, 0.620535987514577, 0.6247697239270337, 0.6290288702519962, 0.6333714820480272, 0.637592946319489, 0.6418069489913804, 0.6458609489911448, 0.6500764411084838, 0.6543490827551868, 0.6585180692524623, 0.662673311226908, 0.6668697515057868, 0.6709891172694691, 0.6750672636916214, 0.679165226701587, 0.6832476047269402, 0.6873137441370657, 0.6913629941833637, 0.6952256031362278, 0.6992605115520031, 0.7032670988032552, 0.707310221046624, 0.7112540280303147, 0.7151251998816184, 0.7190288719183426, 0.7229061093584603, 0.7267481878506336, 0.7305736307694266, 0.7343690145701629, 0.7381403654266148, 0.741883981968511, 0.7456986922725484, 0.74937333595255, 0.7529255832212707, 0.75656495067897, 0.7601729879999424, 0.7638192899652163, 0.7673546282822468, 0.7708816782537699, 0.7743559544206914, 0.7777159849588632, 0.7811403739828946, 0.784527992112175, 0.7878113619348097, 0.7911326142700984, 0.7943944507376682, 0.7976340680542728, 0.800830677893491, 0.8039871458818983, 0.8070971248491513, 0.8101784059018237, 0.8131996542693873, 0.8161777069860888, 0.819082830220015, 0.8219764063372932, 0.8249778346947695, 0.8277580860835773, 0.830499403229361, 0.8330950453466252, 0.835766538964099, 0.8383823698182209, 0.8409543159219386, 0.843474842938937, 0.8459812471280713, 0.8483923073911285, 0.8508163496150605, 0.8531160233591277, 0.8553662542414318, 0.8574315102139385, 0.8595956546311418, 0.861713419337846, 0.8637537120490758, 0.8657336125915425, 0.8675886428361277, 0.869454824510248, 0.8712908851613591, 0.8730225069658883, 0.8746910545669194, 0.8763223985201726, 0.8778603362878207, 0.8793267173984357, 0.880739470846391, 0.8820875880263398, 0.8834287923740995, 0.8846384996199379, 0.8857850794974842, 0.8868674798030712, 0.8878847117109493, 0.8887979431526881, 0.8896868970499893, 0.890412630478023, 0.8911730665634852, 0.8918574116479947, 0.8926146552572071, 0.8931288201118931, 0.893511741491286, 0.893898693313287, 0.8942127941016474, 0.8945265054067868, 0.8946844206233369, 0.8946557170052524, 0.8946874209036945, 0.8946407433804122, 0.8944341929506002, 0.894241468116497, 0.8940273266404714, 0.8936622703053887, 0.8932192953859853, 0.8928092003807726, 0.8921963801415718, 0.8913864539773801, 0.8906450817825908, 0.8898231784107271, 0.889014317271236, 0.8880203443479849, 0.8869313906530997, 0.8857902897439478, 0.8845724156820267, 0.8831958746445413, 0.8818340474446641, 0.880378561828879, 0.8788547433894299, 0.8772492849886483, 0.875498585998586, 0.8737395418028785, 0.8720862773581269, 0.870136758761943, 0.8681159608393845, 0.8658627937360606, 0.8637176358194765, 0.8614786983247426, 0.8591716797346075, 0.8567836262534881, 0.8543183313831925, 0.8517704160178123, 0.8492257358836384, 0.8465114043315812, 0.8437246370002157, 0.8408975003154175, 0.8379618538940584, 0.8349295002660073, 0.8318561526663086, 0.8287107815754396, 0.8253595625103095, 0.8220880256945183, 0.8187904368852087, 0.815356707496837, 0.81185031397174, 0.808234266293969, 0.8045900553976693, 0.8008329204630712, 0.7970508312264677, 0.7931966452891874, 0.7893300909420915, 0.7853285163458189, 0.7812709055479118, 0.7771394166766931, 0.772945162496841, 0.7686451216686161, 0.7643330265386777, 0.760106613274515, 0.7556508283461463, 0.7511426281908644, 0.7464040697747576, 0.7418133839974316, 0.7372974549095701, 0.7325666083949023, 0.727784537994309, 0.7228001154135799, 0.7179362927677441, 0.713107719691529, 0.708117930236705, 0.7030790955833222, 0.6978930995076418, 0.692771772390168, 0.6876310201334357, 0.682404525279354, 0.6771320167388711, 0.6718149706564853, 0.6664548343048885, 0.6610763548322208, 0.6556313355862037, 0.6501487433371914, 0.6447026496578282, 0.6391392539761663, 0.6335372116108243, 0.6279157543657043, 0.6222652560734593, 0.6164787056596115, 0.6107864220876541, 0.6050355783067938, 0.5992838734316361, 0.5935021164763195, 0.5876660621847106, 0.5818334272268404, 0.575989608791777, 0.5701056068776583, 0.5642005778807532, 0.5584103650807763, 0.5524514546183719, 0.546489909443622, 0.5405138435277285, 0.5345307646504358, 0.5285180030600554, 0.5225258989077618, 0.5164839563625535, 0.5104862508448944, 0.5044821836112684, 0.4984091179115738, 0.49240494245382455, 0.4863690458836635, 0.48035921095182055, 0.4743463158888808, 0.468381975628947, 0.462362754306912, 0.45643952683723144, 0.45042150637088363, 0.44441696449565604, 0.43844112478314523, 0.4324637088411408, 0.42642985391458454, 0.4204952842387986, 0.414574600542679, 0.40858469276332, 0.4027067751480077, 0.396926811916841, 0.39106706863200835, 0.385229487822223, 0.37930154201692273, 0.37352619873952897, 0.3678343057405386, 0.36209154630305646, 0.3563757308357902, 0.3507319250242691, 0.3450684271587813, 0.33934200100396017, 0.3337581149192821, 0.3282038778331396, 0.32261681716957996, 0.31713490866660476, 0.31180042081377884, 0.3063672998112176, 0.30097526277599906, 0.2956104757518034, 0.290304686082053, 0.2850297435026663, 0.27981131667065, 0.2745839883235345, 0.26946028735561817, 0.26437905819733115, 0.2593153615139243, 0.2543262180302286, 0.24935550717143137, 0.24446032058816886, 0.23961083239710634, 0.23482295391778393, 0.23006691765745366, 0.22552728849335726, 0.22085161410331325, 0.21623729288313498, 0.21167797094468394, 0.20718563667421344, 0.2026189659929538, 0.19826297137529747, 0.19395894574695252, 0.18972541577437033, 0.18552613557988615, 0.18147305281733075, 0.17737464149076848, 0.17333840397515973, 0.16922715554637693, 0.165332179524284, 0.16154675618000522, 0.15775415669300985, 0.15402084755096807, 0.1502685188998742, 0.14666493619046186, 0.1431260876552238, 0.13963430276709676, 0.1362007394201746, 0.1329047565469962, 0.12957950968404927, 0.12623109065444651, 0.12304525120689444, 0.11991832180416723, 0.11690034054121329, 0.11388629958375063, 0.11096136233502743, 0.10806956971291455, 0.10524177333681276, 0.10253296156055736, 0.09982493956331391, 0.0970516224346216, 0.09449116546613286, 0.09198763706463091, 0.0895296990580059, 0.08714238542743034, 0.08496658251150287, 0.08267387156774637, 0.08044707576387472, 0.07817708881574896, 0.07609215648228411, 0.0740315650758502, 0.0720633716136379, 0.07014945808323761, 0.06829858886266812, 0.06649210466125878, 0.06484226238914594, 0.06313180139101965, 0.061481075313806505, 0.05975186238222239, 0.058234418507191535, 0.05693179827907626, 0.05549067393548458, 0.054107533335501716, 0.052638047937203516, 0.0513846238341495, 0.05016242842091828, 0.04900236215944453, 0.04788700105344614, 0.046789957615972266, 0.04576679453293908, 0.0448765479891337, 0.0439268457460737, 0.04302429826641266, 0.04206577615460877, 0.04126719975292038, 0.0405768069089089, 0.03984557041652664, 0.03915591194087695, 0.03854184425244919, 0.0379279884611232, 0.037480100364088276, 0.03693031464626519, 0.03642564397289168, 0.03588222767673042, 0.035471584796762025, 0.03515063200926704, 0.03480041165355054, 0.034485299147369426, 0.0341920784577853, 0.03394407225154496, 0.033589049672352156, 0.033417147956547495, 0.033265108713169324, 0.03325823068532392, 0.03312974905997093, 0.033112204872620885, 0.033024444607179584, 0.03296514458532508, 0.032783663973840506, 0.032794368914672425, 0.03293633147695581, 0.032961145098831655, 0.03300625073928918, 0.03304394633829647, 0.03312863730612438, 0.03316673584483227, 0.0332873743071306, 0.03341710940289315, 0.033712857762006006, 0.033839266150081634, 0.033984832322441184, 0.03414145794314361, 0.03431082100024088, 0.03440960891010174, 0.03460984777869107, 0.03487767144506658, 0.03507596083136695, 0.03527984414247609, 0.03562219823340534, 0.03581665848371177, 0.03596531435333388, 0.03618382283670753, 0.0364047194035119, 0.03671412712146635, 0.03692480381648582, 0.03715651612848179, 0.03737027916268767, 0.03758515248149392, 0.0376887196481191, 0.03791509462941613, 0.03822229709209935, 0.038417798604597486, 0.038608144516489175, 0.038742703566975525, 0.038925893390041696, 0.03929354520813001, 0.039429845510816665, 0.039565388176021656, 0.03956117533329582, 0.039706839836711964, 0.03986792103659602, 0.03998212530578503, 0.04008365291797917, 0.040206994358483225, 0.04027729961043722, 0.040463815501064836, 0.040493094899993476, 0.040516255175115895, 0.040444273623398856, 0.0404617737038741, 0.040650715310145746, 0.04061396658416424, 0.040571895167901384, 0.04043528728761434, 0.04038861895165478, 0.040414612125158615, 0.040326853901051174, 0.04022844254352898, 0.04017089322505103, 0.0400417996336583, 0.03985590351641309, 0.039711435880777114, 0.03955243216811657, 0.03945150772464987, 0.03925348303426524, 0.03893074181605029, 0.03872445676787527, 0.03849968044412976, 0.03828320861902775, 0.03801979661836877, 0.03786056479948431, 0.037551660733090415, 0.03723480943920176, 0.036775320081902284, 0.03645794799683066, 0.036147108853490234, 0.03579408816969957, 0.035427321930385454, 0.035132000311267675, 0.034728967271989965, 0.03433342558364317, 0.03391433504954256, 0.03348897935638059, 0.033083604378481804, 0.032642503973230985, 0.03219104809254664, 0.03174166770496779, 0.031287590152610976, 0.030887380253863242, 0.03041736593009162, 0.029859424205924245, 0.029399525383060038, 0.028934321880451665, 0.02854342517128585, 0.028060335912357084, 0.02764610264731791, 0.027158400426843737, 0.02669146020068397, 0.026214172148317325, 0.025743799819714464, 0.02528620401355831, 0.024829140062620457, 0.024216499137525237, 0.023795790982404245, 0.023374354845742892, 0.023079377241351003, 0.022645998994934118, 0.022262033615030603, 0.021847460018214377, 0.02144773760215825, 0.02101368972375603, 0.02065118815343103, 0.02023219961980619, 0.01990654100660105, 0.019592499211120745, 0.019312091528562402, 0.01902346701848573, 0.018731843457655686, 0.018481896315197272, 0.018250741500233116, 0.018112659141805255, 0.01791400313798355, 0.017657727691423066, 0.01752431526525597, 0.017414507654158164, 0.017367652094433077, 0.017304544091999986, 0.017303422141941624, 0.01729708616223686, 0.01732445847269671, 0.01743875623219751, 0.01752915056643934, 0.017693483886778973, 0.01785775565486772, 0.018063810519715975, 0.018311903818044848, 0.01860238449307891, 0.018851133179366077, 0.01923844963523595, 0.019664917534237283, 0.02025721420088858, 0.020750022299690918, 0.021307417499366512, 0.021898602923458344, 0.022541115066780117, 0.023220640435002566, 0.023968530911026444, 0.024633861394803936, 0.025502436801844563, 0.02641631470404304, 0.02743557883253594, 0.028437901861532305, 0.02958419517044186, 0.030683279007303044, 0.03184302473614309, 0.03298203302753339, 0.03427419932865267, 0.03571664009658783, 0.0371120241103075, 0.038571703536672955, 0.040122150802312885, 0.04170785512757926, 0.04334268788313702, 0.04506401074599416, 0.046851358641065204, 0.04864683272773674, 0.05057486574271447, 0.05255529429654484, 0.05461385515465147, 0.05673764492832338, 0.05884012954786896, 0.06110817648286813, 0.06345082981324164, 0.06584475536939623, 0.06830506925654421, 0.07093200235064914, 0.07351575518625643, 0.07608406417625375, 0.07882912509262703, 0.08164406920354414, 0.084555885459928, 0.08750943923686282, 0.09051302021331094, 0.09361652494765361, 0.09679262538838936, 0.10012918920588491, 0.10344056030414989, 0.10685669235918059, 0.11032130728191544, 0.1138649906718333, 0.11738215536406343, 0.12109541712180369, 0.12489469772874683, 0.1287493435981363, 0.132676863915186, 0.13664235360788415, 0.14072023936222597, 0.1448516326204004, 0.14907394390135664, 0.15336661665224535, 0.15770360552363052, 0.16214081433424252, 0.1667463649620094, 0.17130962151544532, 0.17594786931432393, 0.18060196829636396, 0.18539510028293196, 0.19031581737473638, 0.1952397980205609, 0.20023562008663276, 0.20531113266131515, 0.21044684952384626, 0.21555602073100716, 0.22084229342017947, 0.22619095306519102, 0.23162808362786824, 0.23709763813322812, 0.2426040717398031, 0.24820255597572666, 0.2538613849719317, 0.2596850088432449, 0.265449655139034, 0.2712846321574279, 0.27717599141891325, 0.28312912815517594, 0.2890813098965527, 0.2951612682725584, 0.3012018717305658, 0.307400606199432, 0.31364619665811583, 0.31998506211164274, 0.3263176482086793, 0.3326111777661534, 0.3390506856307766, 0.34553172469395743, 0.3522230396908797, 0.3587645514627921, 0.3651894335306145, 0.3718489897398143, 0.378544676362035, 0.3853108583631888, 0.39207240319947056, 0.3989135801438377, 0.4057401788196147, 0.4126026525043263, 0.4195314104866404, 0.42645659460600704, 0.4332337055833874, 0.440245211955206, 0.4472754604806759, 0.454452329209919, 0.4615024643497482, 0.46841650920356864, 0.4755335871820702, 0.48266221388471914, 0.4898747244145919, 0.497015419324506, 0.5042571212119202, 0.5114122882236861, 0.5185827705151111, 0.525661287044347, 0.5328687682149887, 0.5401430263318537, 0.5473463508221936, 0.554553219253743, 0.5616042467995245, 0.568832293908101, 0.57600844613733, 0.5832188662970146, 0.5904145061286832, 0.5976939149968119, 0.604845563357395, 0.611857515035824, 0.6190007606103505, 0.6261217819965217, 0.6332197866343495, 0.6402938462921048, 0.6473749833565977, 0.6543938443760892, 0.66138710547052, 0.6683065268015366, 0.675249673891211, 0.6823084109762744, 0.689165232115992, 0.6959945919799342, 0.7026160015955869, 0.7094051065477875, 0.7161666318593157, 0.7228624426197809, 0.7295121911899269, 0.7360708821005703, 0.7426301919365268, 0.7492245002949914, 0.755666753062043, 0.7620592462407484, 0.7682834467014759, 0.7745854642661895, 0.7809334091781034, 0.7870970038357479, 0.7932028462510384, 0.7991761331136351, 0.8051699880809091, 0.8111167953961977, 0.8169719548478928, 0.8228021010381271, 0.8285128135800106, 0.8341543868849617, 0.8396084269122608, 0.8451212037890145, 0.8505327218016376, 0.8558856899569454, 0.8611552124466971, 0.8664339293822559, 0.8715227171348178, 0.8764728026495444, 0.8814065869890493, 0.8862535681621002, 0.8910826918013697, 0.8957441243950283, 0.9003312319404153, 0.9048176071967738, 0.9092155058855852, 0.9135466925736602, 0.9177600870282434, 0.9217710721623844, 0.9258137143771296, 0.9297555601996629, 0.933607811007343, 0.9373451754793451, 0.9409051225902462, 0.9444482157003169, 0.9478841768516352, 0.9511663322485094, 0.9543937816543065, 0.9575811749215907, 0.9605798816053961, 0.9634727244824546, 0.9663203659478267, 0.9689920505120112, 0.971425514644112, 0.9739049160304498, 0.9762706971772558, 0.978552206996448, 0.9806875763090794, 0.9827230202270588, 0.9846335349256824, 0.9864326999592458, 0.9881522790878502, 0.9897237813894756, 0.9912052661447756, 0.9925528212766517, 0.9937901226409042, 0.9948203867104644, 0.9958477093498384, 0.9968832542956292, 0.9976608440275306, 0.9983291175501477, 0.998858269213347, 0.9993097539965955, 0.999663229147186, 0.9998875824908933, 1.0, 0.999842927704002, 0.9997511102509336, 0.9995442173753554, 0.9992111988057015, 0.9987602014104989, 0.9981835970649342, 0.9975010351611907, 0.9966944167888037, 0.9957833532154037, 0.9947584626557029, 0.9936673846072113, 0.9924118701914764, 0.9910684067969211, 0.9895941065103177, 0.9880136403818541, 0.9863653100931757, 0.9845689663734678, 0.9825707970866316, 0.9805818320324873, 0.9784851647509455, 0.9762819900205527, 0.9739734772460426, 0.971519957736213, 0.9690093625172774, 0.9663945449547389, 0.9636477933813447, 0.9608325053644772, 0.957927227312337, 0.9549087261533111, 0.9517923053358377, 0.9486522268886267, 0.9453348424436163, 0.9419568292303152, 0.9384569136321942, 0.9348703600777423, 0.9311832012424078, 0.9274271315862725, 0.9235361219763528, 0.9196165345613129, 0.915610776159515, 0.9114328487270604, 0.907270212883504, 0.9031404389753065, 0.8987915075224053, 0.8943668676042082, 0.889765526808387, 0.8852055838224456, 0.8805441958138359, 0.8758329836110884, 0.8710463283227564, 0.8663379394646593, 0.8613874597527297, 0.8562332848685531, 0.8511799036914552, 0.8460591759970584, 0.8409052206782197, 0.8356518325682634, 0.8303476282329172, 0.8249756510630231, 0.81954788133461, 0.8141620951914684, 0.8086152680308722, 0.8029032145233788, 0.7972809332881157, 0.791607972529288, 0.7858367302887422, 0.7800745300107318, 0.7743171336841003, 0.76845520945441, 0.7625530070818809, 0.7565276734286465, 0.7505606911476914, 0.7447345190269901, 0.7386671233487678, 0.7325745324052998, 0.7264166559905318, 0.7202811255309842, 0.7139952321489625, 0.7078269113043002, 0.7016292870455383, 0.6954485136595826, 0.6891939180303426, 0.6828844658411134, 0.6765963569888042, 0.6702899894882075, 0.6640752647589452, 0.6577247552239676, 0.651262978996988, 0.644914118858316, 0.6385551036844545, 0.6321966285552353, 0.6258219852666208, 0.6194433556579577, 0.6130624589126693, 0.6066809776954968, 0.6003763656277389, 0.5939890454338269, 0.5876364886994311, 0.5812638481589506, 0.5749031547941064, 0.5684415342349058, 0.5621216748164032, 0.5559150242845393, 0.5496003060559553, 0.5433034869757527, 0.5369963463561556, 0.530741860174192, 0.5243957731080918, 0.5181949568745436, 0.5120096697500574, 0.5058391567558804, 0.49969165981680924, 0.4936618778729036, 0.4875470735550009, 0.48146278511156104, 0.4753486831526144, 0.46933587467529775, 0.46329456557235793, 0.45735017276866274, 0.4514351039043929, 0.44554822283353934, 0.43969739992861195, 0.433927406744274, 0.4281405478170055, 0.42239340129053443, 0.4167743908113869, 0.41109845088718133, 0.40535912553339065, 0.39979217766110897, 0.39426682191477136, 0.3887638256655667, 0.383327699410715, 0.3779761780473336, 0.3726236238757489, 0.36731939250878654, 0.3620729202226008, 0.35686627435213053, 0.35166962441410166, 0.3465703185877056, 0.3415206246310683, 0.3365709584576755, 0.3316167192054894, 0.3266502049299946, 0.3218143057193563, 0.3170183565248544, 0.3122879929984592, 0.3076101912322079, 0.30300032568973556, 0.2984281219720174, 0.2939931128696774, 0.2895221825585638, 0.285112305217271, 0.2806932445903794, 0.27641357538133854, 0.2721320540836597, 0.26797308529517344, 0.2638680765856241, 0.25979740929385065, 0.2558051732725152, 0.2519786254102759, 0.24808285358118487, 0.24424945709225426, 0.24035849787802893, 0.23666379436436336, 0.2331460892516591, 0.2295456213279752, 0.2260077258547217, 0.22241522630075658, 0.21901559449474878, 0.2157374847102268, 0.21243877352271368, 0.2091991371006851, 0.2059716749593812, 0.20285531779825514, 0.19976254823206252, 0.19676164304939314, 0.19381469335888213, 0.190948156988946, 0.18810636824531016, 0.18537289205874177, 0.18263590367556126, 0.1799571958400423, 0.17728356117521038, 0.1747258866523889, 0.17223891063657323, 0.1697851748556887, 0.1673850647498744, 0.1651168197468106, 0.1628125461568104, 0.16042778636975003, 0.15825276302398256, 0.1561243223108314, 0.1540162746011866, 0.15198437984657226, 0.15006454641702546, 0.14811419668520948, 0.14621255436109715, 0.14449886623403504, 0.14267483174951567, 0.1408410842020755, 0.1391321649811263, 0.13747049916033136, 0.1357762774061064, 0.1342158469481754, 0.13264845688856014, 0.13117295857361894, 0.12973379091159915, 0.12847666552659015, 0.12709143738019893, 0.12558407394672563, 0.1243064807560187, 0.12306072711000025, 0.12199842511890287, 0.12079708621252401, 0.11946670226439109, 0.11836536571154742, 0.11729168196195068, 0.11630396940710676, 0.1152781318722545, 0.11434707138868723, 0.11337363963510792, 0.11243291604857793, 0.11154983498012688, 0.11066734168298861, 0.109701547507482, 0.10889286216516904, 0.10810550148964757, 0.10747906623910465, 0.10671555948388219, 0.10582840595968437, 0.10513835914903076, 0.10446459205744191, 0.103838942203749, 0.10319290611226478, 0.1025552927841225, 0.10194401551018822, 0.10134802521765847, 0.10085413725969596, 0.10027568370507528, 0.09967458797421173, 0.09913623404686954, 0.09861101283356312, 0.09804550025144662, 0.09755036983767121, 0.09712388510224178, 0.09663538915722072, 0.09615679125713676, 0.09576287947643566, 0.09529147847331172, 0.09476714210810261, 0.09432474058540262, 0.0938870016110757, 0.09343270785192458, 0.09300447309862085, 0.09256865319572657, 0.09214326974693969, 0.09171740073732973, 0.09140133017572896, 0.09095895137789774, 0.09044787263956035, 0.09002167415761482, 0.08959285380910688, 0.0891928614773327, 0.08875289584316787, 0.08842983522230895, 0.08796866127017333, 0.0875099568133272, 0.0868916709434157, 0.08645325797560502, 0.08609991287296312, 0.08562707634395754, 0.08514852116220735, 0.08461969943172881, 0.08413285845136309, 0.08376679150637849, 0.08324222463801922, 0.08271403370892035, 0.08205844014660163, 0.08153464803212204, 0.08110174710804008, 0.08053658144198893, 0.07996329081785807, 0.07943059785566603, 0.07883235501863148, 0.07828190332139132, 0.07766045632732459, 0.07703265126246023, 0.07641185715279263, 0.07576601972187623, 0.07509688400627036, 0.07443454134172417, 0.07376097329680473, 0.07301732212383369, 0.07232712700464716, 0.07183389276806974, 0.07108520220604694, 0.07033292308243622, 0.06939476234013074, 0.06865379782570129, 0.06808466473819054, 0.06728489737380422, 0.06647910623013639, 0.06566333594588686, 0.06484291936427115, 0.06392623023410235, 0.06309871433502695, 0.062256511625999905, 0.06144957519476775, 0.060572908686245396, 0.059679703961772516, 0.05878238020718867, 0.057874117693134525, 0.057095037486237885, 0.0561477634775622, 0.05514556106759469, 0.05419918339555174, 0.0532458950041101, 0.05235848488859614, 0.0513819431163297, 0.05032963730956329, 0.04935610565288858, 0.048374829685064416, 0.04753780320354122, 0.04652305744412885, 0.04538496225528045, 0.04438936989211478, 0.0433874608081454, 0.042435234355259775, 0.04141551539850337, 0.04052856516043418, 0.03948939765234071, 0.03845688454226027, 0.03733989630657511, 0.03633006686867934, 0.03532012237582919, 0.03431054965434673, 0.033301880945418666, 0.032437551756299615, 0.031414380636865864, 0.030305736870554954, 0.02931573139551064, 0.028330269621484588, 0.02743742519796601, 0.026451848817106778, 0.02538726992125803, 0.024435884278521964, 0.023560896873855014, 0.02261445336124474, 0.02168024119130369, 0.02069157674405822, 0.01979149592142698, 0.018959509503601348, 0.01807271224644108, 0.017201130171373848, 0.01635409034440688, 0.015513612580313663, 0.014818979138831052, 0.013998013123121558, 0.013203068486702335, 0.012261775359153924, 0.011539724548710762, 0.010842182173745381, 0.010151996682286675, 0.009480897669403012, 0.008967175771354486, 0.008320655877508144, 0.0077103915740293705, 0.007124018322257465, 0.0065685685943229506, 0.005924684566801284, 0.005446824457488514, 0.005066859992344522, 0.004631168946066147, 0.004227260259473874, 0.0038674682919254792, 0.003527687547777609, 0.0032982262755582845, 0.0030185238016245033, 0.0027788820527694202, 0.002535637058592415, 0.0023819481504210437, 0.0021468040186184475, 0.002085064349473065, 0.0020560559359954515, 0.0022043067132571053, 0.002227585611126624, 0.0022904660729786723, 0.0024055701246274105, 0.00256628449073882, 0.002700101730761589, 0.002962438377856487, 0.0032675548161976934, 0.0036165224603019524, 0.004010364589026701, 0.0045637667481352754, 0.005035873340818151, 0.0054541700174242395, 0.006047993397761004, 0.006689795744208997, 0.007322223166035661, 0.008070180989227387, 0.009072582908107737, 0.00989053571283057, 0.010770029936788711, 0.011736746733723678, 0.012734453612202403, 0.01373263072833787, 0.01486103791128797, 0.01604694820912514, 0.017316871748086465, 0.01861530763053167, 0.01984532019514989, 0.021279824972321754, 0.02276728069307671, 0.02436722556463645, 0.025956788937767154, 0.027643860563066055, 0.029348317318861977, 0.031115431683542246, 0.032843280844568445, 0.03474899334850593, 0.03673536559989264, 0.038753772240611106, 0.040832670619626935, 0.043109688985259645, 0.045293973073008094, 0.047553881362322845, 0.04987633895125844, 0.05226765328710337, 0.05469227917967142, 0.05722412879812361, 0.05979808195278864, 0.0624636516379811, 0.06519318215664044, 0.06804510803830874, 0.07089553867407934, 0.07380185482449912, 0.0767884537671892, 0.07984118032012084, 0.0828256795270337, 0.08602691672242586, 0.0892948228763499, 0.09261166701181851, 0.09598852945106373, 0.0994726043271737, 0.10296513653098079, 0.10656828640182577, 0.11018273981217559, 0.11386350938283273, 0.117507988510618, 0.12133262200975169, 0.1252278607525847, 0.1291691961530381, 0.13317061306116207, 0.13730792666237757, 0.14141988201529493, 0.14559016567549452, 0.14983038118986866, 0.15413285622571324, 0.15844731220339545, 0.16287843858736842, 0.16745730286197283, 0.1719914109564611, 0.17658729681096302, 0.18111846993830616, 0.18585044755926436, 0.19073015422558792, 0.19555300792797703, 0.20043270362340695, 0.20522543383968464, 0.21023405868636796, 0.21537618393167685, 0.2204660560784999, 0.225607214487206, 0.23073187784109753, 0.23598189140473982, 0.2412742640866717, 0.24661493500894935, 0.2520001054543518, 0.2575722286578865, 0.26302702729782435, 0.2685153929520843, 0.2740727522037544, 0.27967672924926523, 0.28524712995436935, 0.2909499237283599, 0.29667605936227304, 0.30245582443396196, 0.3082712226894688, 0.3142207014016736, 0.32009273204911287, 0.3258200744681793, 0.3317916866521895, 0.33778878240270127, 0.34390169801923515, 0.3499380544718443, 0.35588779919543323, 0.3619977689414333, 0.36812888056881626, 0.3744208354489308, 0.38057566883248456, 0.3866913269445945, 0.3929086827257898, 0.3991467581585668, 0.40543652602646457, 0.4117086598184566, 0.4178104168726203, 0.4241433433419312, 0.4304818986360137, 0.4369836236904361, 0.44331364855702515, 0.4495733593977493, 0.4559408914603601, 0.4623146232027395, 0.46862947980601466, 0.4750208607852582, 0.4813739585716623, 0.487768782294449, 0.49415981267219755, 0.500645688677672, 0.5070150022503367, 0.5133521816756399, 0.5197238016748909, 0.5260903238729083, 0.5322958794680815, 0.5386676926584958, 0.5451703404571705, 0.5514874798564424, 0.5577946312994708, 0.5640930484018116, 0.5703748863252013, 0.5765165951856872, 0.582783131105594, 0.5890246221676165, 0.5952696362156776, 0.6014554815553071, 0.6075225500606729, 0.6136681286477196, 0.6197807354584288, 0.6259065798207396, 0.6319458993494786, 0.6379415195666202, 0.6439170883589973, 0.6498576228263481, 0.6558523741711985, 0.6617079781294353, 0.6674193218513572, 0.6732200392038062, 0.6789772221807423, 0.6846636944666946, 0.6903342670831367, 0.6960764174430117, 0.7016350980277132, 0.7070195560208674, 0.7125068583604915, 0.7179400060902399, 0.7232657989925276, 0.7285950494253413, 0.7339902268695655, 0.7391842758799971, 0.7443248961903488, 0.7492559162267883, 0.7543043323396043, 0.759440393799828, 0.7643352626077352, 0.7691713178634556, 0.7738185819577446, 0.7785482245643414, 0.7832769610441807, 0.7878555375147325, 0.7923661748888974, 0.7967377506334818, 0.8011179295408165, 0.8055394760785793, 0.8097538714993346, 0.8138984535164505, 0.817957090140183, 0.821959308236521, 0.8257611035308999, 0.8296278599732037, 0.8334101660203743, 0.8371837292253913, 0.8407871799220319, 0.8443449055889369, 0.8477815976714588, 0.8511377444146778, 0.8543801331180919, 0.8575758807184454, 0.8606014859652223, 0.8636360310250324, 0.8665788361739828, 0.8694619795160555, 0.8722172060763452, 0.8747686216584041, 0.8773575990093402, 0.879849244676728, 0.8822761106478597, 0.8845703644016758, 0.8868430852191578, 0.8889391961732053, 0.8909447665572497, 0.8928823720228342, 0.8947017087860405, 0.8964413592292667, 0.8980757164789606, 0.8996178291679114, 0.9009094816805158, 0.9022847580063678, 0.9036647132837444, 0.9048206461890341, 0.9058807203803407, 0.9067308702025864, 0.9076125626140206, 0.9083910406144435, 0.9090669597267191, 0.9096408946974013, 0.9102358045724548, 0.91059174376035, 0.9107372932422444, 0.9109198124075164, 0.9110008427771994, 0.9109954364831492, 0.9108730297315668, 0.9107154073809355, 0.9103864344781087, 0.9099622185751345, 0.9093171280456241, 0.908717557198733, 0.9081317379759417, 0.9073126122941453, 0.9063989588747192, 0.9053206732521564, 0.9042264858589407, 0.9031327767420964, 0.9018293743542137, 0.9004341137346623, 0.8989030645550602, 0.8973291207315767, 0.8956284779451977, 0.8938697512449102, 0.8920154640100961, 0.8901130041360438, 0.8880639124282498, 0.8857695669302399, 0.8835589216985016, 0.8812496573371542, 0.8789717647803159, 0.8764540503996502, 0.8738788756035312, 0.8711846279259572, 0.8684062253528193, 0.8654156391430989, 0.8624859936351604, 0.8595680348765186, 0.8564462744800405, 0.853242825528942, 0.8498124705847625, 0.8464658116221218, 0.8431477408782019, 0.8396121454855535, 0.8359987151124709, 0.8321974059183533, 0.8284445934784599, 0.8246917140000458, 0.8207669147376065, 0.8167683972360562, 0.8125979680320987, 0.8084673756326356, 0.8043769920858752, 0.800080618097605, 0.7957178800480611, 0.7912515811938662, 0.7867630794224881, 0.782225858407975, 0.7776038843104527, 0.7729190161990928, 0.7680556702337672, 0.7632629022608918, 0.7584242962266218, 0.7534985020683865, 0.74851160818208, 0.7434478258396156, 0.7383460032571874, 0.7332541125047214, 0.7280312575059966, 0.7227583829713036, 0.7173461635210673, 0.7119878744132798, 0.7065719067309526, 0.7011125136668955, 0.6956045838041041, 0.6900411397561808, 0.6844424894891534, 0.6789078206570236, 0.6732094193188286, 0.6674764834801145, 0.6617330547707044, 0.6559303211332697, 0.650093799544472, 0.6442304105792945, 0.6383375039462033, 0.6322760226635463, 0.6263445067636327, 0.6205154965213212, 0.6144997803954229, 0.6084614896657269, 0.6023956883858752, 0.5963157299040537, 0.5900757772831869, 0.5839745200043454, 0.5778475972815215, 0.5717760212676867