0.02366838153401989, 0.023105580389780403, 0.02257711041859316, 0.02212309741874025, 0.02170958087414836, 0.021310688553345582, 0.0209634546834491, 0.020665460025034218, 0.020358753145974125, 0.020070449567063085, 0.019752374045141626, 0.019498760745566505, 0.01931647256879519, 0.019071645324311548, 0.018837253397311102, 0.018569646955418143, 0.01835851908326178, 0.018167167881289168, 0.017965425501669862, 0.01777021209407535, 0.01757033123712041, 0.01739018681340454, 0.017250774828106705, 0.017080238144454342, 0.016947812509397236, 0.016793534558919212, 0.016651395119870266, 0.016396818022771518, 0.016295607985268773, 0.016234577369085863, 0.016142774966588353, 0.016061827509597257, 0.015955857782100215, 0.015904262702029503, 0.015850156634309602, 0.01582487922433323, 0.015812748239070546, 0.01585178309703208, 0.015864601838633988, 0.01594403224919601, 0.015988115458283148, 0.01605447138076542, 0.016100706927920472, 0.016217512717262985, 0.016363282993847462, 0.01652049003541413, 0.016699746243770526, 0.01685043481491029, 0.0170815978556069, 0.017316246779814665, 0.017591412102088887, 0.017887732582912375, 0.018285506379990664, 0.018616588797897706, 0.018921750426027967, 0.01931566685625588, 0.019734663891756873, 0.02022467979098708, 0.020689698703532135, 0.021189577215861524, 0.02171236421313548, 0.022264916905677338, 0.022779270142893306, 0.023400387271264075, 0.02403942315777694, 0.024715246940738622, 0.02541852024578746, 0.026220934785391534, 0.026972375216190173, 0.02760702860079805, 0.02844474230358091, 0.029307808643021186, 0.03025150592723524, 0.031162455759332908, 0.03205448944012404, 0.03303683417271408, 0.034049692971365765, 0.03511107284295331, 0.03618568382476898, 0.0372774786268943, 0.03842330714960432, 0.039603652667138355, 0.04085612124084829, 0.042102956597133936, 0.04338841577905571, 0.044712806386249956, 0.046076442445143785, 0.04744843397426116, 0.04889547427288772, 0.05039801139043552, 0.051920433876821, 0.053483436006852555, 0.05500230076893516, 0.05665842603711447, 0.05833168513841883, 0.06006538388932307, 0.06183701819916198, 0.06364197459684144, 0.06549328718060202, 0.06738512774755905, 0.06931834712833607, 0.07129372055285092, 0.07336302630400622, 0.07541830906357962, 0.07746380666393987, 0.07962031356787537, 0.0818208563563646, 0.0840915629671032, 0.08637867210039318, 0.08866463721537675, 0.09105226551391322, 0.09348474212111206, 0.09594280387268059, 0.0984692201527825, 0.10106084433567909, 0.10367602986803498, 0.10633878316758551, 0.10902386668516234, 0.11178584210673922, 0.11462878733790176, 0.11748070401527798, 0.12038220293819551, 0.12331628417585498, 0.12631915976720878, 0.12939623413285328, 0.13249333301576338, 0.13564075170015974, 0.1387333758873395, 0.14199430552745815, 0.1453077720279911, 0.14865638144881302, 0.15205079738481397, 0.1555368468791444, 0.159018344311503, 0.16257478254435026, 0.16615170027007267, 0.16977911588389638, 0.17337434589461292, 0.17711196430407228, 0.18094535295736947, 0.1847661911337012, 0.18863507438347502, 0.19248362465121463, 0.19645634326840397, 0.20051211075388725, 0.20456667675561127, 0.20866714825902066, 0.21282177432359103, 0.2170121611994742, 0.22122819079788147, 0.22551167780673514, 0.2298386988685798, 0.23418058688761653, 0.23859734448382286, 0.24308342646633244, 0.24757832944432306, 0.25211537735914635, 0.2567195945989225, 0.2613361476425343, 0.26592658412951997, 0.2706349240844194, 0.27537986603192893, 0.28017537269495574, 0.2849909875706009, 0.28988853329942327, 0.29477095553079724, 0.2996913802691999, 0.30459210283885163, 0.30959284375929447, 0.3146425845626808, 0.3197046520796074, 0.3247986538265846, 0.3299721156446645, 0.335121735394896, 0.3402356967890058, 0.34545762741750585, 0.3507058526368308, 0.3559741183383971, 0.36127386156079583, 0.3665664850363415, 0.37191768128800123, 0.37728982165046243, 0.3827788618912973, 0.38817908494407516, 0.3935698747297493, 0.3990221488616292, 0.40449420329126046, 0.4099423483750078, 0.4154559527053861, 0.42096369188217647, 0.4265070040469451, 0.4320615604980993, 0.4376606838790249, 0.4432311896429115, 0.4487954785495147, 0.45438858841829133, 0.45998921359911404, 0.46561900427636466, 0.47122861792789444, 0.4768835180958308, 0.48249793143946146, 0.48811752690034144, 0.4937179828358619, 0.49934598298554256, 0.5049844871950211, 0.5106080293977342, 0.5162287038770319, 0.5218223989020551, 0.527435983034567, 0.5329475976856908, 0.5385551513199716, 0.5441467141245728, 0.5497757290084279, 0.5553269911230468, 0.5609260048907458, 0.5664388507633665, 0.5719381352879236, 0.5772916098408584, 0.5827751187595257, 0.5882809026318229, 0.5937058281864239, 0.5991062708131029, 0.6045605348896896, 0.6098985157421306, 0.6151335185814713, 0.6204326166058867, 0.6257000597410074, 0.6309233883998113, 0.6361255952284232, 0.6412835796651597, 0.6464143419857915, 0.6514981729843934, 0.6565520819418385, 0.6615648797293384, 0.6665950666938496, 0.6715148269367437, 0.6763168704172272, 0.6811624508385139, 0.6859593679778774, 0.6907350396457403, 0.6954281354296846, 0.7001279212717755, 0.7047124385366439, 0.7092475036020185, 0.7136661172088223, 0.7181053670858591, 0.7225403691738554, 0.7268554471106261, 0.7311132941507903, 0.7352244522712391, 0.7393744988895722, 0.7435034034707447, 0.7475139659972134, 0.7514591550807873, 0.7553151487820181, 0.759129098969847, 0.7629099433445108, 0.7665783369666159, 0.7701769767731762, 0.7737046376367755, 0.777160127286392, 0.7804968885854165, 0.7838103260163882, 0.7870456564915895, 0.790241898454185, 0.79331386546394, 0.7962765897472729, 0.799195379398789, 0.8020323024576105, 0.8048121557863905, 0.8074799028440157, 0.8100650097162035, 0.8125665470339871, 0.8149836203329032, 0.8173096949316964, 0.8195560113784283, 0.8216639948984099, 0.8237415315183918, 0.8257275387716969, 0.8276473024797968, 0.8294462489917536, 0.8311060496697744, 0.8327287604318444, 0.834256846549492, 0.835735615228091, 0.8370684143406346, 0.8382492035056153, 0.8394041592227794, 0.8404623296111811, 0.8414946682915188, 0.8423503366934657, 0.8430394221047427, 0.8437181821235307, 0.8442988311391528, 0.8448211947971835, 0.8452008928016442, 0.8455019979227076, 0.8456880591244035, 0.8457789944147612, 0.8457149072020353, 0.8456222387623576, 0.845464369328706, 0.845169222022078, 0.8447773735988656, 0.8442264375323099, 0.8436492138701028, 0.843088315018648, 0.8422970077181567, 0.8414134638536065, 0.8403805854812705, 0.8393187870284691, 0.8382005258817455, 0.8369417196454968, 0.8355897526228258, 0.8340596232699531, 0.8325325160326968, 0.8309136940465558, 0.8291920813345477, 0.8273753510028488, 0.8254530481020881, 0.8234501883058797, 0.821422320279927, 0.8192256054688944, 0.8169415206772868, 0.814539250862519, 0.8120856223394376, 0.8094931759283827, 0.8068713408608477, 0.8041605747976122, 0.8014416096467875, 0.7985467728621516, 0.7955173437490277, 0.7924685414184799, 0.7893372683052304, 0.7861048126697393, 0.7828145633058619, 0.7794527083609746, 0.7760024801250279, 0.7724752679701183, 0.7688496229818066, 0.7651750672066218, 0.7615196523879014, 0.757685732916201, 0.7537854763294881, 0.7497457953324511, 0.7457243277415256, 0.7416375260766958, 0.737480878125723, 0.7332592569398517, 0.7289911799938263, 0.7246419442013455, 0.7202303456322926, 0.7157637883636854, 0.7112403116777363, 0.7066017724623401, 0.7019763304039348, 0.6973630978855916, 0.6926192495135945, 0.6878272451612327, 0.6829203387120153, 0.6780447154746464, 0.6731950370434818, 0.6682164333833267, 0.6631981001564531, 0.6581186704079051, 0.6530277860836546, 0.6478489487691553, 0.6426923932076217, 0.6374993698002479, 0.6322974804508663, 0.6270344498612476, 0.6217906976027814, 0.6164654064655946, 0.6111173620221594, 0.6056627999646327, 0.600284120646892, 0.5948821062597339, 0.58945891804718, 0.5840166650788544, 0.5785857820380028, 0.5731079539932912, 0.5676102011775119, 0.5621123392362551, 0.5566060136526179, 0.5511156984074674, 0.5455948896206029, 0.5400438074574608, 0.5345243425392447, 0.5290045108697337, 0.5234350474800227, 0.5179263385581748, 0.5124112433957126, 0.5069100198241273, 0.5014146905951065, 0.4959216744021875, 0.4904450640407699, 0.48509360559075765, 0.47962791875647753, 0.4741841108600965, 0.46868934301432763, 0.46330147747686995, 0.45789744389061476, 0.45255737017429176, 0.4472393016284492, 0.4419621931642038, 0.4366917107249233, 0.4315547718961472, 0.4263297555929083, 0.4211423847630606, 0.4159394509765701, 0.4108363607653124, 0.40570210487578146, 0.40068280820950863, 0.39569926190014204, 0.390818580501268, 0.3859037753971793, 0.3810223740146249, 0.37619962181302596, 0.37142321027335023, 0.3666716426540465, 0.3619943714805921, 0.357374235001587, 0.35279446586953306, 0.34826642059609686, 0.3437260224721326, 0.3393131881709968, 0.334977400073788, 0.33066596906651613, 0.3264106070843494, 0.32222388229236276, 0.3180828213163131, 0.31397641342759447, 0.3099599178224684, 0.3060210799063756, 0.30212478498582535, 0.29829218664305973, 0.2945241097551207, 0.29082133895946566, 0.2871874570229006, 0.2836171378341062, 0.2801144065227794, 0.27667136155885774, 0.2733066801607563, 0.27005056307031744, 0.26681912364285304, 0.26365987530344065, 0.2605304389877569, 0.2575214960775393, 0.2545346618122222, 0.251673018202227, 0.24887998982823203, 0.2461875899687676, 0.2435301591624945, 0.2409991323321479, 0.23848015960154603, 0.2360372279654261, 0.23366725828552082, 0.23137605223223198, 0.22910328305661332, 0.22696941780494098, 0.22490714749811308, 0.22287699627256444, 0.2209636118955679, 0.21912297631071645, 0.21734943458510592, 0.21564662414911429, 0.2140515995221891, 0.21248601581435683, 0.21099350462537267, 0.20957371163567048, 0.20822625292169827, 0.20699327510856944, 0.2057838366125517, 0.2045456542072974, 0.20349508896249338, 0.20251052607188255, 0.20168276647190292, 0.20081865608536495, 0.19999985388703304, 0.19927967501924862, 0.19862695226314617, 0.19800972253164856, 0.19749358288315796, 0.19703232600724266, 0.19664349746505505, 0.1963164274335808, 0.19606188280973427, 0.19585509522959313, 0.19574284914200343, 0.19565192259242017, 0.19562172510347683, 0.19567947179362427, 0.19576367630125138, 0.19583864625742253, 0.19604780521205825, 0.19630927734450676, 0.19663363350843438, 0.19699591366676183, 0.19739731792321932, 0.1978609744221741, 0.1983724286236877, 0.19898178320193463, 0.19957943273775142, 0.20020770946262081, 0.20090133253761233, 0.20163871100551334, 0.20242705309157016, 0.20324695426692124, 0.20401921780288307, 0.20492950045864525, 0.20587241688150598, 0.20697498525430044, 0.20796496017360042, 0.20892157534233338, 0.20999374750662766, 0.21109574206907825, 0.2121866121826152, 0.21334958142403138, 0.2145789750812031, 0.21578333639604944, 0.21701198453313328, 0.21834296392666067, 0.21960594038335934, 0.22082820343397055, 0.2221464818349837, 0.22348164613551083, 0.22480679998802836, 0.2261748840699322, 0.22751462049406068, 0.22890932480435097, 0.23031084812063307, 0.23174101239794942, 0.23315061673333823, 0.23454565687475712, 0.23596715314473857, 0.237390388287218, 0.23883413852249655, 0.24025505424112092, 0.2416981779623405, 0.24311391795826515, 0.24452779281298037, 0.24596950984262922, 0.24737122655162416, 0.24869463199068031, 0.25009491898547687, 0.25148323220374835, 0.25285859901797036, 0.2542200224764647, 0.2556203943761928, 0.2569440481337452, 0.2582536888274662, 0.2595336425684508, 0.2608126367547304, 0.26202994167724525, 0.2632748211610587, 0.26449573676621013, 0.26568901069209117, 0.2668598196506216, 0.26799259016032356, 0.2691106005874158, 0.2701995663672282, 0.27132113096052163, 0.2723417703913207, 0.2732493821665782, 0.2742236597955428, 0.27516269770467067, 0.2760688268087093, 0.2769354763664918, 0.27779948669309884, 0.27858785233368216, 0.27934021925189945, 0.28004717659604134, 0.2807259553721703, 0.281396861229254, 0.28199278734636074, 0.28254992399341994, 0.28302476606190174, 0.28350692322609666, 0.2839679268988468, 0.2843590651717129, 0.28470674143326063, 0.2850131803384403, 0.2852717693082096, 0.2854626190854815, 0.2856334603666806, 0.2857569501861999, 0.28580159464763727, 0.2858334885355504, 0.28594881845562725, 0.2858640246124441, 0.2857367986000803, 0.28549228243110847, 0.28528638219132485, 0.28493738613011393, 0.2846442527813263, 0.28429614281607596, 0.28396749025397894, 0.28350202541493746, 0.2829251044051429, 0.2823693577601334, 0.2817608974675435, 0.2811767916463291, 0.2804545695368827, 0.2796682041111196, 0.2788536639372246, 0.2779906470003434, 0.2770564794542524, 0.2760994908870911, 0.2751525225338508, 0.27408919304459306, 0.2729802952193631, 0.27176895024545644, 0.27057576703317915, 0.26937621139948764, 0.2680803165636736, 0.26673895000489295, 0.26528989369051326, 0.2638661341608389, 0.26234024657496, 0.26082771068025173, 0.25926560179584585, 0.2577658170707547, 0.25609423150964467, 0.2542523021702142, 0.2525177398162231, 0.250736444437628, 0.24894665445948716, 0.24707121721711403, 0.245245762372197, 0.2432780884102571, 0.24127641902676128, 0.23918696273824325, 0.23712455600206603, 0.23509950057132445, 0.23295571841128646, 0.23071031750720217, 0.22851435627738031, 0.22628426525436499, 0.22402951951686864, 0.22173298527594418, 0.2194709565003146, 0.21710557252448826, 0.2147149248163785, 0.21229374763505976, 0.20985459451451402, 0.20737712635300287, 0.20489217826236858, 0.2023836954527855, 0.19982702609361452, 0.19727738373319323, 0.19470267357599397, 0.1921100981486163, 0.18949746730775296, 0.18680638160922625, 0.18416471843648496, 0.18156560818212691, 0.17887796054220528, 0.17617716982811588, 0.17346425336997925, 0.17074023712181646, 0.1679607576678271, 0.16522338839635772, 0.1624754899626306, 0.15976387362664743, 0.15699337852628967, 0.15414525370366705, 0.15137730063970015, 0.14860322936923476, 0.14581891647636375, 0.1430379154986164, 0.14033155124285224, 0.13753834363361325, 0.13475025118738151, 0.13199918505118788, 0.12921951058689105, 0.12637796326156142, 0.12362591028034017, 0.12088005541476839, 0.11816997384901252, 0.11543650428638982, 0.11273420469530379, 0.11002173114354118, 0.10732346333623843, 0.10464297346598729, 0.10197498324065556, 0.09939455263695278, 0.0967516114286863, 0.09413081939902657, 0.09144443913253526, 0.08887980258460525, 0.08646945471605068, 0.08392493123345775, 0.08140838793268089, 0.0788602163899546, 0.0764071958876116, 0.0740045720293227, 0.07159877484353665, 0.06922074281256782, 0.06686534416748663, 0.06454521763165745, 0.06232518103907833, 0.06005506096103644, 0.057819408383138045, 0.055555906535966496, 0.05339746531363936, 0.05130171752062438, 0.04920308994913343, 0.04713926710014918, 0.0452043870992711, 0.04319986813709026, 0.04121426224633615, 0.03929561378044473, 0.037416951941403515, 0.03564934507786226, 0.033842143574333995, 0.03208512868637979, 0.030365921755234823, 0.028691019125282626, 0.02714536524505802, 0.025547864379391168, 0.02401049723666669, 0.022508477788186484, 0.021054708645015983, 0.019657209562765312, 0.018297502106838875, 0.01695416219297776, 0.01569329381853351, 0.014477807319803847, 0.013384448489320317, 0.012250482994702874, 0.011152503694314003, 0.010120263162135929, 0.009136656524134857, 0.008210054677869586, 0.007322264767105781, 0.006520184393371729, 0.005725290363381814, 0.004981145150370395, 0.004301609168527873, 0.0036562465978700665, 0.003118358795878513, 0.0025669834926910816, 0.00206897762218565, 0.0016719093912298216, 0.001272634238050595, 0.0009532265216234282, 0.0006585631384914624, 0.0004181228771658903, 0.00018567561747118635, 5.70255196333646e-05, 3.743242738689234e-05, 0.0, 1.5014965161687072e-05, 0.0001130510484282313, 0.00022717579514155268, 0.00041081644066703416, 0.0006270693108389012, 0.0008954373996668474, 0.0011584735547770402, 0.0015362155795427828, 0.002080157467247119, 0.0025368406423670244, 0.0030471174936050013, 0.0036354836376597576, 0.004246703364089893, 0.00485622164321409, 0.005577703288158114, 0.006346524368553465, 0.007119768140738216, 0.00798759614022099, 0.008910703643452842, 0.009864984534729565, 0.010863851264948545, 0.011983776504771228, 0.01306170340868828, 0.014108601837246356, 0.015292590145845405, 0.016518960358801998, 0.017861409181431254, 0.019162959533619132, 0.020527727959838964, 0.021918744644299715, 0.023355414984298682, 0.024893660427401265, 0.026412040394789647, 0.027900324852581045, 0.02952026955946728, 0.031180228980610434, 0.03287417306822853, 0.03461380960914207, 0.0363977396477299, 0.038213574537318676, 0.040067692355474444, 0.04199942717644486, 0.043923920042804626, 0.045958681639494396, 0.047952159706785104, 0.04998755410647178, 0.052004061975034786, 0.05412726423025223, 0.05637362735749449, 0.058555648887835605, 0.06077688783903773, 0.06296526234373136, 0.06527055525870583, 0.06757954914098409, 0.0699522644736369, 0.07235483576549255, 0.07488080927491675, 0.07733097112188994, 0.07983293000338551, 0.08234957048990754, 0.08490018117482377, 0.08741007744684057, 0.09003528732082833, 0.09271050108626068, 0.09538733535417206, 0.09809249738592896, 0.10086537530725241, 0.10362117564564152, 0.1063185959744596, 0.10914403678274548, 0.11199289591599645, 0.11489370533364007, 0.11778623936532032, 0.1206927633072905, 0.12363720278434505, 0.1266059200829073, 0.12958743301568026, 0.13260572425662917, 0.1357266511055678, 0.1387811918431704, 0.14186318400534714, 0.1449803714106167, 0.14811394863638777, 0.15130454409155658, 0.15448512768419476, 0.15769200131728336, 0.16081654247606944, 0.16408729187045845, 0.16740162924843818, 0.17070553018841447, 0.17397834728796346, 0.1773286577680126, 0.18069602910807864, 0.18418296466102738, 0.1875725626399558, 0.19094329718264014, 0.19438504204769225, 0.1978468997527626, 0.20132869733740624, 0.20483026814973773, 0.20832024141075117, 0.2118648296113819, 0.21542697632651317, 0.2191032584773669, 0.2226886259584675, 0.22624331141645343, 0.22988121593334948, 0.23353793620830252, 0.23723602341706476, 0.24092707570517996, 0.2445470177389833, 0.24828862062676005, 0.25204425137773245, 0.2559051985719084, 0.25967882605132353, 0.263453015202319, 0.26726959176918014, 0.27110470548655324, 0.274963867769104, 0.27883486580276196, 0.28269306928258064, 0.28660468309492454, 0.29053265575384757, 0.29452818303458206, 0.298482773225462, 0.30247961426815, 0.30647011082653886, 0.3104808163128741, 0.3144460373113928, 0.31850416019870315, 0.32258335673937294, 0.32667179741223085, 0.33077640426424526, 0.33487178371091125, 0.3390123617424097, 0.3431850753491289, 0.34735402623275996, 0.3515396092219504, 0.3556908437716485, 0.35991640556772253, 0.3642183813362304, 0.3684644957308854, 0.37272896005505113, 0.3769548642612776, 0.38126272133610806, 0.3855937923110086, 0.38993029541196733, 0.394282564508885, 0.39862521764278525, 0.4030126753617001, 0.40744604043221044, 0.41185921337968723, 0.41628931875070935, 0.42069939090390046, 0.4251677716005124, 0.42970181166409444, 0.43419309578648274, 0.4387021583476102, 0.44322868673670474, 0.4477723815184449, 0.45225918478837546, 0.45684568531287517, 0.46144437565187224, 0.4660981448097592, 0.4707167538858772, 0.47526277462582467, 0.47992304058235397, 0.4845933278950423, 0.48928831011772167, 0.49397821036922773, 0.49864038412656597, 0.5033594049358007, 0.508088346278403, 0.5128473819247793, 0.5175945022820668, 0.5223533375931392, 0.5271237984742336, 0.5319057491522516, 0.5367557579601807, 0.541552942255374, 0.5462960622017461, 0.5511291805397756, 0.55597106087081, 0.5608612880159921, 0.5657152119729116, 0.570576744547045, 0.5754513369734338, 0.5803350566844919, 0.5852216784830852, 0.5901227186244282, 0.5949429590320342, 0.5998689265008665, 0.6047960923998832, 0.6098040852136829, 0.6147240595158894, 0.6195903808448416, 0.6245290325120483, 0.629468843293003, 0.6344180989910262, 0.6393584182009086, 0.644302372122736, 0.6492434807410765, 0.6541846187392198, 0.6590599933852286, 0.6640078107294777, 0.668890730491722, 0.6738353690146467, 0.6787710948027463, 0.6837946056510187, 0.68870086627898, 0.6935273289503063, 0.6984359913058442, 0.703335357121282, 0.7081854152187103, 0.713070266107304, 0.7178999397609453, 0.7227647555341419, 0.7276141062602813, 0.7324593175949923, 0.7372761111819062, 0.7421769597027812, 0.7469502529114961, 0.7517129064179686, 0.7564067889015291, 0.7611512205704862, 0.7658976458079111, 0.770603009011463, 0.7752899487579384, 0.77990352506415, 0.7845573396170077, 0.7891298637598063, 0.793741165408304, 0.7983234863658819, 0.8029531893918139, 0.8074670303705558, 0.8118757244841661, 0.8163470769738539, 0.8207860163898433, 0.825248808999552, 0.8296142345141654, 0.833852311205049, 0.8381670392779587, 0.8424432101298285, 0.8466748003791927, 0.8508734371432162, 0.8551368696800441, 0.859241317662868, 0.863310311127853, 0.8673054453521615, 0.8713036854536398, 0.875228781891634, 0.8791460219311941, 0.8830174226436541, 0.8868989116915901, 0.8906689790117939, 0.8943541438519488, 0.8980375352603871, 0.9016708834744338, 0.9052475765367753, 0.9087787409034846, 0.912251049805687, 0.9156756739881726, 0.9190450026207699, 0.9222957576546492, 0.9255598084751997, 0.9288362397151941, 0.9319678140412393, 0.9350413351819071, 0.9380528838757337, 0.9410074366770984, 0.9438949314244186, 0.9467264492658336, 0.9494943146416316, 0.9522118150384327, 0.9548478992317826, 0.9573078190185697, 0.959825906033606, 0.9622703645323587, 0.9646695450279542, 0.9669630081512778, 0.9691954765797293, 0.9713423452493111, 0.9734165360269575, 0.9753833881399433, 0.9773146817987112, 0.979254649180296, 0.9810219393272869, 0.9827168283621168, 0.9843552478367479, 0.9858999697603732, 0.9872878769291868, 0.9886928900366985, 0.9900365921367394, 0.99127650317446, 0.9924358444319906, 0.993485802743384, 0.9944862803211809, 0.9954827482834132, 0.9963060927467048, 0.9970500671227857, 0.9976655941313287, 0.9982544703184789, 0.9987277435751213, 0.9991515306963213, 0.9994886860800747, 0.9997846338126074, 0.9999428516702934, 1.0, 0.9999919059376691, 0.9998981058834271, 0.999707095375205, 0.9994428743383463, 0.9990805613726044, 0.9986442929836139, 0.9981206633311418, 0.9975608642334248, 0.9968564198997651, 0.996019622243507, 0.995152767510034, 0.9941986069460522, 0.9931772389240598, 0.9920466748949495, 0.9908136325535497, 0.9895144184311587, 0.9881290402821182, 0.9866265965400749, 0.9850737778866466, 0.9833971313632366, 0.9816756986373439, 0.9798664562595223, 0.9780014972146414, 0.976015295199402, 0.9739455636264233, 0.9717928281335683, 0.9695576224091177, 0.9672348158115636, 0.9648370312780334, 0.9623439420035914, 0.9597863462003458, 0.9571481102579164, 0.9544583771770069, 0.9516575841080487, 0.9487403356565616, 0.9457916505951954, 0.9427651432668349, 0.939712828326828, 0.9365270441119197, 0.9332407497754976, 0.9299148068287157, 0.9265162452679337, 0.9230232294734586, 0.9194849100889096, 0.9158327904118727, 0.9121584795104695, 0.9084127557635538, 0.9046793517215259, 0.9007847118977819, 0.8967537479151723, 0.8927440160418851, 0.8886690272077093, 0.8845869240693198, 0.8803784149175038, 0.8760779156676944, 0.8717587147078135, 0.8673814830360399, 0.8629588214260193, 0.8584678552091874, 0.8539488081762171, 0.849348565036879, 0.844698529342882, 0.8399968852822484, 0.8352507333089856, 0.8303925696792677, 0.8255623330891568, 0.8206840574656467, 0.8157708531723712, 0.8108003119780077, 0.805827270775734, 0.8007688373285159, 0.7956735474214688, 0.7904745375824366, 0.7853178704899363, 0.7801668695429994, 0.7749328984920636, 0.7696681067340924, 0.7643483975744615, 0.7590295177264721, 0.7536713742202004, 0.748299766231598, 0.7429029193265402, 0.7375932094298467, 0.7321370310080754, 0.726542070297035, 0.7210745558863452, 0.7155877080308932, 0.7101175127224181, 0.7045934578745832, 0.6989725299441001, 0.6934372559716243, 0.6878884996899642, 0.6823511612622967, 0.6767790861976721, 0.6712238462432043, 0.6656389495618757, 0.6600529691081792, 0.6544759248617688, 0.6488912108736483, 0.6433699576382317, 0.6377868659004176, 0.6322137950966625, 0.6266204518318931, 0.621074176214526, 0.6154965239303289, 0.6099793135138915, 0.6044735416371624, 0.598929810155557, 0.5934583535550403, 0.5879975368123552, 0.5825553661472613, 0.5771303751103593, 0.5717045367059774, 0.5663218441229436, 0.5609548268603897, 0.5556173387996368, 0.5503043779653115, 0.5450545111806242, 0.539790914555818, 0.5346098214533955, 0.5294038173726735, 0.5242344636571226, 0.5190060288779758, 0.5139244160677313, 0.5089444378911089, 0.5039228896520139, 0.49894181700522416, 0.49397942206007467, 0.4890848739993033, 0.4842577685997601, 0.47944488846308914, 0.47467748745941757, 0.46996490276931413, 0.46528985966829417, 0.4606490606777051, 0.4560734231509964, 0.45154692367571164, 0.4471101513215345, 0.44267948933343687, 0.43824032339809066, 0.4339258817375095, 0.42966286281764066, 0.42546364752703675, 0.4213050829662677, 0.41721003360111636, 0.41316119250009203, 0.40916938460840724, 0.40521256866049654, 0.4013396439781012, 0.3974506057258602, 0.39370308484534794, 0.3900105589428441, 0.3864650824466117, 0.38287473016132195, 0.37926278381309614, 0.3758104438812793, 0.37241724769633505, 0.3690755567253205, 0.36580425108216835, 0.36266772821196847, 0.35950980231825264, 0.35641830852299333, 0.3533080550358394, 0.35035997077773157, 0.347583979685434, 0.34474538987889214, 0.34197557641484555, 0.33915491913172335, 0.33653639810700936, 0.33399288494964363, 0.33149479989212915, 0.3290594052637083, 0.3267720986105666, 0.3244520856079589, 0.32221718737032284, 0.3200305960390321, 0.31791186209954986, 0.3157524719423468, 0.3137810313079379, 0.3118637323948102, 0.31001289963768774, 0.3082219917510056, 0.30651951444128306, 0.30484518482579476, 0.3032211808985, 0.3016713116542175, 0.30012788520223066, 0.2987052284731273, 0.2973392388435369, 0.29602144232227445, 0.29476988247068137, 0.29363393354188894, 0.2924867405931894, 0.29139852810405453, 0.29040822814968037, 0.28943057450958337, 0.2884634983108843, 0.2876084291580623, 0.286807220003011, 0.2860620145506719, 0.2853660601270181, 0.2847219682969753, 0.2841289493971342, 0.2835861946074834, 0.2831694841244348, 0.28271507331829654, 0.28225027335478065, 0.2819063256545233, 0.2816079829871035, 0.2813373463981432, 0.2811297265411209, 0.28098111215941785, 0.2808545229906986, 0.280769280353414, 0.28072157161908917, 0.280716445564409, 0.28069280704638094, 0.280770342862483, 0.2808809553331135, 0.2810666566038976, 0.2812363316227653, 0.28137437529935544, 0.28161848028149206, 0.28189039228966717, 0.28228601360372224, 0.2825995724251942, 0.2828990485852613, 0.2832794391142352, 0.2836855667629253, 0.2840652719357119, 0.28452605762272376, 0.2850064234504747, 0.2855056675361915, 0.28602303106954136, 0.28665701009793265, 0.28719558283783775, 0.2876900316448918, 0.2882773957928912, 0.2888788443131218, 0.2895472135872734, 0.29016679016023084, 0.2907690283768986, 0.2914187718935126, 0.29207764035305, 0.29274729659970716, 0.29342054511299476, 0.2940995910701724, 0.29478327346603406, 0.29547044590245963, 0.2961429523728067, 0.2968358746573055, 0.29759323449875597, 0.29827531085231485, 0.29895831783414706, 0.29952444231628217, 0.30021963234341426, 0.3008822630261441, 0.30156023062165865, 0.30222625659378527, 0.30296231074081864, 0.30359304030739687, 0.3042209725118695, 0.30483287211604043, 0.3054343139182627, 0.30600144971420074, 0.3065814326650286, 0.30715201612342924, 0.30770027001342004, 0.30823205081504046, 0.30872944533299895, 0.3092277811907562, 0.30965499989776396, 0.3101190005015426, 0.31055868727057745, 0.3110049827770492, 0.3113911857833028, 0.31173113150290394, 0.3120724274902115, 0.3123875750264771, 0.3126959660813934, 0.3129548823033597, 0.31317029013802333, 0.3133777252164059, 0.3135564063910606, 0.31377393255253133, 0.31388500739959635, 0.31398668872121155, 0.3140417420770002, 0.3140693406215011, 0.3139691543793845, 0.31395140962924356, 0.3139091575090092, 0.3138182717601084, 0.31369214900427755, 0.31348241278941624, 0.31329147710364696, 0.3131103760337381, 0.3128367656401951, 0.3125278589702038, 0.31220893497001323, 0.3118254490754431, 0.31140453082795505, 0.3109517926709097, 0.31046349998504774, 0.30992798704772895, 0.309369106482793, 0.3088100760685198, 0.30817234121208226, 0.30749942102500116, 0.30674270702934636, 0.30600445030612433, 0.30524437401688037, 0.30442645649757993, 0.303571008396715, 0.30268658622371963, 0.3017551556919061, 0.3007159367216595, 0.29971980190069186, 0.2986829369423243, 0.2976882893645649, 0.2965615141623414, 0.29536928865007817, 0.2941778708572691, 0.29295029894846103, 0.29161021426465844, 0.29032078270546907, 0.28898318215411506, 0.2876164274382953, 0.2862113077308751, 0.28479139249121943, 0.28330923185502266, 0.28182932291846247, 0.2802737791230016, 0.2786867541067904, 0.27705429106200274, 0.27540681716785137, 0.2737704057459954, 0.2720549895208889, 0.2703113442923341, 0.26852540213086495, 0.2667275051149873, 0.2648471960811376, 0.2629994994888206, 0.2611210869545271, 0.25917879509563474, 0.2572458817332763, 0.25537371189558916, 0.25337030714972997, 0.2513440746506114, 0.24930946496624523, 0.24723662702501176, 0.2450575813850464, 0.2429536215249113, 0.24082443645088975, 0.2386654327321141, 0.23648971867373014, 0.23433414964805777, 0.23210924616160833, 0.22986632483689, 0.22763153734382804, 0.2253512160040235, 0.22300797206702774, 0.22070482946409958, 0.21838524421134917, 0.21604729769698783, 0.2136979258560052, 0.2113233123001617, 0.2089484882981509, 0.20656091603386662, 0.2042183030725251, 0.20180092101243388, 0.1992689756545842, 0.19685217690135, 0.19442350600658942, 0.19205527931151745, 0.18959797111219873, 0.1871622386152529, 0.1846943891547481, 0.18222524253291322, 0.17971834413961355, 0.1772525950930498, 0.1748359492653033, 0.17236063381838795, 0.169887861093792, 0.16733858364321896, 0.16488217362574337, 0.16245920588675003, 0.15999842606476772, 0.1575411923750949, 0.15512800141689964, 0.15267515150599462, 0.150162277260841, 0.14773460645348255, 0.14529220876348076, 0.14287834848404363, 0.14047052391941295, 0.1381350956720643, 0.1357343403597099, 0.1333095337627272, 0.13093952410586804, 0.12858112626113236, 0.12616131610188047, 0.12383768265521772, 0.1216201563413073, 0.11930487413122297, 0.11700709236347166, 0.11467038044085502, 0.11241573821417734, 0.11014803452750889, 0.10792841836828673, 0.10572410537745577, 0.10359279442814631, 0.10141470252336206, 0.09922654559590056, 0.09709499682728052, 0.09498345741633145, 0.09291518755303596, 0.09084245153617797, 0.0887784073599447, 0.08675351446875054, 0.08475128615835811, 0.0827976580600495, 0.08083871122052794, 0.07888514510176652, 0.07697933337830036, 0.07509793763395094, 0.07325262147986115, 0.07141955042005002, 0.06959824256466644, 0.06781904163749401, 0.06606534428237397, 0.06432608331670475, 0.06262565397378105, 0.061041671140685566, 0.05938138226475372, 0.05775244122352707, 0.056128839362391485, 0.054564467670877796, 0.052949330998812584, 0.05145226402696782, 0.04997923662937748, 0.048587564455084775, 0.047157081196478906, 0.045704257543621174, 0.044337614576737044, 0.04299667907203129, 0.041730016844819855, 0.04043533963893605, 0.039218150815466035, 0.03797567951629525, 0.0367647671549146, 0.0355961808204082, 0.0344452553957581, 0.033259666409617875, 0.032177640359689466, 0.031121509614432868, 0.03013106316881866, 0.02912186895813562, 0.028078484458767546, 0.027133299004028794, 0.02621216360708813, 0.02532376784042485, 0.024450133485763564, 0.02365530518370388, 0.02282460293893605, 0.022021694697199373, 0.02127440436072935, 0.0205218719074127, 0.0197006745717971, 0.01901522715383774, 0.018350772855839532, 0.017769867034779233, 0.017139846539716147, 0.016514677890348103, 0.015936050070568017, 0.01537994405688862, 0.014922605182083375, 0.01440076035705373, 0.013879083327601224, 0.013410865462025598, 0.012964967259237702, 0.012563410158660525, 0.012157278270545894, 0.011778463857165343, 0.011414114675020744, 0.011070197064876844, 0.01079702939241133, 0.01048529651721292, 0.010183363255864223, 0.009914301421823547, 0.009663705524321978, 0.00947331102859845, 0.009251843971889223, 0.009077277617359514, 0.008888247170851108, 0.008717351678148622, 0.008611712877872388, 0.008467741645006086, 0.00833302428465215, 0.008224403585568137, 0.008130668560043094, 0.00802530689057292, 0.007961722885131244, 0.007959966450350218, 0.00791088219555153, 0.007874340925217127, 0.00786645854998471, 0.007850201132815173, 0.007839257740124088, 0.00784484863947942, 0.007859485493390975, 0.007922219410261389, 0.007947960884850423, 0.008088084552961379, 0.0081184960927739, 0.008162554057196438, 0.008156273006661295, 0.00823098513147614, 0.008388226778566817, 0.008464476299283099, 0.008549760860766569, 0.008634436943241789, 0.00873559310819309, 0.008941565413398106, 0.009040447928762362, 0.009149014648147205, 0.009322622411303485, 0.00943937631241979, 0.009480179638478425, 0.009624623171356596, 0.009770811288981879, 0.009972254205919533, 0.010113973222954759, 0.010301980243815482, 0.01044508528009139, 0.01059301796376119, 0.010761941029175706, 0.010914907551811789, 0.011051543463653645, 0.011213392057323315, 0.011376374638306538, 0.011568520054126744, 0.011729209301654605, 0.011942833319780619, 0.012100376920926479, 0.012261889817617113, 0.012449376958403835, 0.01261398477045772, 0.012782064558317865, 0.012953028987912391, 0.013126390499919087, 0.013344310725043326, 0.013515972001141562, 0.013660247890011532, 0.013842982466735302, 0.01402684513348471, 0.014245801921029812, 0.01442742080094302, 0.014631838946375268, 0.014816601848396586, 0.015005045070513468, 0.015182733706857004, 0.015379662184824007, 0.015644208332859087, 0.015837677209195437, 0.01603735387531919, 0.016228678353878964, 0.016441542661411294, 0.016693032443840655, 0.016910756353962036, 0.01713504493124158, 0.0173345338515186, 0.01757551706547586, 0.017846622401116497, 0.01809386650368476, 0.018347791712326877, 0.018563165756158684, 0.018836734522408437, 0.01912925522509768, 0.0194112196355669, 0.01970005194600668, 0.020053022292264435, 0.02034999323931705, 0.020610370734703728, 0.020936804696822246, 0.0212723991674807, 0.021705697227939986, 0.022050253819180052, 0.022317042273503875, 0.02270504864021926, 0.02310352363495386, 0.023595557488124808, 0.0240069714474166, 0.02447272399966676, 0.024914474829743835, 0.025401539559620493, 0.02587954464621625, 0.026378707000608213, 0.026873388896327937, 0.027417889529501926, 0.027911168692060374, 0.02850443664713539, 0.029114235299577264, 0.029792672169382105, 0.030432149600092228, 0.031025938903564056, 0.03171937267351538, 0.03243248053968208, 0.03322029607589091, 0.033969261103054406, 0.0347867158685762, 0.03558271618168822, 0.036408163602926286, 0.03725195362276918, 0.038138519365387286, 0.0390179036193844, 0.039969023644144196, 0.0409487718570633, 0.0419693288106883, 0.04300737631103835, 0.044105508287078266, 0.04520408505809448, 0.04633735038506445, 0.04742348180110567, 0.04863792969488023, 0.04995482748792011, 0.05122452439510684, 0.05253201820365708, 0.05388063025402903, 0.055264825303268365, 0.05672535350553853, 0.0581842782064383, 0.05968572555468496, 0.06122707784800364, 0.06281463138555446, 0.06442263328176398, 0.06609970674849247, 0.067819391263319, 0.06957376029549782, 0.07138149413221713, 0.07317919191878422, 0.0750821216744279, 0.07702715007571774, 0.07906070670742418, 0.08108721935564174, 0.0831357318670071, 0.08526101303983667, 0.0874333219929987, 0.08967600655811722, 0.0919414110141527, 0.09430802399231351, 0.09666760361022653, 0.09908089363388073, 0.1014598654880905, 0.10399152050547976, 0.10665696582310895, 0.10927593872314485, 0.11194977207434169, 0.11462448834223868, 0.11741468185585627, 0.12026509955372632, 0.12315808017550142, 0.12610409065544403, 0.1290835662838177, 0.13213901042424253, 0.1352556918410452, 0.13841588816234582, 0.14162999764908427, 0.1449521501674228, 0.14826790094357353, 0.1516610191986385, 0.15508896602204789, 0.1585749476336189, 0.1620617978167675, 0.16566979921207292, 0.16931163074701072, 0.17302965217427985, 0.1768004659306209, 0.1805959120285001, 0.18447648209972783, 0.18843426514920544, 0.19241524570142796, 0.19644983062804583, 0.20050958065410757, 0.20465472266355583, 0.2088487212849274, 0.21309765552056667, 0.2173981517811673, 0.22177852778650695, 0.22617833593362502, 0.23056002714394047, 0.2350739859303443, 0.23963586055558608, 0.24424573085011622, 0.24890358543053484, 0.25361784056530207, 0.25837022270582705, 0.26317055219924945, 0.26803830970851744, 0.2729308282457579, 0.2778427387613688, 0.28283368604493425, 0.2878694053492425, 0.29292669186284825, 0.2980532559191202, 0.3032642117871639, 0.3084685952369946, 0.31371620836131764, 0.318923841785633, 0.3242655233029191, 0.329671371598207, 0.33508075116115293, 0.34052681846112753, 0.34602872385288397, 0.3515434722710377, 0.3570426705019908, 0.36263390682422153, 0.3682557534912228, 0.37394161619659044, 0.37961838312551033, 0.38527730786854775, 0.39101984933803896, 0.39678783974138426, 0.40262875401961695, 0.40843920019600044, 0.41420723739101395, 0.4200763376972862, 0.4259646436001658, 0.4318969043981665, 0.4378179623579643, 0.4436776478622162, 0.4496437073445997, 0.4556209768065391, 0.4615946654421785, 0.46759423190802835, 0.47366735567181584, 0.4796744966128758, 0.48569196217437044, 0.49167572231537565, 0.4977147979351753, 0.5037431862014304, 0.5097899019348243, 0.5158369683678731, 0.52188893023269, 0.5279325378062192, 0.5339448978936343, 0.539985024949769, 0.5460180146824422, 0.5520512267444454, 0.5580653551073093, 0.5640692117449231, 0.5700614318578557, 0.576040621522261, 0.5819401032330334, 0.5878972020708276, 0.5938531463653887, 0.5997647491222198, 0.605654464521235, 0.6114727953398745, 0.617321002426088, 0.6231350275960467, 0.6289259484767141, 0.6346859888776086, 0.6405020175973335, 0.646185848265066, 0.6518062374370714, 0.6574336193568436, 0.6630258096054792, 0.6685698539834303, 0.6740882871000878, 0.6794894890809969, 0.6849348680960312, 0.6903323369669715, 0.6957632982293017, 0.7010518307201561, 0.7062715194432708, 0.7114688929847486, 0.716615403447132, 0.7217294203719704, 0.7267672269223845, 0.7317593482024954, 0.7366860617320167, 0.7415558428742266, 0.7463301788313811, 0.7510859139270901, 0.7557296430694536, 0.7603627126330611, 0.7649268593820806, 0.7694127349194686, 0.7738375561485223, 0.7782328937445239, 0.7825073592185176, 0.7867103571466929, 0.790789519055321, 0.7948521658174265, 0.7988366415462673, 0.8027421152707915, 0.8065677253197627, 0.8103437954562401, 0.8140030527188048, 0.8175275755291709, 0.8210308153920923, 0.8244421900147612, 0.8277730673816204, 0.8310160104515676, 0.8342355745039096, 0.8372922678309284, 0.8402625207581637, 0.8431450563824425, 0.8459386562196454, 0.8485683880474326, 0.8511900105977386, 0.8537521153213791, 0.8561758557340253, 0.8585044127302275, 0.8606717749077986, 0.8628159784705591, 0.864915891053462, 0.8668506881054995, 0.8686872785254826, 0.870399441920083, 0.8720408250574936, 0.8735806088760562, 0.875018409353208, 0.8763538497007064, 0.8775525154864219, 0.8786864526027486, 0.879749105910994, 0.880668026485855, 0.8814834139955755, 0.8821977585698828, 0.8828047084540487, 0.8833442152497386, 0.8837375646954707, 0.8840281290112135, 0.884215400053331, 0.8842989415023138, 0.8842102900891033, 0.8840939432432817, 0.8838691333344222, 0.8835021782205436, 0.8830658321315085, 0.8825201784685719, 0.8818658341612953, 0.881103382218017, 0.880270263271081, 0.8792885782189926, 0.8782535359801982, 0.8770567482199446, 0.8757588529474262, 0.8743625516767508, 0.8728617584405678, 0.8711945964042211, 0.8694999097275169, 0.867700676948357, 0.8657806174173858, 0.8637766742261157, 0.8616297390069855, 0.8594251660428674, 0.8571168591177087, 0.8547428942050661, 0.8522259867397177, 0.8496392423693758, 0.8469231166210146, 0.8441119654486273, 0.8411297725019541, 0.8381400743904157, 0.8351522643862922, 0.8319565139410193, 0.8286715616209903, 0.8252439755701698, 0.8217889421330615, 0.8182149617850495, 0.8145834917906841, 0.8108621119526076, 0.8071089393393586, 0.8032046614464879, 0.7991524676472423, 0.7950920013574467, 0.7909470179303739, 0.7868012982605741, 0.7824813547133308, 0.7780377200682941, 0.77357375168624, 0.7690332734098284, 0.7643409971503208, 0.7596611571795561, 0.7549215334875353, 0.7500879053136239, 0.7451823221892676, 0.7402519080330843, 0.7352018262060075, 0.7300562221633905, 0.7248827476305406, 0.7196458067672803, 0.7143781992544902, 0.7090151416899402, 0.7035610739298502, 0.6980897223740091, 0.6925621800766525, 0.686943220456217, 0.6813129279393506, 0.675703098945298, 0.669958803856343, 0.6641691777862332, 0.6583440027543119, 0.6524664918355099, 0.6465111786407025, 0.6405578173531082, 0.6345641517584213, 0.6284609460247076, 0.6224007280533546, 0.6163580538418396, 0.6102145164129922, 0.6040394087728702, 0.5977833251012513, 0.5915565284360613, 0.5853201449514635, 0.5790340092029788, 0.5727236227125464, 0.5664361888966009, 0.5600769567635526, 0.5535992284465618, 0.5472215798980516, 0.5408246228928314, 0.5344247900751836, 0.5279940794437737, 0.5216364772755779, 0.5151728927021848, 0.5087058468302287, 0.502208102479663, 0.495741174784983, 0.48925570953171527, 0.4827893932713184, 0.4763235840876256, 0.46983153738672, 0.4633751985684095, 0.4569907059688175, 0.450535067443973, 0.44409057426130144, 0.4376016567887275, 0.43119018801104436, 0.42483569050668263, 0.4184433394255796, 0.41206848901596066, 0.4057124073048659, 0.3993763725430316, 0.3930730196685354, 0.3867795059117938, 0.38051054550135976, 0.3742276182153194, 0.36801640218381343, 0.36184816465159897, 0.3556882453066339, 0.34955827649618476, 0.34337446503533753, 0.33731911737163034, 0.3313297454996667, 0.3253298643252546, 0.31936493440894476, 0.3133824936264967, 0.307498567202732, 0.3016535815551955, 0.2958432264775773, 0.2900724794772244, 0.28436838228479316, 0.27867805704284154, 0.2730699308632582, 0.26746663757973055, 0.26191282167266655, 0.2563552642510519, 0.2509092878201923, 0.2454862921478605, 0.24014169141484684, 0.23484634151890676, 0.22963265441770261, 0.22443538570504318, 0.2192385832848238, 0.21415760955978158, 0.20912940958811121, 0.20420047657184895, 0.19927528824642377, 0.1943659018502095, 0.18956331156098774, 0.18481765890361695, 0.18020917824483212, 0.17556966065111002, 0.1709568330614853, 0.16644909764461532, 0.16200283020720746, 0.15766373983813356, 0.15333558563793487, 0.14902409068833541, 0.14483170952454377, 0.14070131459529198, 0.1365736420632818, 0.13257567879080404, 0.1286854522329242, 0.124801096736626, 0.12098026269233564, 0.11721457681932924, 0.11352224732344174, 0.10989328667236357, 0.10632781229363543, 0.10281171780537571, 0.09937521406309213, 0.09600153393277971, 0.09265671921555382, 0.08941321247004051, 0.0862647956143779, 0.08313929716610312, 0.08007713465380552, 0.07706109538187661, 0.07412715982109644, 0.07129466928827427, 0.0684790158868832, 0.06572698791489177, 0.06295859376898015, 0.060342219606855776, 0.05784295113096283, 0.05533417289112009, 0.05288634619905576, 0.050425144576691866, 0.048106865512179374, 0.04582099021637306, 0.04361578129176244, 0.04146430436877611, 0.039448850636657276, 0.03739436537915431, 0.0354291857372358, 0.03348602621547962, 0.031600884245048935, 0.02974423168682645, 0.027975282892186076, 0.02624521090613307, 0.02458335024054528, 0.02297208757972283, 0.021356785785075248, 0.019851329764843002, 0.018399712844833837