0.01753969676899515, 0.017347314267999528, 0.01718878696082459, 0.01705722974355606, 0.01697785073448779, 0.01692797962070599, 0.01689929717772773, 0.01689621025325434, 0.016957325127878647, 0.016981156315756512, 0.01702034841576123, 0.017013045748728958, 0.017084138646307097, 0.017156228491116948, 0.01724013521973171, 0.017328967313002246, 0.017448792935703582, 0.017543557538137113, 0.01761424224458756, 0.01772499364663203, 0.017840189939110056, 0.0179587103905355, 0.018084334432986605, 0.018218863095920145, 0.018356297918835588, 0.018500912780789084, 0.01866415102632623, 0.018823590270582946, 0.01901512448241582, 0.019191567165717877, 0.019380022161146194, 0.01953675060061014, 0.019755981160923617, 0.020013828250125702, 0.02025182829541009, 0.020503692610221426, 0.02075521361919048, 0.021038159765140844, 0.021346463381709396, 0.021657678311827945, 0.02198519430816189, 0.022258261989501347, 0.022628767181408573, 0.02304080396550249, 0.023436120278175425, 0.023848592211983228, 0.02425562208028833, 0.02470717468218959, 0.025169370957990843, 0.025657728130207932, 0.02616465883843108, 0.026737267408761433, 0.027277405631544946, 0.02780882838023442, 0.02839917920504436, 0.029011097807694168, 0.029669018040765403, 0.03032233231167331, 0.0309402161903999, 0.031649606786004605, 0.03238022698180929, 0.03312735622337798, 0.03390316656626254, 0.0346933433247246, 0.035516606442843095, 0.03636346254824936, 0.0372840627625836, 0.03817363645854446, 0.03903015746571204, 0.039983774050068706, 0.04096231002098731, 0.04195558184885285, 0.04298724777330489, 0.044074486678648224, 0.04515538697464253, 0.046265332257493276, 0.0474038784429745, 0.04857300204031702, 0.049716386584609654, 0.05095288368606437, 0.05221692666860105, 0.053527109036359516, 0.05484630888629007, 0.05616685324420949, 0.05755179155664284, 0.05896681967221159, 0.060404120682683804, 0.06188245229496552, 0.06339235553904093, 0.06493447174590955, 0.06650940022777026, 0.06810299520535737, 0.06974705809347395, 0.07145797823165755, 0.07316556485844133, 0.07490972709810573, 0.07664116933681123, 0.07846548109400782, 0.08037696062396656, 0.08226432441332068, 0.08419041366612189, 0.08608646411875084, 0.08809910909704811, 0.09018031384709861, 0.09226001160596589, 0.09437821340976485, 0.09647177173489394, 0.09867596613009681, 0.10095318066574015, 0.1032251909217609, 0.1055366399056226, 0.10783986970017036, 0.11023723776099696, 0.11265988401189385, 0.115134783552108, 0.11764785800511747, 0.12022447944292769, 0.12281250576133487, 0.12539370115970078, 0.12807032265192855, 0.13078579123129436, 0.13353135009193806, 0.13632720915657534, 0.1391488409045931, 0.14202627636770918, 0.1449433758867838, 0.14790052848186944, 0.15089805435786768, 0.15396175520062305, 0.1570375133459438, 0.16015568464907043, 0.1632960389393879, 0.16650124983699768, 0.16973189692086496, 0.17302090688398805, 0.17634994373144555, 0.17969662310902895, 0.1831086970841562, 0.18658746215879013, 0.1900737802278685, 0.19360066496118694, 0.19715551430114991, 0.20076442637863337, 0.20435986101508022, 0.20805356948083722, 0.21178309887913654, 0.21553005916918122, 0.21933406280873294, 0.22316466189964207, 0.2270400812615675, 0.23095029111226795, 0.23494022262572892, 0.23891436846416414, 0.24289475074429825, 0.2469466794535065, 0.25103299746440416, 0.2551069562634803, 0.25926696942997823, 0.2634453438926068, 0.2676683678436467, 0.2719212679111978, 0.2762565803590543, 0.2805621985046491, 0.2848428373337244, 0.28921956300444474, 0.2936238926458357, 0.2980470202922615, 0.3025066968706038, 0.30698469913737514, 0.31149708883971566, 0.3160342567221418, 0.32059033885786525, 0.32517635639866965, 0.329783802168542, 0.33441541422083815, 0.33906876035685446, 0.34375868960750394, 0.348451608640355, 0.3531658884170799, 0.3578990137143966, 0.3626564334313401, 0.36742571984263817, 0.37221236213796843, 0.37697590893797284, 0.3817993263247423, 0.3866241070089259, 0.3914726201694711, 0.39633133014890826, 0.40122742837860886, 0.40610093488132726, 0.4109437831910094, 0.4158405317945277, 0.42074253764621294, 0.4256537160397015, 0.43056341290912437, 0.43551964560193274, 0.44042933756313263, 0.44534281740789927, 0.4501937532661624, 0.4551191153322018, 0.46006705053037505, 0.46498085065130057, 0.469890840827005, 0.47482769984185486, 0.47972286586691815, 0.4845965220868339, 0.48948187275432975, 0.49435835133995604, 0.4992371463467275, 0.5040907236913896, 0.5088636379327472, 0.5137010823559421, 0.5185202978852497, 0.5233778381091593, 0.5281511113379644, 0.5328775990944281, 0.5376184979296951, 0.5423376847753382, 0.5470549689869655, 0.5517247997251175, 0.5563746374807617, 0.5609949448588433, 0.5655889996534705, 0.5700920060502197, 0.5746376249722581, 0.5792083236241232, 0.5836782252329824, 0.5881160642384794, 0.5925034560706538, 0.5968752736531927, 0.6011899289625869, 0.6054890453114307, 0.6097476468301304, 0.6139964538106416, 0.6181669426737156, 0.6222661738223612, 0.6263553692350207, 0.6303984371851433, 0.6343664583591672, 0.6383176238449032, 0.6422070682894657, 0.6460569771713873, 0.6498536431040639, 0.6536271948269118, 0.6573109229661818, 0.6609149988095447, 0.6644925660827492, 0.66801225225148, 0.6714715596629494, 0.6748728164024143, 0.6782178610923763, 0.6814958471091939, 0.6847112893589755, 0.6878523322110786, 0.6909410041231566, 0.6940045048117265, 0.6969546797423666, 0.699839125414482, 0.7026682050097053, 0.7054160245194981, 0.7080889601791484, 0.710698965190908, 0.7132375522079745, 0.7156579846986967, 0.7180563494538266, 0.7203884864619278, 0.722630765499974, 0.7247954052276881, 0.7268615890183963, 0.7288714286609018, 0.7307950299686818, 0.7326434108380956, 0.7344096509606064, 0.7361017908082261, 0.7377012427096038, 0.7392052051457232, 0.7406394592407047, 0.7419888145662442, 0.7432466461380042, 0.744425691224365, 0.745542970675388, 0.7465454430968761, 0.7474620346323015, 0.7482736087545551, 0.7490191438799191, 0.7496606971373811, 0.7502308784337516, 0.750711084418708, 0.7511367668818428, 0.7514320568013645, 0.75160562908602, 0.7517278358603344, 0.7517589356859268, 0.7517445304638819, 0.7515874485214457, 0.7512928861054186, 0.7509641438691919, 0.7505432172817144, 0.7500464769879956, 0.7494394800017419, 0.7487160382631665, 0.7479304845415109, 0.7470526563337417, 0.7460797381160474, 0.745018599735018, 0.7438705176006807, 0.7426259441778339, 0.7412907093509689, 0.7398689951390094, 0.7383529013200201, 0.7367829611927486, 0.7350837978832258, 0.7332978840600711, 0.7313835258699007, 0.7294297757388531, 0.7273874310798024, 0.7252571124142694, 0.7230394526647241, 0.7207281321660014, 0.7183386273116871, 0.7158471233973408, 0.7132889393783051, 0.7106456171038396, 0.7079149692164075, 0.7051044872884918, 0.7022656035907369, 0.6992840363718276, 0.6962248042360581, 0.6930326871263809, 0.6898267720556908, 0.686584359094926, 0.6832160555692282, 0.6797733421158948, 0.6762353375916649, 0.6726489676665497, 0.6689569714434278, 0.6652295765824009, 0.6614294502079165, 0.6575703695655445, 0.653627376621049, 0.6496544139886941, 0.6455720879023668, 0.641426520051313, 0.6371652722610807, 0.6329029390059966, 0.6286223205906273, 0.6242294865935861, 0.6197790539215857, 0.6152319254117133, 0.61067488492666, 0.6060855560560943, 0.6014144970950315, 0.596691660848604, 0.5919300354613708, 0.5871063279454342, 0.5821969819901374, 0.5772856392642135, 0.5723279018742687, 0.5673316721375088, 0.5622854792317435, 0.5572277475017928, 0.5520975575306093, 0.5469313219393599, 0.541718822062194, 0.5364861708523961, 0.5311932225039687, 0.5259008037987568, 0.520577544312279, 0.5152554515311302, 0.5098721335267926, 0.5044186333920753, 0.4989952426474701, 0.4935485882501827, 0.4881084762002601, 0.4826175589095653, 0.4770820299287712, 0.47156442226446155, 0.46603250255066453, 0.4605191034633488, 0.45496023011069076, 0.4493811610886316, 0.44381143148249497, 0.4382370448312677, 0.43262175299690586, 0.42704788684949435, 0.4214962611599983, 0.4159178223264057, 0.41031114007496033, 0.4047453978657289, 0.3991847500087985, 0.3936690535363819, 0.388119538773977, 0.38253955590557637, 0.3770227832940602, 0.3715194651449386, 0.36603764958558355, 0.3605659814586592, 0.35510968651057023, 0.3496786808325765, 0.3442700449265984, 0.33888002161023373, 0.3335217643620536, 0.3281835020429964, 0.3228816682268151, 0.3176096126482173, 0.31241616760222785, 0.30720250583507897, 0.30202136639588445, 0.2968837592427492, 0.2917853426382288, 0.2867102881758968, 0.2816960142700958, 0.2766887586702807, 0.2717639375356116, 0.2668816856957615, 0.2620466864952779, 0.25725388798585985, 0.25252468698417185, 0.24782592295721462, 0.2431781802924635, 0.23859658073259746, 0.2340526604299553, 0.2295214622039049, 0.22509451897607063, 0.2207224764899962, 0.21644690710617848, 0.21218348295739728, 0.20796862898071483, 0.20382951653105486, 0.1997523257605435, 0.19574958241837923, 0.1917974861413944, 0.18786496176240808, 0.184049867927327, 0.18029892665260258, 0.17661321755091378, 0.17299375638229378, 0.16945078690001064, 0.16596545404955287, 0.1625495839161675, 0.15923020858578943, 0.15595203625663426, 0.1527181810958103, 0.14958992574457017, 0.14653376916073027, 0.14356887269551125, 0.14065627148630255, 0.1378114638832674, 0.13504956824369493, 0.13236262784043995, 0.12975405308649846, 0.12721754285516998, 0.12472604751633422, 0.12234560222339055, 0.1200397583257832, 0.11784760556929429, 0.11568717028569449, 0.11355882063724489, 0.11155957390936279, 0.10963531186902493, 0.1077924674900796, 0.1060180504435873, 0.10436362360591057, 0.10273537654659219, 0.10118544980774388, 0.09968863674443877, 0.09829717267535419, 0.09699448493102966, 0.09575234549845385, 0.09458603750620212, 0.09345024900049327, 0.09244001325621484, 0.0915242316706518, 0.09065505591944155, 0.08985885166930023, 0.08911197383189418, 0.08846334274693919, 0.08790048303760205, 0.0873901313305753, 0.08695019501095624, 0.08658086982258717, 0.0862798960970354, 0.0860684412409689, 0.0859013763500351, 0.08580269883425808, 0.08574440057233298, 0.0857831674997452, 0.0858991868495522, 0.08606375017932315, 0.08629165408834198, 0.08656960631183513, 0.08692301388509864, 0.08734556910280054, 0.08781664798035528, 0.08834633008095041, 0.08893824875748192, 0.08958149634367377, 0.09026038764266789, 0.09101661001574347, 0.09182524044860148, 0.09271549174573392, 0.09362215984158888, 0.09455203605689788, 0.09556306163874248, 0.09662096996398474, 0.09774092809127924, 0.09888725359047287, 0.10004474192845263, 0.10128287329704543, 0.10256098171391796, 0.10390511549845645, 0.10525658068562024, 0.10664242476012166, 0.10806950612858382, 0.10953187280946801, 0.11100031100813763, 0.11253272213835673, 0.11411491690926262, 0.11570295571624607, 0.1173194614972142, 0.11897545059569727, 0.12064321138431557, 0.12230736788505181, 0.12402733585199446, 0.12576776792103003, 0.127564578725082, 0.1293374984946884, 0.13109512625585332, 0.13290829099947662, 0.1347351439915094, 0.13657131212753856, 0.13842208874935127, 0.14027786555671304, 0.14214723131255846, 0.1440233955331322, 0.14590586250862714, 0.14779170488964247, 0.14967667708824445, 0.1515677051030025, 0.15345890365274334, 0.15536524830558432, 0.1572508885559594, 0.15915620821868293, 0.16103205489444355, 0.16290357359844235, 0.16476920042002038, 0.1666274114175264, 0.1684759464969458, 0.17031500168193864, 0.17214224598113773, 0.17392921049239404, 0.1757321592813014, 0.1775030301931195, 0.17927202662554398, 0.1810206860345697, 0.1827426399026778, 0.18444844930640775, 0.1861640227081585, 0.18781765198874714, 0.18944776085808188, 0.191019080761589, 0.19260285748047726, 0.1941909515843409, 0.19571174130708843, 0.1972037400292311, 0.19864106085447722, 0.20007529349575914, 0.20150396353319658, 0.2028669983348565, 0.20419654273816332, 0.20547686634856088, 0.20673825916825822, 0.20793838684779448, 0.20912748437811124, 0.21027640513409798, 0.21140781585158663, 0.2124717796788846, 0.21351687641526093, 0.21449628005946247, 0.21543491302219098, 0.21627928610682148, 0.21714052589229277, 0.21799898177746616, 0.21876219527304758, 0.21948113810587255, 0.2201226579705897, 0.22075528809448072, 0.22133460657613838, 0.22187187926937266, 0.22236818956337934, 0.2228068800466758, 0.22319691235405587, 0.22353339527687133, 0.22382597539467852, 0.22410533072789865, 0.22429394549786072, 0.2244347050333518, 0.22452564892025265, 0.2245697119716019, 0.22455082567765342, 0.22449837626638114, 0.22439569173422308, 0.22424737805865405, 0.22404354999931597, 0.22377346414020524, 0.22347169753285553, 0.2231190712233606, 0.2227188883912729, 0.22226478732909918, 0.22174750902594495, 0.2211952663191297, 0.22059274946437327, 0.21996665543196076, 0.21926140738731062, 0.218521684662191, 0.21771970256990464, 0.2168712589476428, 0.2159757479812092, 0.21503503329069912, 0.21402988628200606, 0.21300012587372164, 0.2119241390529068, 0.2108133072842915, 0.20964514980758273, 0.20843848241065216, 0.2071822967570768, 0.20588354368791353, 0.20450172564796726, 0.20312464118646165, 0.20170359245171346, 0.20024117575911346, 0.19873741299496533, 0.1971978816351743, 0.19561362997251297, 0.19402203075318808, 0.1923581200473844, 0.19065939131539522, 0.18891254418610348, 0.1871478747610352, 0.1853302557268053, 0.18350168129626898, 0.18164012635963422, 0.17973578358783274, 0.17781272150508748, 0.17589862301698017, 0.173910647639226, 0.17189657333913633, 0.1698269779413864, 0.16776685304578198, 0.1656782289587833, 0.16356878530568825, 0.16143595069027153, 0.15928315782282385, 0.15710657250793467, 0.154937131403525, 0.1527182993799118, 0.1504831881831281, 0.1482287822508787, 0.1459641927548194, 0.14367491104617325, 0.14138493916604578, 0.13908243556336802, 0.13678937500147756, 0.13446239223367878, 0.13210173650667084, 0.12976263701249208, 0.1274158186210807, 0.12506398584727288, 0.12270499394834018, 0.12033174920912182, 0.1179667668922953, 0.11559925726483637, 0.11322963019701124, 0.11086069834426954, 0.10849579279589014, 0.1061294702477897, 0.10376651705093401, 0.10141188823086672, 0.09905842682757711, 0.09673189702548769, 0.09439052190070187, 0.0920591130162896, 0.08972612747786708, 0.08741875531884448, 0.08513946934706196, 0.08285467383351368, 0.0805845549303976, 0.07834000022221692, 0.07610044410897522, 0.07387475405379157, 0.07167192038591733, 0.0694881379100772, 0.06733660306116812, 0.06519179331180286, 0.06307690899336355, 0.06097620239213488, 0.05889954843800955, 0.056845289862651666, 0.05481904069031769, 0.05282338311377392, 0.05084914871086007, 0.04890253732737473, 0.04697957253150548, 0.045090798557753164, 0.04327783328962995, 0.04144261606579442, 0.03964075848637409, 0.037853212587878785, 0.03612146524479365, 0.0344330591674678, 0.032767138517684806, 0.031136143716952287, 0.029576911414833467, 0.02801253889696071, 0.026473350102583396, 0.02498749308870284, 0.02353960439539053, 0.022189617133960414, 0.020811127248136545, 0.01946257658726103, 0.018170166385665706, 0.016919173841219822, 0.015759985794818094, 0.014585714543816835, 0.013472241735175947, 0.012384742652777432, 0.011342246103765198, 0.010374671282600471, 0.00941761806284254, 0.008525211964414706, 0.0076576003882027795, 0.00683647231281633, 0.00607461607719724, 0.005343747109311738, 0.004690919400030047, 0.004048346402225396, 0.003453312620749389, 0.002913103418662443, 0.0024108730848050055, 0.001979445230917615, 0.001567455656281009, 0.0012029926534817667, 0.0008763275105768285, 0.000606830123559009, 0.0004296265466328997, 0.000245738621954481, 0.00010989512050142114, 7.34097152908031e-05, 2.551135271813837e-05, 0.0, 5.3673431389981536e-05, 0.00015376803682668285, 0.0003284919511761028, 0.0005165485733750836, 0.0007723431052365583, 0.0010508645253589671, 0.0013763069741298496, 0.0017735658162937296, 0.0021877284171492265, 0.0026879312120403898, 0.0031895132510923302, 0.003738501812936027, 0.0043370682979284245, 0.0049777851188315255, 0.005735529151690337, 0.006456485956612189, 0.007225105486849142, 0.00805952857327775, 0.00891750699616384, 0.009814733729943433, 0.010763309276307113, 0.011754938293196508, 0.012813551702822723, 0.013885704739361208, 0.015005392721261444, 0.01616022858737382, 0.017355821620117354, 0.018609191173473223, 0.019881750187508443, 0.021190774523938662, 0.022542064015491966, 0.023931225025977703, 0.025430357462044535, 0.026884110415139315, 0.028385673692381628, 0.02991743156537577, 0.03148747601334701, 0.03305993310427693, 0.034707912885959424, 0.03644584147521842, 0.03815301488896522, 0.039862445491563064, 0.04164394853944174, 0.043457269857708175, 0.04531577898748118, 0.04718930542031654, 0.04911315298013232, 0.05104554992153469, 0.053008785316780674, 0.05505321945266317, 0.05706952731720032, 0.05913217700470717, 0.061208860465434264, 0.06331601401938099, 0.06540386735412462, 0.06757519153470588, 0.06983880341711139, 0.07205109659159853, 0.07429131150498255, 0.07656625568451307, 0.07885860783391596, 0.08114963268279983, 0.08349613920365906, 0.08586534761427425, 0.08825446534359595, 0.090667980872698, 0.09314374261158452, 0.0955941168120151, 0.09806723555464045, 0.10051363128931763, 0.10303635178987498, 0.10558796085135673, 0.10814524376275958, 0.11072083418539738, 0.11336941238094339, 0.11597383622525476, 0.11857637633158347, 0.12122405448995645, 0.12388967027901787, 0.1265457100753946, 0.12924938827904772, 0.13197913149748997, 0.1347117632062306, 0.13745995943256412, 0.14022426232067126, 0.14300280038188876, 0.1457962700180095, 0.14860445264859973, 0.15142713721778628, 0.1543152087261344, 0.15715983564010227, 0.16003595302590204, 0.16291169753526158, 0.1658039317014235, 0.16867026290836407, 0.17159904719569954, 0.17455199649909925, 0.1775043425673324, 0.18046974601212934, 0.1834704994011766, 0.18645873289308698, 0.18946087507748538, 0.19247664546023918, 0.19550580226319456, 0.19855588002035637, 0.20161024543791278, 0.2046508169516927, 0.20773502717284295, 0.21083069367704838, 0.21391856886677366, 0.21703990771595402, 0.2201881872401716, 0.22332910451952745, 0.22648212812958704, 0.22967057973174448, 0.23284518191756315, 0.23597080250707192, 0.23918069005585732, 0.24240064774145254, 0.2456265082271559, 0.2488685843511017, 0.2521388141759364, 0.2554013918879514, 0.2586768290652688, 0.261942110841443, 0.26524681546824747, 0.26861708292373404, 0.2719397105250451, 0.2752782030087656, 0.27861929108486966, 0.2819908783723382, 0.2853827727666664, 0.288783535868796, 0.2921996706408024, 0.29556312184978895, 0.29901881552261195, 0.30248551598630674, 0.3059655210022545, 0.3094585103872561, 0.3129689048149139, 0.3164889777986964, 0.3200082862458888, 0.3235601424302777, 0.32712660069501337, 0.3307034757541263, 0.33430106284224453, 0.3379715340247161, 0.34159347396985656, 0.3452349763398441, 0.3488858438457977, 0.35256737061067994, 0.3562211365050174, 0.3599459311685329, 0.36368687366123825, 0.36746528967979253, 0.37123712631906264, 0.374983332594965, 0.3787978874039169, 0.382628763518869, 0.38652986840555614, 0.39038807414190146, 0.3942019202643992, 0.3981095992723376, 0.4020341621464208, 0.4059691201650474, 0.4099297110198015, 0.41393825897485015, 0.4179309547119536, 0.42194383432642046, 0.4259784953577991, 0.4300316847707944, 0.4340735255361198, 0.43817151041856567, 0.44228810750993597, 0.44642433648316165, 0.4505787571511257, 0.45474703542207334, 0.4589408219315185, 0.4631538066852897, 0.4673605577947391, 0.4716154730999814, 0.4758876204420344, 0.4801788720960898, 0.4844884867946842, 0.48884910758280686, 0.49319168958672116, 0.4975500799369463, 0.5019339005073297, 0.5063374016537312, 0.51070540068558, 0.5151545303619444, 0.5196110409930592, 0.5240932272275944, 0.5285911434093463, 0.5331234990182846, 0.5376508580232962, 0.5421650100951046, 0.546729954829953, 0.5513097663127368, 0.5559531975874558, 0.5605564796440338, 0.5651252948237945, 0.5697693600814964, 0.5744267830526126, 0.5790912278672863, 0.5837756680228051, 0.5885073716585802, 0.593212032970624, 0.5979305616970892, 0.6025981049500551, 0.6073506701115454, 0.6121201787331073, 0.6168884179320737, 0.6216652789719022, 0.6264156172118865, 0.6312131394143529, 0.6360681050079011, 0.6408700570101749, 0.6456800757959998, 0.6504285338923009, 0.655261178555366, 0.660102749674798, 0.6649382180876415, 0.6697755277395564, 0.6745925818498612, 0.6794349862572352, 0.6842649629029665, 0.6891067899088145, 0.6939462576640163, 0.6988053674737306, 0.7036358716463231, 0.7084521306968492, 0.7132780245509206, 0.7180989847475626, 0.7229274008240458, 0.7277344867964058, 0.7325156173448409, 0.7373109733837112, 0.7420966888007918, 0.7468115488419176, 0.7515830741087294, 0.7563320036130303, 0.7610727169174843, 0.7657964583496262, 0.7705444914128406, 0.7752273216287539, 0.7798604173472337, 0.784513483296663, 0.7891058210452406, 0.7937221936336596, 0.7983141296304629, 0.8029027165206833, 0.8074412058231304, 0.8119746271675118, 0.8164592245220968, 0.8209178068324664, 0.8253035244370173, 0.8297123080525287, 0.8340711609206537, 0.8384171207729149, 0.8427282675142782, 0.8470255109705318, 0.8512619455207638, 0.8554662072506932, 0.8596289855617263, 0.8637537620790602, 0.8678115320230461, 0.8718604072745528, 0.875829130791245, 0.8797957838940585, 0.8837154727791696, 0.8875697120809626, 0.8913956197771473, 0.8952216652457953, 0.8989401656969727, 0.9026098718227002, 0.9061699781075941, 0.9097460317758844, 0.9133120322701853, 0.9167701679668939, 0.9201737000225575, 0.9234595478040614, 0.9267582454873585, 0.9300201973480484, 0.9331921049608417, 0.9363025847582274, 0.9393135642850904, 0.942303122726941, 0.9452465104188802, 0.9481002875273685, 0.950887570704217, 0.953619866868309, 0.9562699544501098, 0.9588515898538185, 0.9613637827603805, 0.9638055568068303, 0.9661473103771219, 0.9684490006388645, 0.9706502867013231, 0.9728048071530133, 0.9748816652669616, 0.9769152038966095, 0.9788308344977377, 0.9806382451431331, 0.9824024367121886, 0.9840859762257453, 0.9857007019486594, 0.9872197231335169, 0.9886493862178284, 0.9900054918265744, 0.9912782413024264, 0.99245313490236, 0.9935592439097174, 0.9945540023778645, 0.9954913090015383, 0.9963405382678373, 0.9971401850627779, 0.9978077224505367, 0.9983654570698554, 0.9988622085997726, 0.9992699889860119, 0.9995815252430938, 0.9998113354544447, 0.9999508979244399, 1.0, 0.9999584385383378, 0.9998105408808442, 0.9995890495995143, 0.9992584659205399, 0.9988549819480717, 0.9983584428702732, 0.9977550422020466, 0.9970745266058036, 0.9963384631358017, 0.9954664241092356, 0.9945034788393603, 0.9934046361361415, 0.9922653042229512, 0.9910880994622153, 0.9897548816324188, 0.9883319206605051, 0.9867781007297887, 0.9851806239210423, 0.9834871211063383, 0.9817062187273777, 0.979833744096838, 0.9778701426469196, 0.9758158681910777, 0.9736528075936332, 0.9714209419948041, 0.969098793854327, 0.9667404307738814, 0.9642329349476855, 0.9616393522874537, 0.9589615637851168, 0.9561989503154478, 0.953310847177291, 0.9503849080091333, 0.9474102406926384, 0.9443086846291973, 0.9411250324371554, 0.9378304342833348, 0.9344880504918337, 0.9310482730310699, 0.92754495943843, 0.9239607518292443, 0.9203362150430274, 0.9165884894615646, 0.9127103885574737, 0.9088195524258539, 0.9048518077223697, 0.900806908981248, 0.896689436445836, 0.8924941921946475, 0.8882323340036542, 0.883899644713866, 0.8795013031333232, 0.8750303815606985, 0.870497400057038, 0.8658937491036299, 0.8612261922633628, 0.856490551321178, 0.8516996007446841, 0.8468582610891822, 0.8419464566983094, 0.8369774183932447, 0.8319531796645901, 0.8268733741032259, 0.8217231869861691, 0.8165401427716743, 0.811305435099519, 0.8060166814311694, 0.8006836009140336, 0.7953472299966476, 0.7899152726921288, 0.7844414321289389, 0.7788688266453259, 0.7733221257437315, 0.7677447746913939, 0.76211549678875, 0.7564488525771246, 0.7507844100630898, 0.745043147844788, 0.7392707731871949, 0.7334702510793359, 0.7276420198243913, 0.721758056451806, 0.715882328515849, 0.709950533680046, 0.70403021575054, 0.698086454176124, 0.6921335689493553, 0.6861471201316213, 0.6801784475225605, 0.6741552101621301, 0.6681203123626664, 0.6620264047058221, 0.6559786222638282, 0.6499354581391927, 0.6438675004286231, 0.6377939681803191, 0.6317521445717412, 0.6256679743468617, 0.619541089442486, 0.6134666580687669, 0.6073938716900538, 0.6013585308027741, 0.5952899250571653, 0.5892207298495976, 0.5831720862081657, 0.5771344090191587, 0.5710743475442255, 0.5650674507921033, 0.5590670345625421, 0.5530896616646502, 0.5471288010832495, 0.5412109473328436, 0.5352851090351519, 0.5293744772612111, 0.5234969138520372, 0.517644654948668, 0.5118346216384234, 0.5060353130830689, 0.5002432137299248, 0.4945089578312602, 0.4888063334783481, 0.4831181929142221, 0.47748543913064795, 0.4719246272127111, 0.46635823832797835, 0.46079604600365853, 0.4553148655658944, 0.4498736834688644, 0.4444599395049175, 0.43910459048843653, 0.4337932201848443, 0.4285255405868077, 0.4233037722564578, 0.4181570305522832, 0.41302726178086663, 0.40791374458798757, 0.4028914406194259, 0.39792003646060325, 0.3929898396951489, 0.3881249889510339, 0.383325326979217, 0.37856725254213314, 0.3738655309008258, 0.3692024743074949, 0.3646184393032282, 0.36010233597325336, 0.355633696802015, 0.35122529952771, 0.3468848576414442, 0.34259826643195473, 0.3383643743580327, 0.33420516101392467, 0.330109280579758, 0.32609127394489146, 0.3221220836271131, 0.31821872095026216, 0.3143815733751671, 0.31061100807099973, 0.30690117880751755, 0.3032655784669086, 0.2996878981158745, 0.296188219935117, 0.29275586037380036, 0.2893849735310659, 0.28608903588741275, 0.2828478365846943, 0.2796896424489989, 0.276599135224083, 0.2736122307265305, 0.27065346974514654, 0.26776826349663346, 0.26494990231629434, 0.26220191269907533, 0.2595101906697086, 0.2569041842684647, 0.254368774019018, 0.2519005768710658, 0.2495013050961324, 0.24715531914590494, 0.2448953552053231, 0.2427052184173648, 0.24057986013009958, 0.23852187486869453, 0.23649854215134675, 0.23457874862844263, 0.23272454240410284, 0.23093422515091494, 0.22920859495792628, 0.22756527103086943, 0.22596615486592364, 0.22440027032521145, 0.222934617737737, 0.22153115199512163, 0.22022441880622443, 0.21894000248837384, 0.2177016657548119, 0.21654489024115878, 0.21544879479493667, 0.2144274681238606, 0.2134489879442251, 0.21249678516228984, 0.21164081635090026, 0.21084088778985274, 0.21011267882818488, 0.20942100295876598, 0.20876429563414853, 0.20818452201198465, 0.20765703175376019, 0.20718963216243946, 0.20676347192376224, 0.20637700289155717, 0.20605238773737594, 0.20577590814239097, 0.20555137232652523, 0.20536803836400938, 0.20522121636347132, 0.20512970230110816, 0.20508153683483618, 0.2051036688879211, 0.20513589974939875, 0.2051823509931567, 0.20530106794401565, 0.2054578947268383, 0.20564876429850937, 0.20587926869913847, 0.20616950532833744, 0.20646579844442112, 0.20679641777160754, 0.2071198735256385, 0.2075205289423559, 0.2079874934105913, 0.2084392242889618, 0.2089196540217811, 0.20941591651113817, 0.2099514584953437, 0.2105198318005923, 0.21110180193714403, 0.21170630789919576, 0.2123081539303682, 0.2129571743196697, 0.21365709311334335, 0.21433614864234177, 0.21503270221734844, 0.21570522074014647, 0.2164380356715438, 0.2171730175502827, 0.21792901939025025, 0.21869413490338316, 0.21948220453623937, 0.22026106129662326, 0.2210595669013363, 0.2218503323225692, 0.22264694911048938, 0.22346529260781045, 0.22426801032923188, 0.22503308833728894, 0.22584651473330267, 0.22665855505500945, 0.22749157066057069, 0.22829530762059194, 0.22910717986212556, 0.229903064439432, 0.23069471534489527, 0.23147867951689463, 0.23225879239967745, 0.23299639948296277, 0.23376454019748819, 0.2345210146513097, 0.235273631887271, 0.2360035671700914, 0.23670158324784396, 0.23740637945432955, 0.23809518551543515, 0.2387797396494468, 0.23943304692304246, 0.2400505079388392, 0.24067085318813147, 0.24127134884433582, 0.24186454865949888, 0.2424218579267628, 0.24294815810760936, 0.2434641225125438, 0.24395714018765505, 0.24446452489404752, 0.24490501266762404, 0.24528647347499866, 0.24568537101379317, 0.24605783226422948, 0.24643895230456847, 0.24675251058495357, 0.2469936751175166, 0.24726043470906658, 0.2474971423377073, 0.24770503977348401, 0.24788052484010578, 0.2480645942730748, 0.24817297935193786, 0.2482520467346901, 0.24828336473729726, 0.24830421099403255, 0.24828448202635636, 0.24824193505509975, 0.24816617546260816, 0.2480608397519216, 0.24791747863439592, 0.24772420952983262, 0.24751537903174983, 0.24727156484355298, 0.24702368114551257, 0.2467058435749944, 0.2463554029313399, 0.24597043333694296, 0.24555160992817118, 0.24505924665751544, 0.24457711772138696, 0.24408162397947883, 0.24352359943375815, 0.24293071231555372, 0.24228207835767274, 0.24162217579256814, 0.24092479787641582, 0.2401934814092996, 0.23942663957348423, 0.23865239612625636, 0.23781175355015352, 0.23693483063014958, 0.23602825319048332, 0.23508843503062746, 0.23408919004758896, 0.23308664180463567, 0.2320544975766134, 0.230983303867869, 0.22987665129520904, 0.2287398607393484, 0.22757057470189232, 0.2263645627139426, 0.22513211977887, 0.22390920414058735, 0.2226090469678013, 0.22128063568212725, 0.21988463964965543, 0.218505197569379, 0.21708889374169352, 0.21565113426339488, 0.21418427021809042, 0.2127168121562067, 0.21119014110414866, 0.2096517756494925, 0.208072491795448, 0.20646919581516182, 0.20480120354500647, 0.20315613064850566, 0.20152535048358183, 0.19982568877413276, 0.19810458947521958, 0.19633848847883145, 0.1945788742811984, 0.19280714944024568, 0.19100427112427473, 0.18918193287436247, 0.1873361248020413, 0.18547736714902827, 0.18360778753878504, 0.18171327103542745, 0.17980275834870815, 0.17789392835455037, 0.17595122838440985, 0.1739807579990765, 0.17201433112469228, 0.1700351199080159, 0.16805156960731166, 0.16604792996168416, 0.1640170395469911, 0.16199576624133616, 0.15996463842868558, 0.15792833954951985, 0.1558794439902987, 0.1538333876767047, 0.15176952986888978, 0.14970052423078187, 0.14761465494300846, 0.14553893356125824, 0.1434330764342688, 0.14135383183296485, 0.13927085170706857, 0.13718820953914532, 0.13510026338503056, 0.13300926220660506, 0.13092099884268082, 0.12883355741834898, 0.1267818230142771, 0.12469417434670618, 0.12258612502335305, 0.12051248028966005, 0.11844353490285173, 0.11639007224923435, 0.11433140038151335, 0.1123048816648756, 0.11025844238048835, 0.10822197046359111, 0.10618811892641719, 0.10417376255506018, 0.10216476201372424, 0.10017314984618826, 0.09819303407165654, 0.0962373625213126, 0.09428035863252163, 0.09230316482454551, 0.09037865581290312, 0.0884670119918607, 0.08657051676155846, 0.0846865821038576, 0.08281616499956891, 0.0809631912473293, 0.07912643869494505, 0.07733824108262291, 0.07553168491828842, 0.07373556121799453, 0.07196989391238687, 0.07022398061459179, 0.06848425291273823, 0.06678070018799606, 0.065104169082954, 0.06344030899194397, 0.061797801524092706, 0.06017004760781446, 0.05857221651344419, 0.0570219567959187, 0.055465336551155375, 0.05393292973234195, 0.05241791171204415, 0.05093524521853722, 0.04945052694387229, 0.04801993295543956, 0.046612546295439254, 0.045235743973560553, 0.04387508827541985, 0.042530646851909056, 0.04122078299946551, 0.03993566258365929, 0.038678663823393564, 0.03744345535320885, 0.036261015846911784, 0.03507390884167387, 0.03391432424677175, 0.032746567818938976, 0.031646275059753516, 0.030592162438563376, 0.029540001168348304, 0.028514685647101665, 0.027491424841962958, 0.0265228604079652, 0.025603656054344365, 0.024682934528643227, 0.023789186419381245, 0.022901400156059064, 0.022063899141762766, 0.021275838241815028, 0.020486225751181697, 0.019723443945134776, 0.01896173419291767, 0.018255198437743116, 0.017571088282892618, 0.016914324941343907, 0.016282115892353555, 0.015696853613100435, 0.015110720348662544, 0.01453467063848127, 0.014001309228091884, 0.013492012427697632, 0.01299652410974904, 0.01253603132068633, 0.01210227667054872, 0.011686867258002656, 0.011294191875330886, 0.010955744594074245, 0.010603778823650293, 0.010263936879135937, 0.009960360833452104, 0.009678789003566378, 0.009410283740911822, 0.009172529313391749, 0.008971290679738921, 0.008771648882638924, 0.008592464862324572, 0.008434785359805344, 0.008294824810769338, 0.00815380125262779, 0.008054016669378149, 0.007971183015092028, 0.007939037592902817, 0.00788481862518031, 0.007856190846499182, 0.007836054129338682, 0.007832943370390286, 0.007809815176160495, 0.00784339364192453, 0.007917905919318569, 0.007973791064228221, 0.008043678520808877, 0.008138613372297118, 0.00823335119919597, 0.008330241547299201, 0.008451699874829063, 0.008584301760364578, 0.008762375575820987, 0.008911351467741448, 0.00908585919963694, 0.009255499152150955, 0.009436014731106968, 0.009632013457143653, 0.009831207334926895, 0.010033086019138267, 0.01025008496014644, 0.010474186724840939, 0.010739614002380663, 0.010971711189114343, 0.011195625734563007, 0.011443454383997473, 0.01169611886306017, 0.012007204976340018, 0.012260921192994446, 0.012500671615640281, 0.012768292318272447, 0.01303909745955724, 0.013337973733781061, 0.013609985731901642, 0.01393662225489376, 0.014206847490860946, 0.014481293185201161, 0.014743412232915632, 0.015025155351522896, 0.015364613600000502, 0.015639303586561185, 0.015894665597296197, 0.01617575314382492, 0.016456002807636278, 0.016753325142429935, 0.017027609835501036, 0.017373036537980106, 0.01763422926172851, 0.017896644514031262, 0.018156842596957084, 0.01841876722016379, 0.018691948037982686, 0.018947638169951767, 0.019200721563027406, 0.01949384108986172, 0.01973419931979255, 0.020008118167554406, 0.020239054120625797, 0.02046839072058925, 0.02070527379139536, 0.020927507246954007, 0.02116332927354517, 0.02137585164187383, 0.021584632423053807, 0.02182851781120101, 0.022023024480497234, 0.022222898408473288, 0.022409338515527108, 0.022591825528164997, 0.022759735218357353, 0.02293399813651942, 0.023160385865552382, 0.02331522086992896, 0.023466986301805767, 0.023600388895370732, 0.023746219713225387, 0.023946299081453157, 0.024073695353900387, 0.024198762734467857, 0.024350359901428177, 0.024465489843444526, 0.024606450417429027, 0.02471348241289179, 0.024819142891564696, 0.02491748844229638, 0.02501962952388157, 0.02510491535477371, 0.025202798474181998, 0.02529670235228752, 0.025444761844042138, 0.025523653169740403, 0.025575104988531865, 0.0256564647668552, 0.025735521698732937, 0.025859619715473525, 0.025928523896610718, 0.02598512470879488, 0.02605727193786193, 0.026129350689843647, 0.026213094872169395, 0.026283987465396043, 0.02641558002746509, 0.026481294959647787, 0.026551828383692192, 0.02664088887348684, 0.02671872121923663, 0.026808729298620423, 0.02689602629188314, 0.026988862282780544, 0.027093461223000413, 0.027196761264225825, 0.02729232523813976, 0.02740996400646718, 0.027533442815168535, 0.02767477943420776, 0.027809723582085125, 0.027981889257802293, 0.028129129463408994, 0.028286663704203983, 0.028436143161443297, 0.02861735642114284, 0.028800153852224446, 0.029003169047331478, 0.029216880916835122, 0.029506171311193458, 0.029735063526169787, 0.02997244063735376, 0.03023489831104498, 0.03051348617089291, 0.03076905303520356, 0.031085917399658755, 0.03147741145535009, 0.0318175601587363, 0.032177607597033496, 0.03256479405488708, 0.03296463145760887, 0.033388052862041225, 0.03383047797250365, 0.034295054026399166, 0.03472492079229495, 0.035242338800288486, 0.03578470195495409, 0.03634310915852991, 0.03692399372855948, 0.03755919036142233, 0.038183706107570776, 0.038839624225769934, 0.03951762155373772, 0.04022375336803844, 0.04096552029326995, 0.04172865368334351, 0.042483243325535554, 0.043312095394504556, 0.04416995961247024, 0.0450824461742783, 0.04599769286990835, 0.04693029201537417, 0.0479137194622002, 0.04893022309150187, 0.0500044775527526, 0.05108611785033915, 0.052182491094370814, 0.05334012043438464, 0.05453381854451762, 0.05580523479636341, 0.05706773814376642, 0.058316249785582995, 0.059666234925803655, 0.06105388738738012, 0.06251863793747522, 0.06397887827142291, 0.06550425768736146, 0.06704571210568247, 0.06863102798954772, 0.07023403254976433, 0.07191086343017607, 0.07361743616864436, 0.07538216196570939, 0.07718989886700749, 0.07902335817566346, 0.0809208885049822, 0.08286035495138613, 0.08484563649314336, 0.0868754490684149, 0.08896966543283409, 0.09108761914780729, 0.09327199453110391, 0.09548190070624697, 0.09774046884865069, 0.10002068499036638, 0.10238024360628681, 0.10480035379533222, 0.10725334127993515, 0.10975504812519996, 0.11225066415285077, 0.11485719140334262, 0.11750898651704736, 0.1202082458740327, 0.12295453518276014, 0.1257575660952437, 0.1285979486898377, 0.13147613608009823, 0.13441535030814378, 0.1374029139922093, 0.14045914008193897, 0.14354137330062314, 0.146627840818236, 0.14981555123816687, 0.15305037314942954, 0.15639368252294347, 0.15971560654858305, 0.16301734860746933, 0.16644989721294645, 0.1699286038451745, 0.17351089566209504, 0.17707504923504847, 0.1806795338586123, 0.18434360503335295, 0.18805578664701592, 0.19178083183685066, 0.19559238870655624, 0.19943103077266036, 0.20333445537607056, 0.20728140289419056, 0.21127950868066364, 0.21531214968566018, 0.21936736315330757, 0.2234892620658394, 0.22765276308243554, 0.23183595544164085, 0.2360846347296083, 0.24037979284271876, 0.24470639786480428, 0.24907240401829284, 0.2535192096280986, 0.25795748007326097, 0.2624051870598106, 0.2669272963303065, 0.2714863208108243, 0.27609944208774645, 0.2807281492931932, 0.2853796551988245, 0.29008108964143003, 0.2947912608405425, 0.29956207797275225, 0.30436346413915255, 0.3091723647514543, 0.31403586233979286, 0.3189352324535752, 0.32385181758132187, 0.3287950770245673, 0.33377976014212357, 0.3387721741105197, 0.3437836235228437, 0.34882630672658854, 0.35389191431083045, 0.3589423386335771, 0.3640556140105569, 0.3692115786211845, 0.3743568465665656, 0.37951994155462887, 0.3846572724950346, 0.38985833094870365, 0.39504307240741154, 0.4002716644636756, 0.4055094439576473, 0.41074108524711506, 0.4159971658138912, 0.42129281086888914, 0.4265565289841215, 0.43182689553294956, 0.4370517031923662, 0.4423384431575446, 0.44765572079556065, 0.452938563669767, 0.4582218238117941, 0.463464097039128, 0.46874979678873024, 0.4740711472748203, 0.47934001218715544, 0.48460395069669016, 0.4898484665666819, 0.495100199803896, 0.500327535954745, 0.5055605063727567, 0.5107804613284425, 0.5159529638939155, 0.5211476145129351, 0.5263238518622796, 0.5314807239319408, 0.5366172287168469, 0.5417493493981921, 0.5468397886809839, 0.5518394475777836, 0.5568918878637913, 0.5619152606779647, 0.5669622214348143, 0.5719183678263101, 0.5768250683711693, 0.5817253860049783, 0.5865932296250044, 0.5913832739605724, 0.5961881221615567, 0.6009334663423194, 0.6056628617478881, 0.6103506548888424, 0.6149851936149063, 0.6195886469306702, 0.6241286946192122, 0.6286439550432787, 0.6331115234675398, 0.6375205075512407, 0.6418914204026521, 0.6462013663892437, 0.6504708504910225, 0.6546870349192956, 0.6588621837416208, 0.6629673779637093, 0.6670326881362887, 0.6710240870977077, 0.6749587648181922, 0.6787820618999204, 0.6826063155114008, 0.6863741074889042, 0.6900698441349823, 0.6937009468007778, 0.6972378708218422, 0.7007405954546742, 0.704173540681548, 0.7075376357166553, 0.7108312135275396, 0.7140960737007102, 0.7172408884663497, 0.7202478438302365, 0.7232589699225168, 0.7261934896330987, 0.7290918632319532, 0.7318662527612458, 0.7345111345141009, 0.7371391019300041, 0.7396860364817162, 0.7421491118595945, 0.744532733344494, 0.7468653359607851, 0.7490788792565666, 0.7512103244383813, 0.7532410332437665, 0.7552080544209908, 0.7570523958633052, 0.7588524520840233, 0.760563680550216, 0.762232230901593, 0.7637590251057608, 0.7651940054166765, 0.766546325269768, 0.767809807383597, 0.7689250120834252, 0.7700164566365792, 0.7710086065437568, 0.7719129408611233, 0.7727229816521339, 0.7734773837857768, 0.7740937768393191, 0.7745752690949241, 0.7750119805444879, 0.7753531860630217, 0.7755888166029887, 0.7757402525495127, 0.7757947949852322, 0.7757541423705374, 0.7756174217183697, 0.7753939645028847, 0.7750640584533014, 0.7746766577408454, 0.7741510779221924, 0.7735321583359652, 0.772819597786445, 0.7720131522952939, 0.7710476111008007, 0.7700611015189018, 0.768976645024282, 0.7678349770736508, 0.7665509711086335, 0.7651417158161654, 0.7636731696046495, 0.7621088697360293, 0.7604329956409259, 0.7586805503226715, 0.7568768742637718, 0.7549287247686778, 0.7528888508752627, 0.7507381152597338, 0.7485179258760345, 0.7462126648589269, 0.7438080144481126, 0.7413127294113745, 0.7387334833791893, 0.7360576176643036, 0.7332573855276587, 0.7304090181421691, 0.7274709565703298, 0.7244610974058118, 0.7213440918665049, 0.718123136749426, 0.7148368162638762, 0.7114648229935858, 0.708035933124297, 0.7044918033367411, 0.7008399865930313, 0.6971371470245767, 0.693352897522755, 0.6894920900171861, 0.6855474828449728, 0.6815455491152697, 0.677442821398997, 0.6732650037616772, 0.6690020948798031, 0.6646780103640555, 0.660228978254523, 0.6557663059623523, 0.6512297083520062, 0.6466198928983764, 0.6419399544378662, 0.6371873020235906, 0.6323699226009364, 0.6274855366234179, 0.6225277928083651, 0.6175145231413063, 0.6124580572896354, 0.607317007824823, 0.6021165667703876, 0.5968904620067682, 0.5915707881574798, 0.5861786503935378, 0.5807545388475267, 0.5752775137405183, 0.5697627271614031, 0.5641817889722764, 0.5585532061487359, 0.5528764941845886, 0.547153760420847, 0.5413258416385052, 0.5355223666500324, 0.5296747492716691, 0.5237814705390353, 0.5178460947215653, 0.5119105589659313, 0.5058909269155943, 0.49982713855540817, 0.49374022777857257, 0.4876367664049808, 0.4814835816499651, 0.47530129665249543, 0.4690524840259926, 0.4628207417444181, 0.4565445890263339, 0.4502618842092179, 0.4439541123143096, 0.4376206903314227, 0.43126825915314304, 0.4249414123944509, 0.41854469444851766, 0.41213374155493204, 0.4056966294348158, 0.3992625958262519, 0.39278097232123893, 0.3863305169967075, 0.3798696038133487, 0.3734277883651625, 0.3669474669150219, 0.36045547074427725, 0.35396962274578636, 0.3474821306203769, 0.34096654961022765, 0.3344835468777663, 0.32805033564517555, 0.3215648322065176, 0.3150862818901146, 0.30856551960519185, 0.3021107002617667, 0.2956735648074378, 0.2892343077739223, 0.28280637964845895, 0.27641752915810486, 0.27001319610480606, 0.26362433380925976, 0.2572553771920626, 0.25090564153080525, 0.24458170522025494, 0.23827320452344058, 0.2319327435896425, 0.22567829567205286, 0.2194459755389221, 0.2132868696588176, 0.20709712174056075, 0.2009050126228544, 0.194779012484379, 0.1886825764133141, 0.18258365979485747, 0.1765542469399683, 0.17058246841863245, 0.16461376996983978, 0.15868062093680488, 0.1527864194006693, 0.14692727432555397, 0.14113172106322308, 0.13534806108238756, 0.12960653628220833, 0.1238629782000076, 0.11821358396966614, 0.1126044420017472, 0.10703993113179876, 0.1015192583072378, 0.09606045667948601, 0.09062827238096137, 0.08520737762315266, 0.07987587148773007, 0.07459144590722291, 0.06939920767861588, 0.06420626154063323, 0.059057141687356624, 0.05397042066181755, 0.048936491634402494, 0.04391562814786837, 0.0389939314404041, 0.03412429450459337, 0.029307516525539798, 0.02454433903119044, 0.019882667437971374, 0.01522273218040761, 0.01059851216682307, 0.0060579055403713