0.04067788108488206, 0.04016682028186251, 0.039631554547105076, 0.03910213497437334, 0.03855168544483387, 0.03803481703211958, 0.037528785574090735, 0.03701479958107984, 0.036502831283743924, 0.03601426182607563, 0.03550270879729905, 0.0350326544343491, 0.0345207297998149, 0.03401281913573119, 0.033347860738925345, 0.03286670918465828, 0.032504966348828795, 0.031996078901620234, 0.031489688009295906, 0.030916146885160513, 0.030422858747828782, 0.02996228904623109, 0.029461071762403278, 0.028960640292213007, 0.028474085127030563, 0.02797380802234395, 0.02746226099863047, 0.02696708942539695, 0.026472885570818422, 0.02596239432150118, 0.02547260849691994, 0.025100227642782115, 0.02459640604756864, 0.024099862341194028, 0.023609841147382366, 0.02312568703719885, 0.022638158437704656, 0.022165221073444135, 0.02169620370716981, 0.021278550649721478, 0.020810563151506933, 0.02037885960915142, 0.01991834225574566, 0.019464481673842324, 0.018934242610486946, 0.018502383992296693, 0.01808402066381551, 0.017651790612551115, 0.01722138304412718, 0.016879742223333934, 0.01644255205009784, 0.01599958126208446, 0.01557798613660019, 0.015161942636052925, 0.014781564821272002, 0.01437208040446643, 0.01400395630084386, 0.013603043523798769, 0.013210101799131508, 0.01283330838564319, 0.012453803618934963, 0.012176957433160955, 0.011799494527150041, 0.011434021848315405, 0.010997154976733163, 0.010663358922666052, 0.010425591483213923, 0.010090243920049882, 0.009765188894045734, 0.00944551806860258, 0.009139995852173212, 0.008908202065007392, 0.008611523179455615, 0.008326743506046628, 0.008014192851680492, 0.0077563895431423105, 0.00771499754317888, 0.007447237378973567, 0.00719941659954151, 0.006861508736508891, 0.006662805864844234, 0.006465266307135587, 0.006287294151895044, 0.006118648597050212, 0.005994180715472458, 0.005840277444537455, 0.005815330587330539, 0.00567023921670213, 0.005543546424606699, 0.005443067880085017, 0.00534965483637518, 0.005290365445219928, 0.005227804067565502, 0.005182117595304393, 0.005265694164408766, 0.00523839695641841, 0.005177023496081459, 0.005200488996818164, 0.00524128404389563, 0.005255832180036202, 0.005336281477258191, 0.005444327052481457, 0.00555269698743435, 0.005677203467108556, 0.005870236573088153, 0.006021454242968354, 0.006266543183312974, 0.006448654604708915, 0.0066550393811237755, 0.006854832598799228, 0.007112233421651281, 0.007378050654926631, 0.00768003392302872, 0.008002922894203204, 0.008342661828554672, 0.008708786192244388, 0.009122529112211664, 0.009528930177036456, 0.009959170685575527, 0.010417789045033094, 0.010895793249272232, 0.01148533797442207, 0.012002176743185338, 0.01254918828501158, 0.013156340059556588, 0.013758763567982658, 0.014366140233849646, 0.015033458226816378, 0.015729680322709577, 0.016480881596591147, 0.01723181582232618, 0.018004740335720724, 0.018818092073488463, 0.019661661876459846, 0.020505259584815874, 0.021413676732241437, 0.022385960337304008, 0.023348838542996568, 0.02434387506874717, 0.025349617231597746, 0.02641245577983897, 0.02755041251087257, 0.028671724791376474, 0.029828175905430174, 0.030989526894855245, 0.032220517609961336, 0.033507126634904766, 0.03480370107295507, 0.03613635739714659, 0.03757479173443221, 0.038971707094477205, 0.04034442666955548, 0.041831089313134465, 0.0433545865184726, 0.04483292851266437, 0.04644181885205633, 0.04811024002347231, 0.04978392566722135, 0.0514946506028571, 0.05335157275761038, 0.05512472640985636, 0.05689959502392591, 0.058768126542529026, 0.06067878991991202, 0.0625883859025519, 0.06458935860235508, 0.06668267122266132, 0.06875818990895918, 0.0708780049172352, 0.07300748763810534, 0.0752205345610524, 0.07740680923095775, 0.07971431863694936, 0.08206136749790006, 0.084496599447704, 0.0869193754961425, 0.08940423275035975, 0.09191456663431528, 0.0944711722530024, 0.09702210750211065, 0.09967818586861192, 0.10247339942941139, 0.10520533220132434, 0.10798732416853771, 0.11080168290882483, 0.11368501798220873, 0.11662523968262195, 0.11960383160039509, 0.12263100460310966, 0.12571099231961036, 0.1288344861451812, 0.13204993194690964, 0.13526499527532865, 0.13853090834582044, 0.14174748889086677, 0.14512655821217965, 0.14856283430592365, 0.15202918227838697, 0.15554146789745507, 0.15901323836958123, 0.1626292582099427, 0.1663045038396643, 0.17000296127002903, 0.17373723715064343, 0.17752629147629978, 0.18136028842702956, 0.1853177307518423, 0.18923290622952488, 0.1931767281624042, 0.19719488746358296, 0.20126131638626374, 0.20538880077886046, 0.20954942762821469, 0.21366723737592772, 0.21793558883219233, 0.22224638847702302, 0.22663471469841537, 0.23102705083136196, 0.23542993157292538, 0.23991699941947492, 0.24444702154707054, 0.24909380145523238, 0.25370050630846647, 0.25831089707301713, 0.2630165052335509, 0.2677653358000749, 0.27253103524291966, 0.2773686023489202, 0.28231195429504335, 0.2872225302547174, 0.29217704707077474, 0.29712264461312465, 0.30216924347515234, 0.30728489257938935, 0.31240469787871983, 0.317564213629244, 0.32271074655653675, 0.3279543576844244, 0.3332415213618865, 0.33855356206257864, 0.34390045749742354, 0.34926878830306274, 0.35468578418964697, 0.3601182198547191, 0.3656025822569359, 0.37111789275110374, 0.37668114319421797, 0.382255016901003, 0.3879246380045422, 0.39355097775711256, 0.3992103061828978, 0.40484499742541946, 0.4105737869593388, 0.41625942144362826, 0.42204883333405296, 0.42785924678259984, 0.433772924833918, 0.4396143389021637, 0.44545892859246566, 0.45135173500914577, 0.45726603499042295, 0.4631879249530641, 0.4691441762173528, 0.47510112886327205, 0.481094857116949, 0.48710398975752955, 0.4930974246377606, 0.49913896125277235, 0.5052482740567159, 0.5113048399943503, 0.517374690222021, 0.5233959209032033, 0.5294965162724133, 0.5356425389522228, 0.5417502985387725, 0.5478652423481275, 0.5539428987249864, 0.5600744177716994, 0.5661596716333124, 0.572299368168947, 0.5784362596698114, 0.5845785439380157, 0.5907072034261281, 0.5969186135060981, 0.6030274866003562, 0.6091355787807027, 0.6151675463989612, 0.6212786584846384, 0.6273715103508603, 0.6334636628342958, 0.6395439244086478, 0.6455766900965209, 0.6516348162882201, 0.6577023100946711, 0.6637230864236418, 0.6697271252508262, 0.6757697548184667, 0.6817299585732242, 0.6876039019625021, 0.693537594367224, 0.6994474047880642, 0.7053323789958028, 0.7111915273200778, 0.717080225205631, 0.7228775016335661, 0.7286489770931496, 0.734319357674035, 0.7400439596989392, 0.745747115009395, 0.7514003049929486, 0.7570180335401802, 0.7625385374747078, 0.7680899158077186, 0.7736036184461511, 0.7790698278269745, 0.7844930086753777, 0.7898507052824262, 0.7951882243289736, 0.8005180948856337, 0.8057565637536933, 0.8109490165562603, 0.8160422466582102, 0.8211458000674309, 0.8262229903873278, 0.8312177338042281, 0.8361600270258045, 0.8410271430541317, 0.845864159341718, 0.8506877525844457, 0.855404789735813, 0.8600656642252233, 0.8646300567329639, 0.8691797433922598, 0.8736977003144998, 0.8781184748783837, 0.8824770874334155, 0.8866726164161102, 0.8909161141129182, 0.8950624626707773, 0.8991667411848098, 0.9031978224442401, 0.9071858697078873, 0.9110660210441225, 0.9148781642592393, 0.9186124053356661, 0.9222731807342186, 0.9258987862257928, 0.9294054402951364, 0.9327257576028439, 0.9360985033488064, 0.9393892517218959, 0.9425501851686661, 0.9456826036818, 0.9487775565105103, 0.9517336583921469, 0.9546073335957421, 0.9574458282174708, 0.960147171217394, 0.9626588239773938, 0.9652104951446259, 0.9676730573197345, 0.970146325054626, 0.9724180935986029, 0.9745975873544113, 0.976702311341057, 0.9787211184340238, 0.9805838364959167, 0.9824373467920289, 0.9841511744785938, 0.9858267207673529, 0.9874074541064501, 0.9890541487353056, 0.9904256832391259, 0.9916079007836552, 0.9928210060075622, 0.9939408057843647, 0.994902108272439, 0.9958431687240394, 0.9967216272931948, 0.9974641021834487, 0.9981119960753659, 0.9987000499078079, 0.9991544957834728, 0.9995641248843198, 0.99982721767585, 1.0, 0.9999387623417049, 0.9999474611024673, 0.9999475200522648, 0.9997460606437819, 0.9994515877911139, 0.9990554029598464, 0.9985759715251639, 0.9980334532278, 0.9973634331337949, 0.9966020084517299, 0.9957361340770152, 0.994793511633086, 0.9937458179258157, 0.9926209658106332, 0.9914038395342982, 0.9900384572760738, 0.9886451775023322, 0.9872401902674803, 0.985649154948831, 0.9838489724862134, 0.9820981441063086, 0.9802532890397095, 0.9784284941256057, 0.9763851382853345, 0.974184021168157, 0.971982171357326, 0.9696926502144398, 0.967394475200775, 0.9649225158989945, 0.9623179640172675, 0.9596917908153414, 0.9569827818591883, 0.9542091249599803, 0.9513347687881184, 0.9483984485547469, 0.9453640019606272, 0.9422527193224858, 0.9389741605803456, 0.9357227564993806, 0.9324349090703032, 0.9290198971898003, 0.9255304983879227, 0.9220025007929548, 0.9183631930768351, 0.9146720627552305, 0.9108930325588979, 0.9070474883349612, 0.9031014911124029, 0.8991296616597295, 0.8950874941870093, 0.8909854139799018, 0.8868195012683057, 0.8825346150859544, 0.8782519395268777, 0.8739841371345379, 0.8695668880593383, 0.8650942135731016, 0.8604890344570848, 0.855918445811998, 0.8513432479138313, 0.8466544894865, 0.841915433496833, 0.837118645992153, 0.8322838353973551, 0.8274020157967377, 0.8224745462880217, 0.8175027916367393, 0.8124447406296684, 0.8073940180523311, 0.8024004825969909, 0.7972536996023907, 0.7920733623185813, 0.7868256304143572, 0.7815852380780514, 0.7762687616562787, 0.7709697857228446, 0.7656383625662113, 0.7601590796107507, 0.7547826964108498, 0.749459124055056, 0.7440064439596837, 0.7385296984212313, 0.7330348419521038, 0.7275142391209737, 0.7219919380782169, 0.7164325482759473, 0.7108580841474074, 0.705243857529164, 0.6996465634944617, 0.6940714770940248, 0.6884463633358838, 0.6828138048046186, 0.6770882798772044, 0.6714555428886962, 0.6659053634240332, 0.6602459996927268, 0.6545870886300929, 0.6488386306871988, 0.6431954770980052, 0.6376204588858928, 0.6319678849423357, 0.626321671481925, 0.620639646235822, 0.615015275372843, 0.6093073796950474, 0.6037112580273376, 0.5981207135612331, 0.5926160639572718, 0.5870333662119768, 0.5815363631563809, 0.575978714438967, 0.5704437424404749, 0.5649017457859998, 0.5594180178672633, 0.5539443999475024, 0.5485096190452399, 0.5430993431010464, 0.5377234153179642, 0.5323645418260893, 0.526960378077299, 0.5216688084389798, 0.5164036777446486, 0.5111926590624466, 0.5059819663963788, 0.5008212214626645, 0.4956747342665223, 0.49056419618973773, 0.4854255291912334, 0.480398082740173, 0.47550130322771794, 0.47053370779086423, 0.4656095407209964, 0.46066426670966526, 0.45583681978049967, 0.4510074468489174, 0.44626951582315955, 0.44157279154234447, 0.4370010642398453, 0.43238033624812955, 0.4278005949016225, 0.42328074090490636, 0.4188109753684212, 0.41437014605145206, 0.41000491194014776, 0.4056641223320436, 0.40140382242644357, 0.3971938969489767, 0.3930134999955407, 0.3889095455546771, 0.3848657967976121, 0.38086466655861945, 0.3769172092717308, 0.37304143814843377, 0.36920106320449203, 0.3654822390338875, 0.3617469696418122, 0.35807255874049126, 0.35442410475495173, 0.35087525094409955, 0.34737182072419803, 0.3439416758475317, 0.3405696025502995, 0.3372558703029008, 0.33400072261764824, 0.3307826863287114, 0.3276480777109467, 0.32457141249313676, 0.32150528605151313, 0.3185514399191165, 0.31571006205396523, 0.31286179356029514, 0.3100738022849281, 0.30735904370975414, 0.30468976477262366, 0.30199883251644827, 0.29946129663996296, 0.29697945491518934, 0.2946144665959993, 0.292237517142756, 0.28985560487335166, 0.28760678508671755, 0.285413776266488, 0.2833071269975807, 0.28122236710494747, 0.2792431598038035, 0.2772677540611832, 0.2753522733881123, 0.2734569538399618, 0.2716641190336993, 0.26988353285049704, 0.26820708841828284, 0.2665831009900662, 0.2650548911033859, 0.26353008047287924, 0.2620033812517956, 0.26059411630674356, 0.2592349827381183, 0.25792581192125713, 0.25666636802251475, 0.25552142616489437, 0.2543522596354195, 0.2532354150030633, 0.25209616720568884, 0.2510903838031881, 0.2502080030275178, 0.2492826500404726, 0.24840628042572724, 0.24756481059351235, 0.2467848741788211, 0.24599366833188047, 0.24531022618324738, 0.24466697164870987, 0.24409384552153499, 0.24352579456927298, 0.24290710036195112, 0.24243066826255677, 0.2419879379329748, 0.24169593494365688, 0.2413053830696998, 0.24086339867987056, 0.24056238413729256, 0.24029332931925007, 0.24005572773414433, 0.23984901663493882, 0.23972030243862985, 0.23956745266887236, 0.23947656620933003, 0.23938194919716713, 0.23931840795767617, 0.239206520699642, 0.2392110433723137, 0.23922536675328437, 0.23927657662902455, 0.23934864832688219, 0.23954078953969152, 0.23964020927026916, 0.23966012142824591, 0.23982041801726917, 0.2399965356853644, 0.24021395940679083, 0.24041674602705024, 0.24063503783309878, 0.24086794748985926, 0.24111457868943237, 0.2414043951521291, 0.2416719139149768, 0.24192610394836941, 0.24222115461289245, 0.24252515413418654, 0.24286757515404, 0.24318294875290647, 0.24350629172363977, 0.24383646751113672, 0.24417237252807267, 0.24444352316013446, 0.24479647285508152, 0.24515679822113742, 0.2455056151491756, 0.2458527039448505, 0.2462235038087357, 0.24656204939639428, 0.24692451189345652, 0.24725467536447823, 0.24758246424867472, 0.24781138379753512, 0.24814336269288265, 0.24846455422093286, 0.24877477445191454, 0.24907377491360272, 0.24933955926979653, 0.24961789625696507, 0.24996082325411392, 0.25020203088650045, 0.2504335463724811, 0.2506630569198381, 0.2508711620784864, 0.251071546459502, 0.2512540371039111, 0.2514228588587409, 0.25153806863567474, 0.2516818334879383, 0.2517898133536385, 0.25189844378039317, 0.25198673778669917, 0.25207605878958883, 0.2521199391299367, 0.25213065904830373, 0.25213535330548653, 0.252118106630688, 0.2521262342416134, 0.2520578612036881, 0.2518865969819259, 0.251786939443703, 0.25166069637739014, 0.25144712766921545, 0.2512753412735241, 0.25118623855334754, 0.25094036814177845, 0.2506714282629844, 0.2504178000204755, 0.25009584862762935, 0.24966875759772436, 0.24931096877498435, 0.24892426147880412, 0.24853031757029106, 0.24808299249033317, 0.247659966476689, 0.24715033291730748, 0.24661546385957633, 0.24608079913625758, 0.24549047142674715, 0.24483142764136487, 0.24419531614009346, 0.24353031818745005, 0.2428103124430031, 0.2420905826819185, 0.2413533228294048, 0.24057105221905045, 0.23975935251661873, 0.2389183091915218, 0.23804802091707816, 0.23711389411576717, 0.23618985245309174, 0.235234992565438, 0.23428444954409322, 0.2332648326721084, 0.23218286755363962, 0.2311124486215345, 0.2300126524176068, 0.22890124957050131, 0.2277417445511051, 0.2265160068031271, 0.22530730381553, 0.22406971839403345, 0.2228168435723617, 0.2215215552253424, 0.22011734468621244, 0.21877988491861283, 0.2174120992298049, 0.21619724677535795, 0.2147488567586422, 0.21325292791137712, 0.2117734051828152, 0.21027387379445245, 0.20864573431268657, 0.20711953726625273, 0.20563209903805083, 0.20404597859740772, 0.20243900922401264, 0.20078113681596277, 0.19913727353358207, 0.19755429549161949, 0.19585755878598773, 0.19414515534124901, 0.19233894716436423, 0.1906050067017656, 0.18894218743231736, 0.18715755287875652, 0.1853596014248808, 0.18339651209925564, 0.18159124439893462, 0.17989454568997337, 0.17803110938213165, 0.17615618299672048, 0.17420490449065137, 0.1723159088377955, 0.17045159640013935, 0.168529817896725, 0.16659759245436678, 0.16470315006083905, 0.1627455448834117, 0.16073403194695102, 0.1587702585691835, 0.15679802731392967, 0.15483536280577778, 0.15284603869028013, 0.15086860201189936, 0.14886668799585673, 0.1468613691335119, 0.14477498581205023, 0.14277404313856557, 0.14079271199251622, 0.13877677881209083, 0.13675810267629834, 0.13470279464935694, 0.13268544778758037, 0.13071785264357852, 0.12869034450841194, 0.12666546638009568, 0.12460035163193842, 0.12258777217817891, 0.12062467694789135, 0.11861047774691265, 0.11660245312134755, 0.11458367875726239, 0.1125914979170502, 0.110605847357406, 0.10862733552547794, 0.10665656347982354, 0.10468978678887121, 0.10273681677065799, 0.10077141157519914, 0.09884030212696952, 0.0969184325969125, 0.09499788444184673, 0.09309783238888579, 0.09122172529033624, 0.08934262473847954, 0.08747662244976652, 0.08558090105595456, 0.08374825639851527, 0.08201034358305219, 0.08019275529718242, 0.0783937717318026, 0.07658311804094453, 0.07482549459710756, 0.07311551412104794, 0.07138902976745244, 0.06968237256999399, 0.0679436530102612, 0.06628376045171112, 0.06461531450087588, 0.06299430926825288, 0.061390570342447034, 0.05979620097463851, 0.05823037070298343, 0.05668782209890269, 0.05516001384234475, 0.05373512943306807, 0.05223843904801469, 0.0507679155597143, 0.049301666817629076, 0.047885662111018946, 0.04645943132791934, 0.04509686964017124, 0.04375704204503374, 0.042488061363864994, 0.041188818543689935, 0.03993777353105084, 0.03868873075293625, 0.03746729341105805, 0.03615179098648491, 0.03500035608308202, 0.03387789090612421, 0.032766820457694475, 0.03167818278279105, 0.030660316828506867, 0.02961229533493232, 0.028669116340816904, 0.02766476716815071, 0.026691616773933932, 0.025740379273472714, 0.024828964468116433, 0.023894576021977615, 0.02304755873627759, 0.022226037039327153, 0.02137809178519148, 0.02061453771742403, 0.01999537693185697, 0.0192628064251788, 0.018560891593496113, 0.017819600868435266, 0.017185971592544022, 0.01654270917858893, 0.01596371038946027, 0.01540800380143377, 0.014923631253586448, 0.01440938137079263, 0.013943583442553191, 0.013479885706105893, 0.013043712251315306, 0.01262598569701596, 0.012244775439840679, 0.011902473285067355, 0.011571127291136511, 0.011265854806332092, 0.010912532029821231, 0.010667621025904775, 0.010460913563166667, 0.010255764333909465, 0.010072882328027152, 0.009916594378211322, 0.009777626339021255, 0.009704405895204512, 0.009604533431300008, 0.009529134254556034, 0.009425602306256116, 0.009404109649695184, 0.009406925749883098, 0.009424754049002579, 0.009462615776838023, 0.009463936681937905, 0.009548434684201426, 0.009662202240468522, 0.009777764930751581, 0.00991063602130883, 0.010073778226023164, 0.010239414843051192, 0.010531243298974199, 0.010718349961527589, 0.010928673137145354, 0.011056889123082001, 0.0113232766171402, 0.011551617406790204, 0.011852483039568009, 0.012164147090761867, 0.012512857832682734, 0.012843402239277938, 0.01325169494184759, 0.013599147791407655, 0.013962463226509495, 0.014262750672346072, 0.014665291501473426, 0.015094364043083553, 0.01551299602611844, 0.015941585845430692, 0.016436223967747115, 0.01687665952825273, 0.017255488263532095, 0.017728715010145103, 0.01820835079081636, 0.018772336732198157, 0.0192544406761726, 0.019742447768982145, 0.02024470540270517, 0.02075525689844715, 0.021234313579528236, 0.02176419214558073, 0.02231540186397933, 0.02285071688035416, 0.023390321511664317, 0.024024833299201083, 0.024560056615378575, 0.0249731152922814, 0.02553956758439854, 0.026104420898906928, 0.02678051544852625, 0.02732800459312816, 0.027771773900797492, 0.028341455104648184, 0.028907882292704443, 0.02955351039081169, 0.03010305249584892, 0.030645250616631026, 0.031197802107217943, 0.03174974497640233, 0.03225711168423284, 0.03281159829449858, 0.033339690375658204, 0.03388736637401917, 0.0344288116316251, 0.03507681316931614, 0.03559148399776336, 0.03606709219654224, 0.03658565504764526, 0.037100082984229246, 0.03763588091190152, 0.03813720980707424, 0.03862137753383932, 0.03911541978904748, 0.03960335970838476, 0.04004571958604469, 0.04052511926734469, 0.04100368757946299, 0.041462937607427294, 0.0419130764981552, 0.04231058543149625, 0.04274757187296757, 0.04310317908194299, 0.04352520587373984, 0.04393172534379198, 0.04441884979957011, 0.044784199634253924, 0.04522787454448965, 0.045564999685250025, 0.045897821102852336, 0.046073468523355594, 0.04641388306873594, 0.04684713162145025, 0.047143068982650124, 0.047430353985499746, 0.04769110421176199, 0.04796174130470826, 0.04814322751295343, 0.04840136333973697, 0.04864358212479872, 0.04902214500755098, 0.04921454981620691, 0.04936596303019398, 0.04954923487613173, 0.04972248739932728, 0.049759457446375714, 0.04992726732036051, 0.0501765750487245, 0.05029592265332679, 0.05040393574309562, 0.05050904804194133, 0.050592601551644495, 0.050647327296645624, 0.05070990766917213, 0.05075964077672012, 0.050813870319097024, 0.050835700821812185, 0.05072853808618034, 0.050741340517873136, 0.05073550896452943, 0.050750968222234794, 0.05070548199139454, 0.05071967365818665, 0.050637034722451235, 0.05054506341497423, 0.05039570816250328, 0.05029016273480593, 0.0501327200913278, 0.050006599266171264, 0.04986581671852662, 0.04975858767466651, 0.0495838901536569, 0.049359524520978776, 0.04916850854613529, 0.048964681938376484, 0.04870500366806951, 0.04848203888190297, 0.048253457877835554, 0.04800143645857078, 0.04773680099648461, 0.047494700275981086, 0.04720174053873361, 0.046912348808989576, 0.04659891340610195, 0.046233514708446215, 0.045908377051465776, 0.04557219641333549, 0.04531210278932221, 0.04494394175293008, 0.04451424172301061, 0.04414253199249022, 0.04376179760692778, 0.04341995325999446, 0.043015723038639306, 0.042588386180952884, 0.04217466185138039, 0.04175389983095378, 0.04134784685367327, 0.04091045903696898, 0.04047182795636375, 0.04002267732237356, 0.03956812577100911, 0.03910382476520466, 0.038639025512122255, 0.03814262808301766, 0.037670105079268386, 0.03719082090313968, 0.03669213472644721, 0.036202085680587054, 0.035731668243658164, 0.035225985505455235, 0.03471624968736888, 0.034198325519348975, 0.03368164895885731, 0.03324807165304533, 0.03271335615099221, 0.03218036625789444, 0.031522859187633645, 0.031008006432755305, 0.03053448205394661, 0.030001621705561206, 0.029466602626444377, 0.02888200891531052, 0.028349612304755058, 0.027908713771728193, 0.027357037460808125, 0.026808064631286956, 0.026213878160927594, 0.025675805424155915, 0.025137314652356312, 0.024598730129794154, 0.024060364946445534, 0.023539874226940437, 0.023000650857530947, 0.022437468974672914, 0.021905811492629806, 0.021375039680834127, 0.020940951908766173, 0.02040094028934487, 0.019733705187301196, 0.019224753233055555, 0.018714665082087186, 0.01834736750763846, 0.017819137150136284, 0.017156741736671262, 0.016664024763067636, 0.016171203979813926, 0.01573108075638146, 0.015233629224214618, 0.014775724329848396, 0.014283698005558914, 0.013798720838030068, 0.01331630369126765, 0.012845553495634585, 0.012307502628605364, 0.011858945880903353, 0.011412661586959102, 0.011077703956090838, 0.010623992438805473, 0.010119533172894718, 0.009693040251665765, 0.009272321250038452, 0.00893129997867552, 0.008513319585554666, 0.00807104407792875, 0.007677828127912894, 0.007292252017222804, 0.006901260358462884, 0.006532504676116534, 0.006309408762965722, 0.005936888543237244, 0.005579219123561702, 0.005235394096816777, 0.0049045440633778276, 0.004555555548807655, 0.004252366619202281, 0.003958528994350959, 0.0036651610283764814, 0.0033905548895283885, 0.003202421754104733, 0.00293470497854947, 0.0026797610426226976, 0.002419643075453013, 0.0021907504987411573, 0.001998175504838966, 0.0017863663791363837, 0.0015859495917822577, 0.001470352592529625, 0.0012824940139762476, 0.0010529862208787997, 0.0009010037191986306, 0.0007592212803940081, 0.0006362375689671907, 0.00051355961995238, 0.00047084461920943676, 0.0003604362340591226, 0.00026438765182624775, 0.0001821369389018424, 0.0001132124551340929, 0.00017001525582221685, 0.00011237883001177741, 7.34294252256428e-05, 0.0, 1.8404057701214996e-06, 9.467107717266541e-05, 0.00011218602099746509, 0.00014653096616134081, 0.00018825889415149404, 0.0002551733702300567, 0.00034949299110322544, 0.0004431750658326141, 0.0005513194309348672, 0.0007083042177531286, 0.0008400756465347589, 0.0010352031619683321, 0.0011917980983049336, 0.0013659593758011683, 0.0015787343527115369, 0.001783466625452984, 0.0020053734314681893, 0.002243934042280817, 0.0024987259887113973, 0.002830148034011412, 0.0031087930718496867, 0.0033932765665461483, 0.003710651500190371, 0.004045017393941661, 0.004439449383263162, 0.004801466741741271, 0.005242938539166086, 0.005634258663696777, 0.006046884247510559, 0.006536441081566692, 0.006982369147678437, 0.0074942241213254235, 0.007978892034500478, 0.008486958911263902, 0.008935068799353806, 0.009497724787288584, 0.010111534052670564, 0.010702862277235542, 0.01131294568156053, 0.01187665286983482, 0.01253235263333121, 0.013281223215176998, 0.01395782428773365, 0.01465507538678831, 0.015416278580760731, 0.016149155829122307, 0.016887670181644405, 0.01766842474024189, 0.01847067883363182, 0.0193291247367419, 0.02016999288848673, 0.02104306705486451, 0.021929717026462202, 0.022840085070342415, 0.023756685960017287, 0.024716343880814534, 0.02578093903949603, 0.026775359069315923, 0.02779725882654622, 0.02882014797440471, 0.029899012776921356, 0.031050517436808506, 0.032173201535691615, 0.03332355366840547, 0.034397169653797445, 0.03561523897366602, 0.03695428122987408, 0.03820289083315265, 0.03947978013966365, 0.040676368138136534, 0.04202320822142562, 0.04341805986307897, 0.04480647563158644, 0.046220070369719875, 0.047655068528611705, 0.049121226604750545, 0.05063994653730521, 0.05215639080194522, 0.053701823352374944, 0.055337226527359513, 0.056933702728667705, 0.058545973731631964, 0.06021070499851811, 0.0619072040392006, 0.06356174519576911, 0.06533120680647465, 0.06718051932548424, 0.0689996879518191, 0.07078151632912925, 0.07267378990221661, 0.07459462360066886, 0.07665757341009176, 0.07862349487102581, 0.08052230121026224, 0.08257507690007845, 0.08465845257711085, 0.08682079866917307, 0.08896124209031009, 0.09114544547106553, 0.09335508886673848, 0.0956005723956449, 0.09785594600276694, 0.10017665419828756, 0.10249298236874023, 0.10488828575812474, 0.10731670948912499, 0.10982225142571718, 0.11231322710672952, 0.11478939645674349, 0.1173615821614153, 0.11996835052597256, 0.12266230901938009, 0.1253332592249023, 0.12794777758347084, 0.13070880542341365, 0.1335034879759719, 0.13640636184991636, 0.13926130765540726, 0.14209976785259007, 0.1450416291094419, 0.14802017312176877, 0.1511659808812607, 0.15420269438239137, 0.15717610732456969, 0.16031609851810916, 0.16349376488267955, 0.16679183766117214, 0.1700353175919687, 0.1731874363049076, 0.17653371521389943, 0.17991472599773956, 0.18335723367559634, 0.18680653411371104, 0.19036338081679613, 0.19388045295541706, 0.1974400664191397, 0.20100281350367483, 0.20465138618702425, 0.20833063358001458, 0.21205904072066034, 0.21582636504114228, 0.21964569155139194, 0.22348939114172214, 0.22734684690629184, 0.23127330243818858, 0.23523786273017167, 0.23924061390696955, 0.24328160686540823, 0.24731747766440498, 0.25144046140993787, 0.25559921375721467, 0.259785336259168, 0.2640174868132202, 0.26834194551634954, 0.2726389443349381, 0.27697526750958357, 0.2813678493221782, 0.28577937548102045, 0.2902299540747103, 0.2947190344298979, 0.29924608341753556, 0.30376720094083554, 0.30837412929921665, 0.3130280850727852, 0.3177012534434607, 0.32240884684751053, 0.32718959092390587, 0.3319601239944132, 0.33673155460241616, 0.34157699159906996, 0.34645472454620807, 0.35133401323370145, 0.35627903824214185, 0.3612187698370205, 0.3662268180362088, 0.3712619034360734, 0.37637174064394985, 0.3814547735969935, 0.38651522196463584, 0.3916631810702821, 0.39683647354579266, 0.40213900600651786, 0.4073491086525274, 0.41255920599306367, 0.41783264982403284, 0.42313236163724277, 0.42838371754146476, 0.43374267747645096, 0.439125514631066, 0.44452275230713784, 0.44993920123989617, 0.4554395177230529, 0.46088486012603413, 0.4662952671903348, 0.47178957722665466, 0.4773000373720749, 0.4828260606244886, 0.4883670215798752, 0.49390056838495516, 0.4994721313121923, 0.5050553350273875, 0.5106235717613017, 0.516231563776622, 0.5218869028024271, 0.5275060630578071, 0.5331346508725173, 0.5387760684501738, 0.5444201419491627, 0.5500363350486341, 0.5556974393402341, 0.5613614002265074, 0.5670101245579472, 0.5726797309259348, 0.5783185138675946, 0.5839903355174955, 0.5896585250574113, 0.5953268614150714, 0.600985490793859, 0.6066041459647427, 0.6122558419327023, 0.6178987066888451, 0.6235451605850831, 0.6291668624152574, 0.6348305290732211, 0.6404245680628631, 0.6460096081341529, 0.6515842636586109, 0.6571471708051206, 0.6627013244008151, 0.6682361754955223, 0.6737555482183889, 0.679210398662111, 0.6847008962462309, 0.6901476330542894, 0.6955958485340414, 0.7010189753605537, 0.7064683011532789, 0.7118323107469974, 0.7171239876556894, 0.7224434917428963, 0.7277330972827266, 0.7329485301262907, 0.7381811158057556, 0.7434393374503542, 0.7485934226242917, 0.7537145054938801, 0.7587666483795128, 0.7638224285807663, 0.7688352560697206, 0.7738134348379921, 0.7787508902212312, 0.7836033105242065, 0.7884619927164952, 0.7932356217964512, 0.798006584590682, 0.8027280168420816, 0.807473239133076, 0.812084918857496, 0.8166583626569615, 0.8211738827123343, 0.8256405196911925, 0.8299485484471627, 0.8343273465960052, 0.8386300902935471, 0.8428933584679659, 0.8470962264909103, 0.8512860760911831, 0.8553610140203801, 0.8593466131739855, 0.8633065100617294, 0.8672038498107283, 0.8710726348039474, 0.8748383326357063, 0.878484829525601, 0.8821309907514665, 0.8857090855681675, 0.8891881808386254, 0.8926322486071089, 0.8960134223041631, 0.8993128399595173, 0.9025402999352777, 0.9056691993796586, 0.9087542869502173, 0.9118162182849838, 0.9147438667863828, 0.9175983285074315, 0.9203786887422301, 0.9230840602184736, 0.9256918926963514, 0.9282474793138894, 0.9306723085557534, 0.9330764787634238, 0.9353978351932615, 0.9377012850152137, 0.9398482493754926, 0.941854706154624, 0.9438490127459358, 0.9457585994430125, 0.9475789102462767, 0.949318932195461, 0.9509949731002502, 0.9525606800382419, 0.9540414642117734, 0.9554152141021359, 0.95672765184292, 0.9578876716061835, 0.9590334585654644, 0.9600878726782929, 0.9610816189999374, 0.9619504019077524, 0.9628084473235476, 0.9634896492939664, 0.9640862872919717, 0.9645673025935106, 0.9649966581565548, 0.9653465842789211, 0.9655984120767969, 0.9657622202416781, 0.9657857361304741, 0.9657794879980023, 0.9657295070867487, 0.9655346531952607, 0.9652516795666162, 0.9648805165825622, 0.9644211379678094, 0.9637911338464119, 0.9631658318965558, 0.9624478534038137, 0.9616943884811826, 0.9607862619414782, 0.9597561691211215, 0.9586781316006054, 0.9575113601690031, 0.9562997965180882, 0.9549517464315787, 0.9535017105204665, 0.951986791771471, 0.9503867194356314, 0.9487409708429186, 0.9469669816036688, 0.9449725861020283, 0.943053175419955, 0.941044844316912, 0.9390314529936072, 0.9368390819572273, 0.9345274410649433, 0.9321801093445634, 0.9297514986858406, 0.9273119445925591, 0.9247147628521135, 0.9220255888207703, 0.9192816652495348, 0.9164628824992204, 0.9135525016996541, 0.9105880782568243, 0.9075497877772464, 0.9044385042454731, 0.9012551209034769, 0.8979918739041503, 0.8946681446558464, 0.8912876382302979, 0.8878237196990592, 0.8842928293967104, 0.8806959235610263, 0.8770339829216975, 0.8732646300893832, 0.8694811406517894, 0.8656332620837389, 0.8617788094210941, 0.8577992556650762, 0.853727964223943, 0.8496396414972424, 0.8454941969332346, 0.841305914752949, 0.8370483929518495, 0.8326341818447043, 0.828285853242941, 0.8238814762896244, 0.8195836095663036, 0.8150528921869117, 0.8103812421415418, 0.8057813519430927, 0.8011358473734428, 0.7964419010384841, 0.7917102308653995, 0.7868764499064301, 0.782071205102765, 0.7772241573899572, 0.7723242493367268, 0.7674010397821494, 0.7624756627271829, 0.7574761847257901, 0.7524454473760527, 0.7473588851279341, 0.7422732934623784, 0.7372157194364357, 0.7320678683768728, 0.7268980240858968, 0.7216942783419307, 0.7164854396208178, 0.7112746295923363, 0.7060262363267757, 0.7007620764079995, 0.695435594245587, 0.6901494518105665, 0.6848267369639138, 0.6795151871584776, 0.6741907343131377, 0.6688507691789706, 0.6635061980655009, 0.6581708816402401, 0.6528095538965738, 0.6474443282893089, 0.6420332393200353, 0.6366699348625696, 0.6313565551075694, 0.6259841192938714, 0.6206158494475876, 0.6152659496989916, 0.6099079392197566, 0.6045887725308629, 0.5992449701205509, 0.593913551659127, 0.5885606882166664, 0.5832610949878604, 0.5779443147547816, 0.5726761815735917, 0.5674220354494444, 0.5621790234892137, 0.556957814999385, 0.5517460093501262, 0.5465634604007569, 0.5414012729376988, 0.5362955502252129, 0.5311738477033274, 0.5260655052365296, 0.520999192927645, 0.515960513838222, 0.5109418861567631, 0.5059628361358253, 0.5009794564896689, 0.49606665579174664, 0.49118447538911475, 0.48630822102850385, 0.48149451582458963, 0.47673548683889955, 0.47198638270550114, 0.46727415095552527, 0.4626475634425604, 0.45800615498500885, 0.45342901509913336, 0.448870564234711, 0.4443570087281919, 0.4397542543314074, 0.4353486871061888, 0.43112053169071607, 0.4267761292559686, 0.42248106101064165, 0.418135739214837, 0.4139525620822748, 0.4098398226250062, 0.40574325656075244, 0.4016946509066456, 0.39766436195538596, 0.3937176445009049, 0.38980621300802243, 0.38595858698571023, 0.38216015310462603, 0.3784768023545495, 0.37477090825587533, 0.37106804413392797, 0.3674790018427324, 0.3639423196929244, 0.3604368291371046, 0.3570091262873539, 0.3536686900961035, 0.35034227552831854, 0.34707141352579934, 0.3438519170878452, 0.3406931411513979, 0.3375900648230739, 0.3345428116074151, 0.3315514802505773, 0.3286291598622278, 0.3257482268708201, 0.3228850559454919, 0.32012257107977726, 0.31741449169863967, 0.31477836451353297, 0.3121774338324343, 0.30957158212222435, 0.30708986935291055, 0.3046603604374107, 0.30231377322942593, 0.2999858000059564, 0.29776026011901924, 0.2955355528171183, 0.29326383008258416, 0.29116590714123564, 0.2891180943505496, 0.28715104173228617, 0.28520036377625174, 0.28328038237068565, 0.2814369997146347, 0.2796443000129451, 0.2779108288739628, 0.2762179469785982, 0.27461471441278995, 0.27301774422649605, 0.27147280732331136, 0.269940111522751, 0.2685019388508616, 0.267150425420186, 0.2658021294320182, 0.2645027681230039, 0.26320815850245144, 0.2620097557121779, 0.2609422347841031, 0.2598206655183289, 0.25874717839712635, 0.2576077747344994, 0.25664114716989544, 0.25577353954322213, 0.254875645058323, 0.2540190509088297, 0.25314223004938463, 0.2523735345408856, 0.2516750481630444, 0.25097265665776036, 0.25030702090559925, 0.2496774225175726, 0.24908312379854186, 0.24850167831454062, 0.24797843820987925, 0.24748696533551373, 0.2470743524916038, 0.24663846479291932, 0.24623937938038581, 0.24586676711910777, 0.24552467613878387, 0.24519031884554446, 0.24490874531031445, 0.2447270000657346, 0.24448740001164415, 0.24427629250234523, 0.24404883394777452, 0.24389588102499757, 0.24378649463971153, 0.24367362797925268, 0.24358201770237772, 0.2433977903059936, 0.24335973895383028, 0.24336815734318706, 0.24334914787346174, 0.24334356076517502, 0.24332047564670747, 0.24334387286824904, 0.24340757885126818, 0.24344660181993225, 0.2434963763537303, 0.2434953951948805, 0.24357201718646815, 0.24366663189617904, 0.24375123847929173, 0.24384083115171712, 0.24399558161199233, 0.24408573772936684, 0.24410439417485721, 0.24421643873397442, 0.2443284031340293, 0.24451790879185828, 0.2446183957597034, 0.2447520207368098, 0.2448529943232421, 0.24495606062984107, 0.2450164726561815, 0.24512518699937094, 0.2452123254861149, 0.24531397506922278, 0.24540881774169523, 0.2454745196701305, 0.24555655978404883, 0.24565033222907387, 0.2457092420359495, 0.2457584500284855, 0.24574521805360192, 0.24577957311471463, 0.24584701180844434, 0.24584582808768268, 0.2458321802011278, 0.2458357435795611, 0.2457912705210578, 0.24572100206681907, 0.2456517316918173, 0.24556723674995218, 0.245445144764287, 0.24533092872904913, 0.24513758124275062, 0.24499383008455902, 0.24482743804699672, 0.24462113145541017, 0.24441183518967174, 0.2441963601352032, 0.24393788476277511, 0.243656955685003, 0.24337076736365434, 0.24304224115907155, 0.24275677441066293, 0.242375646462242, 0.24197547004242564, 0.24149899634157182, 0.24106537195365385, 0.24052043572955129, 0.24004849786446736, 0.23954677338911978, 0.2391806345703144, 0.2385999801801582, 0.23793939569447314, 0.23732701844223517, 0.2366901281921532, 0.23605878591159926, 0.2353681466920377, 0.23458447355661455, 0.23385491499673175, 0.23309700050943516, 0.232328309214065, 0.23151215172186354, 0.230673583547685, 0.2298034267386054, 0.2289068678718934, 0.22794923327981365, 0.22700436849568234, 0.2260920286551293, 0.2250834219967452, 0.2240507076233359, 0.22291563151710944, 0.22184412178548055, 0.2207784664612175, 0.21964546124062015, 0.21848670290535877, 0.2173154488891736, 0.2161042731008577, 0.21489051182664629, 0.21362819856903204, 0.21234316293499403, 0.21102675359423737, 0.20969748673450347, 0.20833653091733226, 0.20696254692866925, 0.20556551066149856, 0.20408935538636802, 0.2026543472052962, 0.20115944478593864, 0.1996792685462549, 0.1981735545522129, 0.19674309782378302, 0.1951766749367225, 0.19355412274505518, 0.19195849591864386, 0.19034370592249983, 0.18877526999152644, 0.1871152656786545, 0.18531963269001137, 0.1836466064070804, 0.18195255339912048, 0.18030359823192924, 0.17856235841550552, 0.1767763541218775, 0.17501052237167242, 0.17322933639752272, 0.17147682618953458, 0.1696613799641034, 0.16778720621477858, 0.16595604826271507, 0.16411178070220564, 0.16232019922090052, 0.16044363723613422, 0.15855973839163484, 0.15666865828703286, 0.15477060625038555, 0.15283547323181337, 0.15092813561893684, 0.14904773028680335, 0.14712108125651185, 0.1451898549527904, 0.1431980033823638, 0.141265833909957, 0.13942684928016075, 0.137469776916592, 0.1355134790098722, 0.13348858396368, 0.13154280255566964, 0.1296636427724107, 0.1277043039250999, 0.1257476492530319, 0.12377653389054195, 0.12182811982810504, 0.11979109591481359, 0.11785967724074423, 0.11596568758782058, 0.11402736581573328, 0.11209206916232366, 0.11016493762306696, 0.10823752261960501, 0.10632872112851023, 0.10441155354327478, 0.10250208843090051, 0.1005271342056037, 0.09864406805536798, 0.09675755241163142, 0.09488717684044012, 0.09302374260495841, 0.09124639657491414, 0.08939007726319013, 0.08750900221144381, 0.08568642448677218, 0.08387642397701396, 0.08201451211455504, 0.08023962316821949, 0.07861416708495761, 0.07684399293866, 0.07509422705736707, 0.07326920023087301, 0.0715716995773868, 0.06995383734401216, 0.06827796653109271, 0.0666217196454377, 0.06490712483222018, 0.06330037058399603, 0.061783026881808714, 0.06019908198488187, 0.05863649791631337, 0.05709103705324252, 0.055572046615001626, 0.0540138030543288, 0.052545645873981646, 0.051095953219485894, 0.04968711086967631, 0.04827363365110898, 0.046864407032559376, 0.045496695674228566, 0.04415032152944178, 0.042778024993614654, 0.04148170161717727, 0.040274717268550406, 0.039010211588587966, 0.03777092593007727, 0.03653953715648039, 0.03535297795498662, 0.034208116304114244, 0.03306822968031146, 0.03195399881282353, 0.030904472036149037, 0.029836632639666263, 0.028770630988033608, 0.027761510586193486, 0.026778223028041354, 0.025790376102114404, 0.024862521750083008, 0.02397608112367321, 0.023094378547701053, 0.022238127034556028, 0.021368306444709613, 0.020567953229405574, 0.01990802894260175, 0.01913976814448372, 0.018401941128388746, 0.017594039306315992, 0.016927578212050393, 0.016314341879955785, 0.01569002716580488, 0.015090768199012727, 0.014520837846988885, 0.0139709350174074, 0.01347646990496207, 0.0129727356451207, 0.012495503883710962, 0.011940267968376881, 0.011528056494764963, 0.0111917936588098, 0.010812060998626366, 0.01045596489463137, 0.010166765935059743, 0.009852075553405932, 0.009463259235486817, 0.00921196477318567, 0.008979701880904899, 0.008797166281139952, 0.008600033468892057, 0.008498140904503246, 0.008334534148010244, 0.008196264690349887, 0.008030494167148156, 0.007947189737304797, 0.007897117236039801, 0.007852373073663663, 0.007828101985815456, 0.007797909070241993, 0.00781677601263769, 0.007879581733341572, 0.007930815083668675, 0.008001066806693914, 0.008150646429126655, 0.008249983908606252, 0.008275041621477377, 0.008427859994135858, 0.008594731220834683, 0.008806000466773517, 0.008997026326409814, 0.009168905602162434, 0.00939504648383788, 0.00963401313809308, 0.00995943511431762, 0.010214332684254706, 0.010398963370027929, 0.010697008943928828, 0.011005096701379018, 0.01137959167220291, 0.01170049040839303, 0.012047374744366695, 0.012391952597311112, 0.012749017621624658, 0.013109211163827718, 0.0134903311385964, 0.013781715113190146, 0.014195005176985036, 0.014611692257222399, 0.015097147755528494, 0.015513209744221886, 0.015949976643609646, 0.01637931156064182, 0.016816143895602684, 0.0172208661844911, 0.01767595326611767, 0.018165066419253598, 0.018623424319723053, 0.0190867044657775, 0.019554406254058212, 0.02002603925059122, 0.020518475628780754, 0.020994345150684122, 0.02147370704795371, 0.022003689775545877, 0.022482255117054456, 0.022956618315683474, 0.02344432867585733, 0.023934294697754453, 0.02444750894684042, 0.024937197866843723, 0.025372011300819845, 0.025871133978335913, 0.02636719421606357, 0.026877371339125225, 0.027364584548520896, 0.027801445992239916, 0.028289094707037978, 0.028770776495526947, 0.029346341328833483, 0.029803652522550596, 0.030221661806315053, 0.030682563561610064, 0.03113943082886368, 0.03158755069608203, 0.032035795447768085, 0.032500393755788295, 0.03293494322210974, 0.03336482982106743, 0.03378962705031443, 0.03420894191649533, 0.03457469218906517, 0.03498801695692456, 0.035392175988227095, 0.03578292953222308, 0.036169574848534745, 0.03658607471749299, 0.03694946946548427, 0.037305972433514786, 0.03759455813562616, 0.037944105520187676, 0.038243500460050234, 0.0385760252147287, 0.03889572414273436, 0.03928117580800949, 0.03956675193601557, 0.03993625167395823, 0.04019562379595856, 0.040452300223307494, 0.040635863572089884, 0.040893021015473215, 0.04115825843387431, 0.0413945464688776, 0.04162229460428135, 0.04186729905747506, 0.04207401194929147, 0.04222532683204489, 0.042422369267395336, 0.04260841227508137, 0.04280528272400864, 0.042966988415497884, 0.04309327990138109, 0.04323945828406454, 0.0433833907609104, 0.04350682680624639, 0.04362021682833331, 0.04378440799183748, 0.043870367477851537, 0.043950035214455306, 0.044023044060680826, 0.04408909085324512, 0.04412623985590134, 0.044180423501354926, 0.0441911419899099, 0.04423226841748285, 0.04426285375970858, 0.044226888933056666, 0.04424466401075071, 0.044384319458972026, 0.04436067127977105, 0.04433347031194825, 0.044258907313567, 0.04422888098832909, 0.044131076117306225, 0.044094773780712415, 0.0440482995193576, 0.04395759666029557, 0.043897063824262915, 0.04390864090508453, 0.04381785096658929, 0.043722892185065615, 0.04360207393051133, 0.04350154674486848, 0.043374019295385605, 0.04326586249437814, 0.043151670898592016, 0.043096935958184035, 0.0429636819279229, 0.04284225338329076, 0.04270481384486357, 0.04256664208914881, 0.04238852408555508, 0.04225336762257973, 0.04217566951997474, 0.04202657439427074, 0.04187819872440003, 0.04176939421808616, 0.04161700774624337, 0.04146713759903001, 0.041319447873086355, 0.04117368743553709, 0.04105137235097406, 0.040906272142498305, 0.040711934598476475, 0.040578893408733635, 0.040445492449930225, 0.04042057278286552, 0.04027390387804212, 0.04016016217674726, 0.04002352264411462, 0.03989439949604335, 0.03971158022173337, 0.03960384780871771, 0.039551174379332296, 0.039443175942149016, 0.03934174784829268, 0.03917307223797132