0.04451657502014332, 0.044307865691288584, 0.04414104489494229, 0.04395826456929282, 0.04378848150786272, 0.04357748142704123, 0.043434804282351996, 0.0433422083843232, 0.0432031325931201, 0.04307016073749692, 0.0429438340764146, 0.04282030362531117, 0.04265998791811635, 0.04254886051601307, 0.042438411907708654, 0.042317032362170326, 0.04220948741650062, 0.042121008580822884, 0.04201165281880362, 0.04190397891680295, 0.04175594516821875, 0.0416572419766021, 0.041594499844393215, 0.04149098224535616, 0.04139009427749448, 0.04124694380122972, 0.04115743819915734, 0.041085913192090665, 0.040995825397782494, 0.04090827148942829, 0.04081774468052582, 0.04073688596288626, 0.040675070512098885, 0.040598617142322956, 0.040526697835292586, 0.040405691843573, 0.040350014834987895, 0.04033690192786161, 0.04028041221186205, 0.040229138408580875, 0.040141068635632035, 0.040105891397061035, 0.04010730335350673, 0.04007469524149625, 0.0400479677904538, 0.039989432352166336, 0.039979477726418404, 0.04000982855784655, 0.04000363391647828, 0.04000417296860692, 0.039978040536093606, 0.039996292727924765, 0.03998747542271221, 0.040019832834168725, 0.04005583044771144, 0.040098862359195846, 0.04014318452765684, 0.04018390148142331, 0.04023986447689852, 0.04030104785319971, 0.040373581640305564, 0.04044539258005365, 0.04052941262627778, 0.04061346062613316, 0.0407045633412633, 0.040811528750825596, 0.04091590682336549, 0.04101646034285693, 0.041137902416280285, 0.04128973862786148, 0.04142264982909761, 0.04156421907074339, 0.041667867121483695, 0.04183236482381388, 0.042057883465770725, 0.042227374107206776, 0.04240641490989451, 0.04257449762625794, 0.0427747267067792, 0.04297422316103288, 0.04319159594588027, 0.04341661576675471, 0.043656696013320125, 0.043896535563045715, 0.044143408799129494, 0.044400478869552784, 0.044666104592827736, 0.04488517585239104, 0.045175163678088305, 0.04548540719447753, 0.04578555077406741, 0.04609325127572226, 0.04641898863480234, 0.04674142050941237, 0.0470713713911315, 0.04741207534948163, 0.04776194680472438, 0.04812111806351961, 0.04848970945383998, 0.04883587218379111, 0.04922766274697166, 0.04962737890906664, 0.05006441228439378, 0.05047728291858416, 0.050888989908264216, 0.05132424256039694, 0.05176929553103639, 0.052196639000186326, 0.05266504160572693, 0.05318260597956254, 0.053663120721464334, 0.05415492827845794, 0.05466953289116238, 0.055182116763522686, 0.05567146267785957, 0.056211524400626545, 0.05676091172192513, 0.05732121251112698, 0.057889453442947186, 0.05846745001075881, 0.05905527168350582, 0.059652974205549214, 0.06024026359400445, 0.06086041654922492, 0.06148359307246652, 0.0621223225784161, 0.06276987749240759, 0.06341334726062911, 0.06408066508835297, 0.06476954887193173, 0.06545238228377959, 0.06614477402919762, 0.06682494468459119, 0.0675392221228447, 0.06829958583422328, 0.0690258625807271, 0.069762821719398, 0.07046374963999391, 0.07122727364800457, 0.0720621285865875, 0.0728325710452286, 0.07361431747013071, 0.07440549756911095, 0.07520881435362453, 0.07600185557187497, 0.07682754659044067, 0.0776615391024304, 0.07851533832659163, 0.07936411339279771, 0.08019243158751495, 0.08106185275605952, 0.08193780888471233, 0.08283049767749023, 0.08371830248551261, 0.08465826506024829, 0.0855545114524842, 0.08646017086106736, 0.08733407632009527, 0.08826226386869135, 0.08917442351143978, 0.09011682590768008, 0.0910636259248607, 0.0920061922165904, 0.09296310899900846, 0.09392699373503798, 0.09489172910417538, 0.09586077642945756, 0.09687042232420842, 0.09784338730066264, 0.0988486858789648, 0.09983032455589132, 0.10081884915823677, 0.10179335248573888, 0.10279654952667903, 0.10378936932419068, 0.10480240209781184, 0.10581817831697192, 0.10679440385233535, 0.1078204824085693, 0.10885077017499954, 0.10987614649449683, 0.11090186151676298, 0.11193374230741003, 0.11295941286248239, 0.11402055465428691, 0.11504290260319251, 0.11606753351137394, 0.11710416523826779, 0.11813074202563163, 0.11912110285677271, 0.12015507617394071, 0.12118753671425786, 0.12222270524673175, 0.12325115868299248, 0.12424882405284576, 0.12527725608048237, 0.12630186344972405, 0.12734878360455373, 0.1283623679086356, 0.12943010982022257, 0.13043121906062827, 0.1314323698185384, 0.13241099523405406, 0.1334127089450839, 0.13442705291106533, 0.13541960053230725, 0.13640882019775338, 0.13734768914744197, 0.13833454811868362, 0.13928780151416575, 0.14026297279443817, 0.14122903964498415, 0.14220787930506246, 0.1431531994202676, 0.14411401077627994, 0.1450406786918635, 0.1459604656297326, 0.14685551974801783, 0.14776250246641578, 0.1486502379296632, 0.1495401073985369, 0.1504198378892967, 0.15133428925103376, 0.15218751656178872, 0.15298172967664497, 0.1538244677819042, 0.15465506655792152, 0.15551264751456614, 0.15631368684730876, 0.15708408765945628, 0.15786662122726075, 0.1586367873902967, 0.15937979449075063, 0.16012626657180748, 0.16089217059096833, 0.16160631220257468, 0.16230803974465316, 0.16299981611412007, 0.16367504402931515, 0.1643164239980101, 0.16496679951518936, 0.1656017398376597, 0.1662486470002167, 0.16684863015416107, 0.1674181467254697, 0.1679907497943925, 0.16854714449349087, 0.16902316872532275, 0.16955449737791414, 0.17010308109464847, 0.17058889328389584, 0.17105682602114805, 0.17148932021476793, 0.17192330716117155, 0.17237579800852207, 0.17276647044356697, 0.17313995689885417, 0.17346539771915795, 0.17380732799696832, 0.17415114955017852, 0.1744504785925335, 0.1747310204960981, 0.17498671651537503, 0.17522968704025382, 0.17540925808493854, 0.17561793348119795, 0.17580401849026106, 0.17603307847466995, 0.17616626911084682, 0.17620983921840755, 0.1763147188817668, 0.17643120826176295, 0.17648539197126822, 0.17651868085585432, 0.17653675553541673, 0.17652713659249894, 0.1765111050121383, 0.17645761478462693, 0.17638370107211848, 0.17623536878826304, 0.17612668900266945, 0.1760302224558705, 0.17586900529293853, 0.17568621203937076, 0.17546577255091506, 0.17524158633633768, 0.1750251954437111, 0.17475180444645438, 0.1744575560856866, 0.17410450120582063, 0.17377280057007138, 0.17342638035655697, 0.1730469090066918, 0.17264488098067243, 0.17224364343207738, 0.17179387604794713, 0.1713362403408033, 0.1708428513753105, 0.17032910965163683, 0.1697338615804575, 0.16918673507188295, 0.1686343883937044, 0.16803710761733423, 0.16741763319529834, 0.1667471388347464, 0.1660876225012157, 0.16545578246105447, 0.16474394620779664, 0.1640126465610098, 0.16326330738219624, 0.16249283666329897, 0.16168989947677337, 0.16088232836380795, 0.16005471724375003, 0.15922758382320615, 0.15835787012650848, 0.1574698201667405, 0.15656347160067335, 0.15563888920841384, 0.1546264357801498, 0.15367449405285996, 0.1527181733402563, 0.15172111986524686, 0.1507046098672394, 0.14965023482640527, 0.148598603166111, 0.1475641300548019, 0.14647015591097812, 0.14536015638432792, 0.14424886510295232, 0.14310560899208624, 0.1419565080625091, 0.14078314667299038, 0.13959597342036797, 0.13840525022373856, 0.1371894768951356, 0.1359419433022937, 0.1347028983036448, 0.13345013528956132, 0.13216217169303612, 0.13088565755104944, 0.1296038647469756, 0.12829876564358797, 0.12698115854184647, 0.12566307263469878, 0.12432020131557894, 0.12294490020975467, 0.12158381084212642, 0.12021148268879404, 0.11888507035204786, 0.11748459281161236, 0.1160557329274231, 0.11464483635330586, 0.11322619425914981, 0.11181461007461849, 0.11037948851480883, 0.10893105474258416, 0.10748496097505464, 0.10603285268996934, 0.10453437331203005, 0.10307634576524916, 0.10165314233042706, 0.10017586671599683, 0.0986949894389406, 0.09720934486458256, 0.09572232587474958, 0.09423979690332958, 0.09274665735449228, 0.09125185112706329, 0.08982105296553052, 0.08831558105764073, 0.08677385196827918, 0.08527908969010292, 0.08378481058944096, 0.08234940200529287, 0.08084960930953668, 0.07933558494601763, 0.07784735873631717, 0.07636254490158163, 0.07493360173864161, 0.07344952918383778, 0.07196369084485937, 0.07049446806818217, 0.06903148033551565, 0.06759077366464734, 0.06613849025055323, 0.06467626277345216, 0.06324124012383844, 0.06181294184665685, 0.060475941091865285, 0.05905142099595637, 0.057659715641184876, 0.056257281401651954, 0.054867967605977244, 0.05346825506205005, 0.052107387632136924, 0.05081444007361814, 0.04946911339648598, 0.048138618081358754, 0.04684599428272943, 0.045541705988900755, 0.04425175239999697, 0.042979071686527134, 0.04172187933361265, 0.040531037012146054, 0.039298513799474334, 0.03809038270527821, 0.036894065376669574, 0.03571630270097286, 0.03464415745138802, 0.03349227338804956, 0.032310021897110394, 0.03121110171598433, 0.030131497850800652, 0.029117794178930925, 0.02807129767825796, 0.02710964348013146, 0.026099873382359317, 0.02511580180174282, 0.024162754897135742, 0.02322801584471721, 0.022331277945747786, 0.021444538114976135, 0.020583144506722075, 0.019780369302709565, 0.01896510946609216, 0.018182700087867612, 0.01742059272341913, 0.01668555255515365, 0.016022534245917354, 0.015335774217038616, 0.014693108114484266, 0.014063394110677377, 0.013463649056736294, 0.012898031982696425, 0.012357160720261707, 0.011882462624426401, 0.011396699821406803, 0.010942863476847328, 0.010529473638597459, 0.010137880391626128, 0.009788512604222376, 0.009459691104043511, 0.0091634449488542, 0.008936065104157051, 0.008700357518620859, 0.008519682567153153, 0.008350620890202849, 0.008217118900110093, 0.00810880278766517, 0.008047163495799564, 0.008053519396529702, 0.008056894307781932, 0.008096906378573692, 0.00816035319290371, 0.008274966838736606, 0.008473207685441063, 0.008653273869892203, 0.008872013494332167, 0.009119053297174379, 0.009415876120871358, 0.00973439470582223, 0.010108635099922922, 0.010519780714563585, 0.011018909326310193, 0.01149814931115665, 0.01200043949842533, 0.012562687061295751, 0.013164168480605119, 0.01384853814363517, 0.014523223464603573, 0.015229704807588484, 0.015989382622983123, 0.016790064609132387, 0.017650597501279702, 0.01853081895380847, 0.019434197761704172, 0.02040078286933102, 0.02141979409055346, 0.02246663499479155, 0.023555172930667865, 0.024698519980331873, 0.025868930334624198, 0.027083385584421756, 0.028338771008802548, 0.029636800270048464, 0.030961496584246642, 0.032346857335951565, 0.033785639929567506, 0.0352533046450523, 0.03676375895313809, 0.038328687694564226, 0.03992344640240849, 0.04155167854488731, 0.04323498347607546, 0.04496132417693353, 0.04676854815863867, 0.048576418421419736, 0.05040642887747074, 0.0523077675953095, 0.05425274684850303, 0.056263169689477796, 0.0582927170918123, 0.06035990961014532, 0.06248003291924252, 0.06464435932710345, 0.06681505754392715, 0.06907238558317347, 0.07140213612933381, 0.07373969988245206, 0.07612137559355259, 0.07856599437646604, 0.08103334699303974, 0.08356169138296952, 0.08611684316040508, 0.08871750990818393, 0.0912980201511921, 0.0939971027762444, 0.09675608965513362, 0.09953512110706893, 0.10235677876946113, 0.10523128567399785, 0.10813705236861809, 0.11108756964092739, 0.1140796612608155, 0.11711495021078105, 0.12015410088864217, 0.12328039472282307, 0.126469112849373, 0.12967410268974422, 0.13292126790127892, 0.13623086451465963, 0.13955954937694623, 0.1428862267649417, 0.1463063626154036, 0.14976641834361226, 0.15327954911236683, 0.156817994647881, 0.16039721822447373, 0.1640170829474945, 0.16767743324964307, 0.17135049589371032, 0.17509477183885502, 0.17891228119768987, 0.18272889221636285, 0.18658579556631566, 0.19044777282002945, 0.19438860466182994, 0.19836961400698333, 0.20238454849748688, 0.2064367337380105, 0.2105042138965938, 0.21463313000915002, 0.21882945434826712, 0.22302516365219296, 0.22725794137503577, 0.23152011937267794, 0.23582673376437216, 0.2401469932223719, 0.24452687420993657, 0.2489402400640326, 0.2534043180750226, 0.2578818046545778, 0.2623814276186219, 0.26692746681602564, 0.2715057406282078, 0.2760926543624203, 0.28073726070596994, 0.2853884441901271, 0.29009541126149646, 0.29483042144499433, 0.2995977294481783, 0.3043879099248541, 0.3092175287915285, 0.3140615848353229, 0.3189334939632683, 0.32380520174599997, 0.3287349248386746, 0.33369098558094606, 0.3386700091153525, 0.3436733847994443, 0.3486934705058908, 0.3537452983281286, 0.35882564621022717, 0.3639217452967154, 0.3690400212582112, 0.3741784993957639, 0.3793397254617147, 0.38448074500623425, 0.38968748027788314, 0.39491124546414946, 0.40015321753598027, 0.40540997637245146, 0.410713363932476, 0.41599807350161466, 0.4212997014656268, 0.4265753617929089, 0.4319138728532309, 0.4372893488904308, 0.44264885096861584, 0.44802111198418193, 0.4534039708669194, 0.4587997969753516, 0.4641335103186768, 0.4695588310685054, 0.4749891291666744, 0.48046200953027196, 0.48589691422261533, 0.4913381886689927, 0.4967851446599648, 0.5022370718899533, 0.5076714505111583, 0.5131338668777335, 0.5185585678274709, 0.5240283516336977, 0.5294961981179279, 0.5349791842510698, 0.540439820327204, 0.545915669261101, 0.5513689860264457, 0.5568196756700947, 0.5622319974584283, 0.5676792014527163, 0.5730857570218386, 0.5785220929339641, 0.583948041794888, 0.5893399369481986, 0.5947467120151018, 0.600115638071956, 0.6054988128946639, 0.6108665482407094, 0.6162417368415531, 0.6215745248134449, 0.6268468625739289, 0.6321537533106019, 0.6374411549979198, 0.642717326166502, 0.6479632044202759, 0.6531652623536588, 0.6583722048034398, 0.6635557867081061, 0.668725567732138, 0.6738592617800636, 0.6789173396080953, 0.684007079141756, 0.6890674934122872, 0.6941445900311248, 0.6991389750993492, 0.7040774099242082, 0.7090175471487472, 0.7139257086391195, 0.7187850978769768, 0.7236288497796504, 0.7284546339489767, 0.7332246266826619, 0.7379586544366501, 0.7426296148770161, 0.7472921489002243, 0.751905655426601, 0.756487912208341, 0.7610278296117405, 0.7654796402931732, 0.7699383385840627, 0.7743600525483814, 0.7787227135695174, 0.7830378386609057, 0.7872786360300905, 0.7915000250218711, 0.7956631067992995, 0.7997827938974108, 0.8038499151697789, 0.807903125302903, 0.8118584112690481, 0.8157179258973003, 0.8195733404334318, 0.8233721334908191, 0.827144186784129, 0.8308239777559882, 0.8344294691103709, 0.8379967816401103, 0.8414898411260673, 0.8449387571971325, 0.8483255682989055, 0.851642343731728, 0.8549038472083352, 0.8580964400662472, 0.8612287484494282, 0.8642949659066761, 0.8673206130860026, 0.8702494512425103, 0.8731088512182278, 0.875904131080918, 0.8786310191488879, 0.8812625786713157, 0.8838536420436109, 0.8863565603885843, 0.8888047938119622, 0.8911789215551094, 0.8934727332816876, 0.8956981677180159, 0.8978624491317154, 0.8999342934322195, 0.9019304714045029, 0.9038533542560107, 0.9056962378356216, 0.9074417037738634, 0.9091324675793505, 0.9107439640590298, 0.9122744037787334, 0.9137265345066878, 0.9150706950805488, 0.91636524475485, 0.9175772147145543, 0.9187166686237866, 0.9197618565304597, 0.9207798587775078, 0.9216530545806252, 0.9224464819029098, 0.923086827710303, 0.9237279191143213, 0.9242803945286009, 0.9247505045815971, 0.9251348642547303, 0.9254771093308334, 0.9256846111237026, 0.9257769743358701, 0.9258218248123644, 0.9257810768955317, 0.9256852367005908, 0.925469440661917, 0.9251741320463673, 0.9247898175966699, 0.9243214647109731, 0.9237877755593916, 0.923148453491088, 0.9223661720852032, 0.921567365671307, 0.9206814458467624, 0.9197175029255285, 0.9186573680291646, 0.9175305910111782, 0.9162973002267031, 0.9149801201715354, 0.9135661271543415, 0.912083301440444, 0.9105425387297116, 0.9088885800045451, 0.9071527036471395, 0.9053161882289048, 0.903419395773992, 0.9014082823516593, 0.8993512417553702, 0.897210936433369, 0.8950491078444582, 0.8927367372092592, 0.890279860019084, 0.887820779371024, 0.8852807426280622, 0.8827216195571349, 0.880014516564649, 0.8771946444209806, 0.8743426469102789, 0.871414245792507, 0.8684218028856557, 0.865341358095087, 0.8622208284792832, 0.8589898509446466, 0.8556886440034782, 0.8523075036383597, 0.8488685747344477, 0.8453168291157472, 0.8417456436620006, 0.8381042282387718, 0.8344213133443238, 0.8306393286905579, 0.8267731409717577, 0.8228637914596174, 0.818889857144578, 0.8148393481588226, 0.8107411527153868, 0.8066041449541194, 0.8023801048016267, 0.7980977146645826, 0.7937797702522533, 0.7893809641795064, 0.7848859846717829, 0.780385303478819, 0.7758300360396501, 0.7711997020856873, 0.7665419388781027, 0.7618714983809111, 0.7571064488474243, 0.7522946186995806, 0.7473964453737547, 0.742499553283715, 0.7375947663226375, 0.7326032731667551, 0.7275712178515342, 0.7224968534228217, 0.7173875382152394, 0.7122148901809109, 0.7070357547785199, 0.7018204706455274, 0.6965487326543337, 0.6912683474582856, 0.6859942306782809, 0.6806446084882265, 0.6752674614805396, 0.6698553317509822, 0.6644280274265804, 0.6589227831877152, 0.6534552641745216, 0.647963288205613, 0.642451574383941, 0.6369157087351561, 0.631368109211271, 0.625794986349664, 0.620206551316858, 0.6146116010256432, 0.6089962048155029, 0.6033748064954826, 0.5977395618974204, 0.5920970405329107, 0.586447164735154, 0.5807943973864002, 0.5751398462108241, 0.5694818058122438, 0.5638233750196511, 0.5581630152637673, 0.5525082699483487, 0.5468439935204586, 0.5411993719712309, 0.5355603248959788, 0.529912353028691, 0.5242908960912894, 0.5187177228864586, 0.5131109869765339, 0.5075185937822619, 0.5019446277127465, 0.4963841016730645, 0.4908024303344469, 0.4852842002101019, 0.4797842228123604, 0.4743170868229513, 0.4688564719320398, 0.4634396235315905, 0.4580246082633521, 0.45263677195387403, 0.4472583470052449, 0.44193061118227406, 0.43659894551627354, 0.43133567216406277, 0.4261025368459386, 0.42091702330509917, 0.4157466045813206, 0.4106173893865389, 0.4055182487462029, 0.4004572529791043, 0.39543843271027984, 0.3904567150757584, 0.38544834623058544, 0.3805595483840196, 0.37571060676118795, 0.37097716096603317, 0.3662031428666099, 0.36142089826154383, 0.35675161642893694, 0.35212902678293756, 0.3475586705617146, 0.34303240828812037, 0.3385462998458318, 0.33412295836131534, 0.329751307069697, 0.32544395679345167, 0.3211771371427715, 0.31698872883100276, 0.31283006771638094, 0.3087293692074082, 0.30466100051136774, 0.30068107324356314, 0.2967795076334821, 0.29291376516594464, 0.28908241981006205, 0.28534154729138317, 0.28166068836802277, 0.27806955436376873, 0.27450698394649287, 0.2709628807477981, 0.26753331025044397, 0.26416531985285774, 0.2608508469831511, 0.2576090231903649, 0.2544736661216528, 0.25135267272581857, 0.24829808809994747, 0.2452911348846413, 0.24237207023668378, 0.23953463410447484, 0.23674508307079242, 0.23402251889419665, 0.2313001678216182, 0.2287201569817769, 0.22621801314773646, 0.2237633895161661, 0.2213739244690382, 0.21904552612167677, 0.21678766985443682, 0.21460407233264042, 0.21247633804048924, 0.21041485964901252, 0.20843703496148575, 0.20650572453233393, 0.20459059154699577, 0.20279946626870252, 0.20107192487544637, 0.19944728144260834, 0.19784215922816945, 0.19628692306775594, 0.19481513994523275, 0.1934074864688123, 0.192027331869148, 0.1907515533410509, 0.18956588025164695, 0.1884084182299142, 0.1873133443195277, 0.18631504892119075, 0.18533889740444903, 0.18442559291212784, 0.18357430592889593, 0.18278421834764197, 0.18201820475191755, 0.18135268624768486, 0.18076716059895018, 0.1802117001088709, 0.1797132502312447, 0.17926233462928137, 0.17887671785585504, 0.17850609283956895, 0.17823314286310393, 0.17801074840233386, 0.17787187886312358, 0.17774498935808505, 0.17765886972063702, 0.1776342730380538, 0.1776582926512211, 0.17772430590133234, 0.17784383454673974, 0.17801351026656978, 0.17822323827695102, 0.1784773197439828, 0.17873852820727773, 0.17908316007751104, 0.17951090492323435, 0.1799284267616763, 0.1803865429732932, 0.18084201254661555, 0.1813833021508024, 0.1820016087248259, 0.1826065789318694, 0.18324721459299878, 0.1838874599202187, 0.1846002648785439, 0.18536937033086426, 0.18613828233454388, 0.18693699965710797, 0.18773531004716915, 0.18859383512285738, 0.18949885192010724, 0.19040310536077262, 0.19133141503261436, 0.19223905391879093, 0.19321754286033752, 0.19426068350797226, 0.1952688321103452, 0.19629611990081808, 0.1973282219148929, 0.1983917002884044, 0.19945679421792398, 0.20055019446518554, 0.2016553286057612, 0.20274794633535018, 0.2038764495690638, 0.20503265711002094, 0.2061724681018742, 0.20731904607826157, 0.20847421985678372, 0.20963073219377246, 0.21077786417601949, 0.21194231213400563, 0.21310751516175777, 0.21429717780128063, 0.21545779001407162, 0.21661464680562367, 0.2177727213452048, 0.21892739630797878, 0.2200281457028612, 0.22117887661558078, 0.22234332548626098, 0.22347138442468764, 0.22458982265887756, 0.22570352072994612, 0.2267991931532478, 0.2278755204507486, 0.22894697667427252, 0.23000401266067347, 0.23106898071286028, 0.23209157255791799, 0.23310420578056568, 0.23409346714783874, 0.23506520282630713, 0.23596026604980097, 0.23690120973343684, 0.23785757024748877, 0.2387454737717405, 0.23961080337604354, 0.24045272309480992, 0.24127041806019925, 0.24206599979791096, 0.24283251773981404, 0.24357265604182166, 0.24427839773469195, 0.2449644578955617, 0.24561137282299253, 0.24624014106699238, 0.24683812955907405, 0.24741499682652862, 0.24794861699652454, 0.24847085712787406, 0.2489379049176074, 0.2493732643297497, 0.24976607885446164, 0.2501373248471808, 0.2504540337641371, 0.2507589640577506, 0.2510276051815187, 0.2512204639487778, 0.25142067522768424, 0.2515932177561632, 0.2517134419773441, 0.25179512256640046, 0.2518236464664971, 0.25182980765334334, 0.2518370003390076, 0.2517587460329088, 0.2516431418328078, 0.2514825842809007, 0.2512922110364461, 0.25105734747822417, 0.25079016448479297, 0.2504836292710571, 0.2501579877090516, 0.24976992100923898, 0.24933325536000114, 0.24886941374965615, 0.24836621100558925, 0.2478526592815128, 0.24726696484985228, 0.2465882950897481, 0.24593383315796255, 0.245238157429129, 0.24452631303413555, 0.24374613002277204, 0.24295474908470022, 0.24209361591804507, 0.2411955294077768, 0.24023430358822545, 0.23926555190777082, 0.23826858134755036, 0.23722208336398926, 0.23613841265676033, 0.23500185387077022, 0.23384667502490838, 0.23266300992295535, 0.2314327911188704, 0.230166798824032, 0.22884074870132132, 0.2275075804209331, 0.22615887153620817, 0.224752034992602, 0.22331177008448405, 0.22181095586084187, 0.22030877715833797, 0.2188297579216208, 0.21725417523026586, 0.21564975847894532, 0.2139819121001186, 0.21232508720261153, 0.2106660166407697, 0.20894669249183276, 0.20720770278417472, 0.20543407089367247, 0.20363488632715054, 0.20179464175137982, 0.19994782237273515, 0.19807752342656504, 0.19618135281802865, 0.19426173657192414, 0.19227434977679123, 0.1903156685386841, 0.1883723901958622, 0.18636221358640148, 0.18433258541727748, 0.18230310803194805, 0.18023435363712798, 0.17809709752925593, 0.17600313823071778, 0.1738912567899908, 0.17178576384341546, 0.16963827467499215, 0.16748164453784348, 0.16530740760213372, 0.1631215199964773, 0.16092039286514376, 0.15871406789605147, 0.1564894556638724, 0.1542659094855298, 0.1520339415564987, 0.14974940859410432, 0.14750894751823987, 0.14527179675472487, 0.1430144684511359, 0.14075187632074648, 0.13850538700553813, 0.13623275270224286, 0.1339473704866492, 0.13167473051284873, 0.12940186459197123, 0.1271383526828322, 0.12486650976642939, 0.12259747740262907, 0.12033200686002388, 0.1180708457612219, 0.11581909592886758, 0.11356823050818991, 0.11128782279435277, 0.10905579322849669, 0.10682989192400037, 0.10466340106038736, 0.10244606726148087, 0.1002014255068469, 0.0980133391864193, 0.09583591020901051, 0.093649619343114, 0.09149850686343171, 0.08941885467018028, 0.08728493163464346, 0.08516804565871988, 0.0830482207086507, 0.0809690883372808, 0.07888957480089953, 0.07684733714035696, 0.07482234584102188, 0.07280369854957776, 0.07081680169365885, 0.0688805424526421, 0.06692770668515328, 0.06499679688756306, 0.06309259313027236, 0.06120625317652738, 0.05932882962181098, 0.05749160193225972, 0.05567778389903712, 0.05391548533840963, 0.052146510191538105, 0.05036765993329415, 0.048656399746873503, 0.046970036639916585, 0.04529459795853124, 0.04366149720199114, 0.04206567232708161, 0.04048299595632756, 0.03892775396579369, 0.0374279576403861, 0.03592530285464149, 0.03441066380471465, 0.032973737014395495, 0.03156482661802372, 0.030164058247816376, 0.028815098646885362, 0.02753350185572578, 0.0262363750866742, 0.024970554156190004, 0.023721600442530428, 0.02252048287788123, 0.021382051612304477, 0.020238527197805348, 0.019127855380623584, 0.018023761581733334, 0.016981729417220696, 0.01598089568233979, 0.014999742121209074, 0.014050374987662921, 0.013106623970939733, 0.012224056077444766, 0.011402209642536973, 0.010576368469541212, 0.009782720731096796, 0.009000761697790892, 0.008273565564411363, 0.007629202161614742, 0.006956451580866172, 0.006317112463153363, 0.00571650669445566, 0.0051418183057238215, 0.004608199030734467, 0.004096653970908504, 0.0036170525658398914, 0.0031413068266487, 0.00272764450810156, 0.0023647753122872438, 0.0020061636003245197, 0.0016773629714195424, 0.001418645554369801, 0.0011431274438584603, 0.0008883533034189352, 0.000675237435766043, 0.0004910901740129883, 0.0003455350797408664, 0.00021642745207020985, 0.00012981605632509833, 5.424325489168799e-05, 6.34287857741773e-06, 0.0, 3.714859040409387e-06, 5.877759680420076e-05, 0.00011199906071948133, 0.00019193978956199675, 0.00031957788631198076, 0.0004478175794440743, 0.0006336674375457921, 0.0008083167656675935, 0.0010087599455099862, 0.0012441595130705167, 0.0014919616223442564, 0.0017894740075673956, 0.0020802076271062985, 0.002394257650552216, 0.002719021330039818, 0.0030783026462573907, 0.003524338338257999, 0.0039143453267672206, 0.0043266926023941875, 0.004789278724830363, 0.0052392665869594075, 0.00574054650000941, 0.00622712118419349, 0.006734032795223858, 0.00727171087382749, 0.007814358887000668, 0.008429930335071504, 0.009000046256518525, 0.009589072642639673, 0.010213162568149381, 0.010834092949437601, 0.011487411145627815, 0.012138050377968541, 0.012803922726441265, 0.013478197468916988, 0.014172308111262386, 0.014919221839991968, 0.01563173586785417, 0.01635729987723635, 0.017135665930788614, 0.0178795098136506, 0.01866668200641663, 0.01943130285426418, 0.020208537965683573, 0.020992966564436655, 0.021792904347210984, 0.022628493856622606, 0.023443406052411922, 0.02426790882466552, 0.025159310865190868, 0.02599334157943284, 0.02680611966818727, 0.0276645657244638, 0.028529968330835872, 0.02942065491555715, 0.0302959741246603, 0.031219944822595436, 0.03210244462706538, 0.03299281055250853, 0.033888826549591584, 0.034792909598298186, 0.035760857713428185, 0.03666860783249784, 0.03758443329707752, 0.03846681047910103, 0.03940149009681284, 0.04039638407335705, 0.041330796578977244, 0.042288967505557246, 0.04323322114638763, 0.044183650863499055, 0.04515420104494637, 0.046113488254358945, 0.04706520257310337, 0.04803668468647079, 0.049012092632974194, 0.05000865243660079, 0.05098914131441806, 0.052024906027162525, 0.05300762391743544, 0.053997264502166846, 0.05499040796001817, 0.05599281254249529, 0.05700506647657944, 0.05801766946032488, 0.05903560834093062, 0.06008053130025817, 0.061106021091757876, 0.06214653119643228, 0.06318337046572559, 0.06422675329803477, 0.06527221749370495, 0.06632898703724889, 0.06740208939296224, 0.06846999926062289, 0.0695448795885762, 0.07060212835721999, 0.07169439388283505, 0.07285220628719204, 0.07394932688449364, 0.07505660296134377, 0.07616235719200701, 0.07729131056359201, 0.07841090449972284, 0.07956151087148883, 0.08072104986717667, 0.08194370644261613, 0.08311563747769876, 0.08428633518422995, 0.08548672514995678, 0.08669972713656197, 0.08791253843434708, 0.08915326702688725, 0.0904358453780901, 0.09169896909211295, 0.09297748340864712, 0.09424550794098384, 0.09555895112526888, 0.09689304559500209, 0.09823602117950303, 0.09959533788221764, 0.10098170870172782, 0.10237406335226856, 0.10377336498507445, 0.10520480914649664, 0.10665515252820512, 0.10815550738850377, 0.10964161315001637, 0.11115160526682832, 0.11268275821626204, 0.11423718391446343, 0.11580076575749107, 0.11740482911935442, 0.1190588021370624, 0.12070767977185763, 0.12238298304161152, 0.12403716722373992, 0.12577258854570553, 0.12756786714475574, 0.12934972040494222, 0.13116020009396234, 0.1330056335986348, 0.1348741919889979, 0.1367514922919378, 0.13868436442707374, 0.14064754758510534, 0.14262720651955121, 0.14465490779942955, 0.1466952518156668, 0.14878916149926838, 0.1509150437916875, 0.15313041668574306, 0.15531563268762205, 0.15748907981206178, 0.15975607281470175, 0.16205851772691296, 0.16441166985242886, 0.16678533571245635, 0.1692002645295092, 0.17165079857624319, 0.1741408813770643, 0.17671311206443788, 0.17927837431005167, 0.1818273812804351, 0.18448688649407316, 0.1871865969332122, 0.18991553622274204, 0.19269902503324915, 0.19551372730733987, 0.19838190227277605, 0.201292119536627, 0.20425954233878088, 0.20725387071072168, 0.21029718659311572, 0.213380610842225, 0.21650966066387797, 0.21967592572508848, 0.22289822733475487, 0.2261447385763659, 0.2294621160715449, 0.2328248882842912, 0.23625529084368035, 0.23970738923613608, 0.24320876036498404, 0.24675645623540812, 0.2503523191569348, 0.2539804663094248, 0.2576749573744497, 0.2614329410031906, 0.26522061729285124, 0.2690570293885038, 0.27292037563371563, 0.27685696500997503, 0.28084099054925277, 0.28487257347655615, 0.28895179825547096, 0.29308597745488124, 0.297259681994979, 0.3014451682970409, 0.30571955407777035, 0.31003976413354645, 0.3144015804152072, 0.31881435089255933, 0.3232874745227841, 0.32779007111398645, 0.33233927558423143, 0.33692761487965295, 0.34157029182195076, 0.3462322967307147, 0.350968986580116, 0.355749159960493, 0.3605886914507949, 0.36545343907596467, 0.370350459472707, 0.3753040660186316, 0.3803000854688168, 0.3852960230790959, 0.3903810493229954, 0.39552668818121545, 0.4006864585460301, 0.4058859042535353, 0.41111002877066827, 0.41638920745313684, 0.4216824639168565, 0.42703874361377314, 0.4324300320368554, 0.4378791815714538, 0.44333631136328844, 0.4488109552085924, 0.4543394163055932, 0.4599002861847472, 0.46548707158232433, 0.4711114014392699, 0.4767394887322026, 0.48242617498461426, 0.48813973772782765, 0.4938606625882596, 0.4996284138124445, 0.5054199099842593, 0.5112345006214104, 0.5170714678311046, 0.5229082422470045, 0.5287903219067364, 0.5346910509403262, 0.5406096685790611, 0.5465453486872517, 0.5525059214110997, 0.5584719129864913, 0.5644439251178028, 0.570439387024353, 0.5764468548517909, 0.5824187476509483, 0.5884527800637813, 0.5944942692379922, 0.6005393054385686, 0.6065887122896847, 0.6126052012009648, 0.6186649648467, 0.6247414045343375, 0.630796612238468, 0.6368502821545184, 0.6428577034323538, 0.6489103663635919, 0.6549526099043383, 0.6609897040015139, 0.6670172280106894, 0.6730109089430696, 0.6790190748047576, 0.6850406874441785, 0.6910160392627731, 0.6969766833588671, 0.7028921982957169, 0.7088229683120294, 0.7147404821903198, 0.7206280916133061, 0.726490231690283, 0.7323317335054808, 0.7381477872576891, 0.743894892064469, 0.749661230789971, 0.7554144543254432, 0.7611133126577886, 0.7667789891606532, 0.7723389555881682, 0.7779431988647563, 0.7835410166843869, 0.7890574383374673, 0.7945327724173414, 0.7999425028344771, 0.8053347489050695, 0.810676337838204, 0.815975372915866, 0.8212254969494555, 0.8263935489287328, 0.8315462500075855, 0.8366183963548762, 0.8416645593521641, 0.8466527376283312, 0.8516241446628525, 0.8564882249310618, 0.8612603553199971, 0.8660101676617658, 0.8706967405864603, 0.8753320110052264, 0.8798870160019097, 0.8843963708332235, 0.8888155275254204, 0.893167235620967, 0.89743405746021, 0.9016485408724947, 0.9057802184762574, 0.9098494670368799, 0.9138430282067063, 0.9177379746470938, 0.9215795084825879, 0.9253305690467515, 0.9290118393967082, 0.932610344975259, 0.9360888954583566, 0.9395238277059846, 0.9428887316621367, 0.9461459310400093, 0.9493153936371009, 0.9524108288662163, 0.9554005230797725, 0.9582775852569135, 0.9610904955008946, 0.9638108435495383, 0.96644662727177, 0.9689785932576291, 0.9714381205605684, 0.9737780924338286, 0.9760235111808117, 0.9781966977689248, 0.980247350073521, 0.9821338423273731, 0.9840003731630459, 0.9857652854834373, 0.9874268176195569, 0.9889877397036934, 0.9904881362870401, 0.9918381134053281, 0.9930871749137233, 0.9942085252336322, 0.9952571668451902, 0.9962103436667307, 0.9970492280077607, 0.99778385256388, 0.9983746725637912, 0.9989047975573636, 0.9993639010972502, 0.9996748453188935, 0.9998806553400357, 1.0, 0.9999925444900468, 0.9998383527129746, 0.999626748257816, 0.9993077130573867, 0.9988959648834683, 0.9983608150918336, 0.997708033836787, 0.9969624430852042, 0.9961104409748999, 0.9951522926676494, 0.9940882829551597, 0.9929056438132818, 0.9916325038641219, 0.9902537538563975, 0.9887684218101984, 0.9871800894793756, 0.985512241022101, 0.9837128989951522, 0.9818118179500827, 0.9797933896832643, 0.9776920078056923, 0.9754761603895422, 0.9731742765612164, 0.9707715492653999, 0.9682455202715192, 0.9656464099283238, 0.9629635235004891, 0.9601638969310071, 0.9572674352117923, 0.9543171432136663, 0.9512243362890996, 0.9480310294027854, 0.9447563507458407, 0.9413906502469616, 0.9379448827481869, 0.9343982594767182, 0.9307477057485697, 0.9270280416079248, 0.9232212643278301, 0.9193153712982227, 0.915339265109091, 0.9112568273550876, 0.9071156582999701, 0.9028912713373219, 0.8985938540177474, 0.8942063385202316, 0.8897390418655675, 0.8851964444963846, 0.8805782296265844, 0.8758829151733752, 0.8711181120745408, 0.8663108812567586, 0.8614009220339547, 0.8564240788534994, 0.8513670893692006, 0.8462621468108535, 0.8410963189455937, 0.8358649205149996, 0.8305728983436813, 0.8251999684400858, 0.8197939910384027, 0.8143612492770227, 0.8088386138359466, 0.8032638941350861, 0.7975949976499502, 0.7919261086380497, 0.7861825389896534, 0.7804187178081858, 0.7746073378038807, 0.768738853864885, 0.7628400128684347, 0.7569513661676979, 0.7509637712091386, 0.7449410899953548, 0.7388674545222805, 0.7327815163862978, 0.7266337588225947, 0.7204908101264267, 0.7143183541629278, 0.7081242037652672, 0.7018979737061071, 0.6956412141309417, 0.6893712392866145, 0.6830813118002266, 0.6767951155673667, 0.6704681886557172, 0.6641441304284451, 0.6577906218841866, 0.6514282240472182, 0.6450250668206621, 0.6386537563949857, 0.6322937913144855, 0.6259099643659497, 0.6195247290791862, 0.613077301275065, 0.606702184177744, 0.6003562391248951, 0.593979861128467, 0.587609514666305, 0.5812499179697382, 0.5748966785305067, 0.5685666125691776, 0.562236719737981, 0.5559224334044524, 0.5496267835005405, 0.5433482505473014, 0.5370436286355502, 0.5308133042813533, 0.5246038377298835, 0.5184142187187747, 0.5122524632696375, 0.5061604999787847, 0.5000474185780427, 0.4939664631433518, 0.48787246103061765, 0.48186557033726357, 0.47585726558240216, 0.4699233597865383, 0.46402425025048516, 0.458199561757775, 0.45237075568046187, 0.44656095186817446, 0.44082089775171446, 0.4351752463840335, 0.4295173394807227, 0.42390870672872694, 0.4182950970111752, 0.4127948459142907, 0.4073988342496667, 0.4019910839235435, 0.3966382182648755, 0.3913120323409805, 0.3860751572756884, 0.38089554197680053, 0.37577118244084046, 0.3707048483991854, 0.3656743051247251, 0.36072995274520697, 0.3558045778283522, 0.35098577338381526, 0.3462264882291989, 0.3415265933528076, 0.336890411292626, 0.3323377106738288, 0.32782632846103554, 0.32338132159204747, 0.319007821237811, 0.3146972878171242, 0.31046572667049754, 0.3062921211468069, 0.30218906589438027, 0.29814248719677466, 0.29418370305524427, 0.2902625280243414, 0.28645050374028086, 0.28270857574093117, 0.279054861542093, 0.27545290857530413, 0.2719442163083128, 0.2684858849300777, 0.2651022681095044, 0.26176150793666864, 0.2585316432231819, 0.25539237568276857, 0.25230693714604274, 0.2492961885934738, 0.246309344256147, 0.24345454408385833, 0.240712334159798, 0.23799659905959272, 0.23535573380145897, 0.2328027062467583, 0.23030958071403498, 0.22784081144907462, 0.22550421490333294, 0.22323935467219816, 0.22106374325222714, 0.21894032655535892, 0.21690855338039206, 0.21492801836834452, 0.2130207664043189, 0.21113112156368705, 0.2093759724638689, 0.20770841685844127, 0.2060882158097361, 0.2045375459503585, 0.20302262155113893, 0.20161406932897863, 0.2002922546613332, 0.1990136995406561, 0.19780215016692684, 0.19668176880448865, 0.19559946988257743, 0.19457512943491334, 0.19362643556844622, 0.1927422265158625, 0.19191589745121507, 0.19115899128210362, 0.1904478263786481, 0.18981557897048065, 0.18924252727373236, 0.18874393101295903, 0.18828505504087562, 0.18788690950767442, 0.1875423642145952, 0.18725388812759416, 0.18702047717134973, 0.1868411165622155, 0.1867075176840276, 0.18663408945086432, 0.18661119643558743, 0.18664510383182037, 0.18671935159574243, 0.18681389706205276, 0.18698632493299824, 0.18720288324469447, 0.18748010513964344, 0.18777998973672494, 0.18812218581800133, 0.188505558756254, 0.1889289645590308, 0.18936510283070834, 0.18986841380919417, 0.19041407092310955, 0.1909856637318812, 0.19159078317770428, 0.19224868021243338, 0.19291500407415194, 0.19359670282452213, 0.19432645359047726, 0.19508406537145975, 0.1958349672273696, 0.19664903506791476, 0.19751027470479787, 0.19836525607347716, 0.19924222514629694, 0.20014725427876603, 0.2010637014322825, 0.20195973207839243, 0.20291748358131706, 0.2038893143109469, 0.20493093774440727, 0.20592091130191703, 0.2068729330205973, 0.20789672222992694, 0.20892898820801842, 0.21000505143599288, 0.21104667082896103, 0.21204781976412077, 0.2131090915032061, 0.2141724787768644, 0.21528500853219906, 0.21634380922935342, 0.21736103267875798, 0.2184279868213533, 0.21949180876433372, 0.22057915287777355, 0.22163036982133347, 0.22265243416293903, 0.22369665939814282, 0.22473266591417282, 0.2257289923150865, 0.22674954789558055, 0.22780814095550517, 0.22879594468045664, 0.22977234289077056, 0.23074778502260054, 0.23169642018778774, 0.2325800407567258, 0.23350558958466563, 0.23441181273425216, 0.23532853405761647, 0.2361901905718812, 0.23705539466480008, 0.23787376673756158, 0.2386718627707733, 0.23940065564675012, 0.24016104037750696, 0.2408982395176774, 0.2416055105723128, 0.24228571885243197, 0.24293826752073708, 0.24356256198230067, 0.2441478433381442, 0.24471514994042554, 0.24525188024913738, 0.24577788563272976, 0.24624943561089974, 0.2466465183657547, 0.24706116187550664, 0.2474412171934094, 0.24783729023291123, 0.24814101405283695, 0.2484195102859319, 0.24865665075721607, 0.2488603866355393, 0.2489879382690863, 0.24912828143232488, 0.24924120983838008, 0.24930492627950107, 0.24933128152707576, 0.24933164358428853, 0.24928106251574672, 0.249162552957053, 0.24904068358973636, 0.2488791090651217, 0.24869526380345555, 0.24845208033100571, 0.2481527408505771, 0.24783417474472866, 0.24747565135703797, 0.24712951124748345, 0.2466846019384852, 0.2461868431584026, 0.24566985802041189, 0.24511445674903462, 0.24449874263559696, 0.24386898164849652, 0.24322988029386822, 0.24251674953071561, 0.2417658553357904, 0.24093938806189055, 0.2401176637081695, 0.23926332625189614, 0.23836131825288448, 0.23741044719998822, 0.23643266539593377, 0.2354162875010465, 0.23435448216801083, 0.23326312714547792, 0.23219072206886268, 0.2310172958146925, 0.22981034071409567, 0.22856408769398118, 0.227290992499954, 0.22596109570645018, 0.22462407216409735, 0.2232527292025473, 0.22180255282696418, 0.22036983142113964, 0.2189425292785362, 0.21743507323858874, 0.21589644802472643, 0.21433880497755853, 0.21273797894662483, 0.2110617903776911, 0.20940957028059318, 0.2077268585681313, 0.20601456442283117, 0.20427357398166088, 0.20255123818773374, 0.20074955975838316, 0.19892434470666048, 0.19709056923440818, 0.19521783022553063, 0.19329622637252825, 0.19138488329681028, 0.189451641196474, 0.1874972411658161, 0.1855224335498465, 0.18354250399027985, 0.18152733053236889, 0.17949486723596297, 0.17743851739809394, 0.17537441398384748, 0.17330339165088185, 0.17120770109472658, 0.1690984430307404, 0.16697925480372958, 0.1648447068884354, 0.1626989980971642, 0.16054288145497952, 0.15837712471309134, 0.15618943490234677, 0.15400840503181937, 0.15177434492727862, 0.1495839282971553, 0.1473848122488857, 0.14520150534701676, 0.14298579984797605, 0.14076635055086606, 0.13854409784483052, 0.13631996679450747, 0.13413408973929639, 0.13190396263642318, 0.12964779988592473, 0.12742793963211413, 0.12521061235402386, 0.1230068323776245, 0.12079581586774889, 0.11854538756382432, 0.11635204818980122, 0.11416329058699003, 0.11198312953891106, 0.10980645236911593, 0.10770454095127936, 0.1055362668780529, 0.10338158282510582, 0.10118420129193889, 0.09906499658812483, 0.0969806548223191, 0.09488267778395242, 0.09279944585264117, 0.09075197590697565, 0.0886976989376008, 0.08663809456962818, 0.08462308991679479, 0.08262571789671051, 0.08065686408934969, 0.07869560914172964, 0.0767285199002595, 0.07481179161625647, 0.07291509334829926, 0.07103050459609327, 0.06917732243458076, 0.06735468857877491, 0.06554484323463128, 0.0637588310803873, 0.06200019076383348, 0.060263354078437456, 0.05857122807842728, 0.05688419805880761, 0.05522511946043905, 0.05360160944544785, 0.05199857852020841, 0.050390107452395826, 0.048850626174334326, 0.04733920554568921, 0.04587531126931711, 0.04441933375816259, 0.042966518781694864, 0.04157588766780818, 0.04021512157923746, 0.038864413815126515, 0.03756750045570293, 0.03633129053234037, 0.03509149725301971, 0.033884722886911516, 0.032698126114437724, 0.03155972387716821, 0.03045280325617583, 0.029380742651538, 0.028342084824658748, 0.027354506356815335, 0.026381156992389507, 0.025450105027926544, 0.024545931547873413, 0.023677245100061476, 0.022828020326642003, 0.022032188848964695, 0.021288237302215896, 0.020559174604824957, 0.019865671114989002, 0.019197454911505745, 0.018576043581818212, 0.01799220946728685, 0.01743974422564538, 0.01692203787358826, 0.01641866914498071, 0.015972786918996906, 0.015576211473407806, 0.015195005940854222, 0.014848075114479655, 0.01457448938852586, 0.014290682450670448, 0.014021068544295275, 0.013811475855509708, 0.013635656550897868, 0.013488969781659367, 0.01338039657005237, 0.013313209490345505, 0.013268615235244554, 0.013256651361151861, 0.013268252260163128, 0.01332160019073871, 0.013436539443376585, 0.013547914134989266, 0.013691498123609765, 0.013836227024084475, 0.014046427770802547, 0.014263709624411494, 0.014534137844973448, 0.014831655090261945, 0.015170653427797783, 0.015520068270357656, 0.01591865507981556, 0.016319715324749788, 0.016748634754081948, 0.017200481793737763, 0.01768395568664886, 0.018220940389983422, 0.018752221757770336, 0.019309913376615032, 0.019888908300055973, 0.020497749736522214, 0.02112041432603813, 0.021777878085540155, 0.022457482228602603, 0.023197907038710656, 0.023915208874180978, 0.02467556371347671, 0.025434866972647262, 0.026216346899499234, 0.02707861079916845, 0.027894110813067693, 0.028701917626831417, 0.029565606117131518, 0.03044790400488458, 0.03137554495831148, 0.032289018789514304, 0.03322890186447835, 0.03417569705742002, 0.03513880826267498, 0.0361565375578224, 0.03714462047273142, 0.03815588998974394, 0.03917381935842226, 0.040205995095003944, 0.04127612210820071, 0.0423307687568738, 0.043418619223403, 0.04449542993082269, 0.04558432737749791