0.07113422907374514, 0.07067366089834445, 0.07025342052966674, 0.0697956157292876, 0.06934275545434761, 0.06884491877964195, 0.06840609667439883, 0.06802318225483076, 0.06757784079210863, 0.06713579133207888, 0.06665377215427351, 0.06622234652445767, 0.06579913271663017, 0.06536599031701779, 0.06493309939461027, 0.06455179712426401, 0.06411292900773302, 0.06361091785296753, 0.06318639243172831, 0.06276061561353433, 0.06234454880211519, 0.06191569550499319, 0.06146126307964742, 0.06103596030162027, 0.06060955161350719, 0.06017380086086608, 0.05974719141025284, 0.05936692486555455, 0.05893323393209575, 0.05850203981982093, 0.05805395307083943, 0.05762979374356601, 0.0572131131076025, 0.05679033650101106, 0.05639264917540514, 0.055970026809926195, 0.05555030803926164, 0.055116206295033984, 0.054703962075458364, 0.05429963012423492, 0.0538895968439142, 0.053481484668043464, 0.05301324314714123, 0.05261677262904633, 0.052216571836951026, 0.05181768927590281, 0.05141803785490517, 0.05108647618533904, 0.05067780711602628, 0.050226232919671585, 0.04983154889363269, 0.049437862092055695, 0.049075285985735274, 0.048680286337788106, 0.048267015679251735, 0.04788083304174165, 0.04749633114849788, 0.047115724339752224, 0.046734531350116564, 0.04640454129036338, 0.04602117315888606, 0.04564264238470331, 0.04518302245272889, 0.04482394249711093, 0.04447464044698391, 0.04411282549175764, 0.0437515471957489, 0.04341246618174748, 0.04305033522490754, 0.04263932363849168, 0.0422886131112891, 0.041937506734392185, 0.04162921137972455, 0.04127312784196672, 0.04092231407783653, 0.040572162916982055, 0.04022515081978896, 0.03990902089094906, 0.03956458326733307, 0.03917119481009002, 0.03884230351160646, 0.03851443539074826, 0.03822632035716778, 0.037896283940611446, 0.03755078509269624, 0.03723060947284436, 0.03691285864053454, 0.03658259974498212, 0.03627171113937932, 0.03601599830880207, 0.035701899284996536, 0.035392791152547405, 0.035094783682798295, 0.034793963531585405, 0.03448913194549788, 0.03419823342312139, 0.033910935460664496, 0.033592899555155084, 0.0333168109589424, 0.03306779035263785, 0.032791470415281944, 0.03251840256813101, 0.03223572387690129, 0.03197070638571371, 0.031673934862308524, 0.03141828461119591, 0.031163371817934833, 0.030941640481350185, 0.030685178047547862, 0.03047071192578607, 0.030216355329734938, 0.029967631323647673, 0.029711387846131445, 0.02947463890544305, 0.02919062680837561, 0.028968411773684644, 0.02874719230164811, 0.02855725091229122, 0.028335203168300013, 0.02809533349863463, 0.027883116192277083, 0.027673243768617167, 0.02748298963796242, 0.027276104325915044, 0.027085779524577983, 0.026884688980759835, 0.026687977204017107, 0.026484813792046338, 0.026297820814123823, 0.026103546240093617, 0.025924721718980723, 0.02574868704868218, 0.02560332336487839, 0.025429560116706988, 0.02526888976431045, 0.025102936357665723, 0.024941656182924703, 0.024797670357325136, 0.024643497984598656, 0.02453479213045868, 0.024384878357238998, 0.02424159923855868, 0.024100157832372283, 0.023969197947772372, 0.0238753520525271, 0.023750083314256883, 0.023631071469609834, 0.023549919359987962, 0.023437980566857492, 0.023352093489099304, 0.023250758605238734, 0.023156260025519158, 0.023027389244531703, 0.022950086895222647, 0.022961444431095945, 0.022879499307209207, 0.022805435981413134, 0.02269580079870837, 0.02264099232991174, 0.022703303663974477, 0.022641592757909494, 0.0225898905119274, 0.022540854027067583, 0.022507336470424695, 0.022470379749860648, 0.022452210711745652, 0.022439752915641778, 0.02249049707755851, 0.02248142377380902, 0.02246356407513728, 0.02247273204361542, 0.022488212139704915, 0.022569642943910995, 0.02258946552310238, 0.022648309922430034, 0.02268191303962404, 0.022725205787813552, 0.02282033359692139, 0.02287579525714282, 0.022922498009456543, 0.023000687509334348, 0.023087022779433777, 0.023223969963760447, 0.023320314099655487, 0.02344999908777891, 0.023562524551671647, 0.02368534241185749, 0.023837222855289223, 0.023976841602116848, 0.024222921466848162, 0.024370391349198533, 0.024532785199721987, 0.02474761009705289, 0.024932156367159647, 0.025114154477151204, 0.02532912328817051, 0.025556108594361398, 0.0257968054329418, 0.026046324546978444, 0.026358284206859706, 0.02662333092777995, 0.026902061122420592, 0.02723465427766875, 0.027534329624690906, 0.027859582195949726, 0.028187162364249497, 0.028529324961300305, 0.028930612029302617, 0.029295222827148366, 0.029721007903522025, 0.030111970472709932, 0.030520869141043974, 0.030908576064978568, 0.031356474943630044, 0.03185288442236324, 0.03232506596196804, 0.03281358610219597, 0.033343977943215725, 0.033861595715624956, 0.03442888331689459, 0.034977463918575695, 0.03554520883782791, 0.0361361313989272, 0.03674095894601148, 0.03732615061011254, 0.037973520145507283, 0.03863753811970566, 0.0393913030636342, 0.04008054241733562, 0.04084085102489457, 0.0415674219310635, 0.04231832449042657, 0.04307386847871234, 0.04387466253511626, 0.04468487413277355, 0.04553180460690846, 0.0463853696551969, 0.047277629905412656, 0.048191129348013714, 0.04915407408977719, 0.05010773751094023, 0.0511153627507183, 0.052113460563897755, 0.05313766704800494, 0.05421151946621855, 0.05528504281164526, 0.05639044733841944, 0.057518594326675096, 0.058674561154774485, 0.05982201997462735, 0.06103838497739418, 0.06228292436963967, 0.06355155335465383, 0.06484726348350893, 0.0662132785280858, 0.06755906668471644, 0.06893779781232595, 0.07034501570506255, 0.07178338192922919, 0.0732872716622763, 0.07478408967770472, 0.07627173972566104, 0.07784115667106346, 0.07944176699172381, 0.08103120092091658, 0.08270084419831239, 0.08446041251007186, 0.0861833004175441, 0.08794104862297869, 0.08967609159282765, 0.09151145410289531, 0.09337051141320371, 0.09527216918320637, 0.09720697638742246, 0.09920771513608916, 0.10120680618736781, 0.10323424558180179, 0.10530854012892008, 0.10741988065675924, 0.10951516464452865, 0.11170847031911586, 0.11395188223387723, 0.11621432958434269, 0.11851422531832465, 0.12092696486400228, 0.12329383585761, 0.1256610478599747, 0.12811939591574606, 0.13061815662348997, 0.13312763636808983, 0.13571176362332202, 0.1383375047928415, 0.14100078757977974, 0.14370458198444497, 0.1464663908491896, 0.14925018697949125, 0.1520508737877147, 0.15492320870265522, 0.15783700490633615, 0.16080974411100182, 0.16380537498173425, 0.166820913063865, 0.16990653757081461, 0.17303455923020356, 0.17617107002481067, 0.179389133812748, 0.18265708974415695, 0.18595724728168558, 0.18930016905099004, 0.19272040118242179, 0.19614544475244067, 0.1995603979038212, 0.20308345537512898, 0.20664877928653952, 0.2102246622136714, 0.21387965629435737, 0.2175653930683467, 0.2213050967648742, 0.22508652446002073, 0.22893576671932298, 0.23279858734531442, 0.2366863693960635, 0.24064006209907157, 0.24463687973542808, 0.24872185002784974, 0.25279951321206684, 0.25686953346172975, 0.2610452469762227, 0.26526304369642373, 0.26952726919308617, 0.2738288464689089, 0.27814072519600863, 0.28253103700430837, 0.2869617071169835, 0.29147133547037196, 0.2959780825886435, 0.3004761234542788, 0.3050742449518797, 0.30971134780394405, 0.31443450684247665, 0.3191436072520857, 0.3238343057702121, 0.32863343518186666, 0.3334696380697732, 0.3383749526028542, 0.3432810398479688, 0.3481850352131106, 0.3531728869183975, 0.3581960408998739, 0.36327570755930677, 0.3683661647761664, 0.37349669994352175, 0.37865771023462863, 0.3838537273550935, 0.3889943269519395, 0.3942699530484696, 0.3995737487280335, 0.4049058070873635, 0.4102661168550586, 0.4156738231996725, 0.42108779480481573, 0.4265091340731628, 0.43198282692545725, 0.43748302995330896, 0.44308205354054253, 0.4486247650847556, 0.454128185680604, 0.45973670208641837, 0.46536822414567885, 0.47104785123597315, 0.47672038233588665, 0.48238128593161045, 0.48810243225358446, 0.49384242846072385, 0.49962628843173806, 0.5053987288674581, 0.5111102180146471, 0.5169280703976832, 0.5227576968426197, 0.5286158429476221, 0.5344656648085332, 0.5403846199074208, 0.5462491506977988, 0.5521267632371917, 0.5579241754040847, 0.5638356941590598, 0.5697469996655223, 0.5756666726160756, 0.5815890569821728, 0.587545603721392, 0.5934673777008499, 0.599365884445543, 0.6052946225884869, 0.611222131878751, 0.6170918789594003, 0.623021168830151, 0.6289218433743858, 0.6348388033963316, 0.6407460805631844, 0.6466088705790718, 0.6524992805223773, 0.6583996128783564, 0.6642592794143423, 0.6701054516067604, 0.6759500304609739, 0.681764733420212, 0.6875187756288368, 0.6933064885148015, 0.6990735337774372, 0.7048168932031669, 0.7105401713937384, 0.7162933144129171, 0.7219615715633962, 0.7276071013163601, 0.7331620400112168, 0.7387658609417643, 0.7443536032149936, 0.7498924591506474, 0.7553991189105818, 0.7609365741194984, 0.7663671618792345, 0.7716970959159855, 0.7770701770013358, 0.7824037532272379, 0.7876753259668101, 0.79292924904503, 0.7980984301007493, 0.8032682931280923, 0.8083897392047543, 0.813477000149452, 0.8184974258067067, 0.8235084963735492, 0.8284227454832125, 0.8332871624232268, 0.8380211752927665, 0.8427916763787021, 0.8475336293375745, 0.8521826194643638, 0.8567689886249266, 0.8613007462895272, 0.8657717295453415, 0.8702493075409065, 0.8745868293456024, 0.8787978258872499, 0.8830216433883176, 0.8871782673030686, 0.8912709718329545, 0.8952896459872921, 0.8991698775431665, 0.9030561632625803, 0.9068664988631526, 0.9106346067192413, 0.9142871432886107, 0.9178468497696056, 0.9213491738410505, 0.9247729317813991, 0.9281451198167158, 0.9314057771871141, 0.9345869477191168, 0.9376875585583045, 0.940706559730971, 0.9436108383666384, 0.9464676211764356, 0.9492058993161893, 0.9518932059302129, 0.9544908934263435, 0.9570584065977843, 0.9594679015801058, 0.9617661684088983, 0.9640022309615879, 0.9661472964108666, 0.9681407346715704, 0.9701091894988633, 0.9719939677113605, 0.9737675798734007, 0.9754449671790666, 0.9770471490072602, 0.9785282546620997, 0.9798917963943949, 0.9811826913236489, 0.9823750948951796, 0.983490043233896, 0.9844816971367376, 0.9853600310732692, 0.9861563735200088, 0.9868525371609667, 0.9874909760914559, 0.9879804076639119, 0.9883347685904702, 0.9886307717690296, 0.9888248649648408, 0.9889275485526832, 0.9889159071301026, 0.9887874666244647, 0.9885738577146069, 0.9882571996089343, 0.9878310575468162, 0.9873090804252311, 0.9866452004694601, 0.9859213916615962, 0.985092236821683, 0.9841859874530893, 0.9831439360818485, 0.9819865439673982, 0.9807412812412789, 0.9793931713352735, 0.9780002975756605, 0.9764401870732772, 0.9747365725449322, 0.9729848816427615, 0.9711319746552379, 0.9691782657144561, 0.9671241916526022, 0.964983047383424, 0.9627280258589749, 0.9603748144173054, 0.9579088716492681, 0.9553625090127019, 0.9527099720082115, 0.949970121663074, 0.9471335275133663, 0.9442501674429074, 0.9412162162706633, 0.9380735512268612, 0.9348589922940188, 0.9315528009420141, 0.9281300073616084, 0.9246459371352989, 0.9211138000339235, 0.9174436526782276, 0.9136871290079186, 0.9098107157262626, 0.9058879605302833, 0.9018235973393461, 0.8977370402050985, 0.8935636830537009, 0.8893244024851839, 0.8849798451926941, 0.8805436319400376, 0.8760398718346528, 0.8714572778145738, 0.8668507715993903, 0.8621080715082182, 0.8572638970877382, 0.8523829218469114, 0.8474307756211333, 0.8423745664357658, 0.8372884216499288, 0.8321567631092593, 0.8269312128147113, 0.821641235767519, 0.8162925464235643, 0.8108774963238791, 0.8053576855868613, 0.7998300760193067, 0.7942430043146689, 0.7886132807087418, 0.7829108737357096, 0.7771659713357589, 0.7713574754111813, 0.7654996773006248, 0.7595877169373277, 0.7536368091488289, 0.7476773104239699, 0.7416335383795134, 0.7355501460386609, 0.7294541661783323, 0.7232924217977189, 0.7170667669752504, 0.7108421588090426, 0.7045845182899353, 0.6982698061455834, 0.6919542545991851, 0.6856284261177676, 0.6792532707723521, 0.672853431172011, 0.6664498701856477, 0.6600033709519417, 0.6534935084219635, 0.6470173859345968, 0.6405234895525016, 0.6340159495268765, 0.6274921834167618, 0.6209673592897137, 0.6144206383313422, 0.6078665549462404, 0.601296197308353, 0.5947340868880393, 0.5881265666613613, 0.5815664618459839, 0.5750050159930827, 0.5684486700915852, 0.5618904310903204, 0.5553202956790416, 0.5487766188317009, 0.5422410878536745, 0.5357692027525786, 0.5292492176250623, 0.5227420152854044, 0.5162581392583722, 0.509793988284042, 0.5033852896146546, 0.4969607703282572, 0.49047684732364366, 0.48411669751735137, 0.4777804011783914, 0.47147635494282447, 0.4651928300822024, 0.45893285721358523, 0.45271183541296656, 0.446523884541174, 0.4403878354604888, 0.43426897108913726, 0.42820413021707776, 0.4221629221542414, 0.4161644818393843, 0.4101844258757875, 0.40427861668804654, 0.39842224792072206, 0.39260768964057774, 0.3868414318644108, 0.3811013057738366, 0.37543867741994985, 0.36987622189839253, 0.36431078257717237, 0.35880195013487576, 0.35333999439932434, 0.3479486258800305, 0.34256910337019236, 0.3373025460528138, 0.3320943356590763, 0.3269587001009988, 0.3218696752686444, 0.3168223133098831, 0.3118632037216565, 0.3069681103003226, 0.30215747447517194, 0.2973914861582595, 0.29271964956409924, 0.28808823944320117, 0.2835284354284122, 0.2789424242848732, 0.2745400201487911, 0.2702524887794422, 0.26598110660315777, 0.2617763420412909, 0.2576525934448871, 0.25360297472026844, 0.24963460966863316, 0.2457345066678246, 0.24192155426128376, 0.23817351421647642, 0.23450349993029343, 0.2308690706578917, 0.22736151306335922, 0.2239091311807459, 0.2205580144593224, 0.21728339963742851, 0.2141030375337377, 0.21098109305944235, 0.2080152854530372, 0.20504212841908226, 0.2021529002207079, 0.19929152941913478, 0.19657585513461567, 0.19399318428678203, 0.1914298670166162, 0.18894916885194402, 0.18649503022730643, 0.18418528737362386, 0.18192380620682153, 0.1797743039626675, 0.17770135038590068, 0.17574576275102166, 0.17382121377740511, 0.1719971803161552, 0.1702278045502648, 0.16853798709692352, 0.16686938129627463, 0.16534420585243048, 0.16391067476735605, 0.16253225630210485, 0.1612289778525922, 0.1599854561731992, 0.158833080014436, 0.1577643456885297, 0.15675609980901695, 0.15582052811831476, 0.15498911968067763, 0.15419301222909323, 0.15336252835990938, 0.1527241416261019, 0.15215041423030096, 0.15169044481646252, 0.1512394042723462, 0.1508380486263065, 0.1505219662913512, 0.15027008322131685, 0.1501394206439403, 0.15000638218309104, 0.14987426532419953, 0.14987819331704383, 0.14994096067185075, 0.1500575025754425, 0.1502360782719069, 0.1504429348794041, 0.15073630939021462, 0.15108237683116332, 0.1515466907337388, 0.1519874196670964, 0.1525077664533822, 0.15305167651285587, 0.1536480507498524, 0.1542439053535104, 0.15494680028992333, 0.15569445247026786, 0.1564857323178307, 0.1573194862196963, 0.1581603129406296, 0.15907979413538062, 0.1601153871569265, 0.1610978352876866, 0.16211972655959517, 0.16311947848827024, 0.1642228029259854, 0.16535939499241215, 0.16652360333324065, 0.16771682324588516, 0.16894857019948187, 0.17019489765174092, 0.1714650901955467, 0.17276236763466132, 0.17408286584246546, 0.17540815007638308, 0.17677328141844914, 0.17817166396442724, 0.17957025843023153, 0.1809855534587538, 0.18245041863956601, 0.183890720692576, 0.18534557953395736, 0.1868133689356263, 0.18829250011007787, 0.18976216737991206, 0.1912617870733488, 0.19278421464064385, 0.1942917535173944, 0.19580334073930628, 0.19728332176725744, 0.19880307101711908, 0.2003399872348824, 0.2018520513967972, 0.20336093650828296, 0.2048760804054258, 0.20637349438454594, 0.20788384507733823, 0.2093648885487209, 0.2108381088062824, 0.2121972765988035, 0.21366390223364148, 0.2151362317162378, 0.216563775424144, 0.21797383439943535, 0.21936135543278965, 0.22073463058735782, 0.22208135295364553, 0.2234143516273536, 0.224725200238053, 0.22605159992974067, 0.22731085422417158, 0.22851343496124088, 0.22973096481837557, 0.2309218463948061, 0.23212162658176144, 0.23325215790120313, 0.23434920536183712, 0.23542530440533146, 0.23647179727940906, 0.23750268051520387, 0.238485169466807, 0.23946172862982107, 0.24037677460293536, 0.24125970957781442, 0.24202599488853954, 0.24285198154522644, 0.24364872966590667, 0.24439324625010947, 0.2450979035200798, 0.24578157059495692, 0.24640292146398052, 0.24696507986116129, 0.24750843823179794, 0.24800970715426213, 0.24853485282472687, 0.2489425265408625, 0.24930225508453793, 0.24963137467473667, 0.24991898572722043, 0.2501623091787257, 0.25036531330413136, 0.25043938100918833, 0.25056600383820726, 0.250643592393151, 0.25067889178619085, 0.25065854220780104, 0.2506459994269385, 0.25052316881711734, 0.2503559721324534, 0.2500670942199831, 0.2498200236424451, 0.249628292141064, 0.2492694602813601, 0.2488678861398211, 0.24835037659685014, 0.24787120112881572, 0.24736329621071287, 0.24678606975678016, 0.2461626268391691, 0.24547817384860302, 0.24476474902661916, 0.24398560954983953, 0.24318204825316975, 0.24233165801497522, 0.24149271406886286, 0.2405429117484888, 0.23957885857146927, 0.2385414535381775, 0.23746366809840277, 0.23633686150826225, 0.23517922108868722, 0.23394432846017574, 0.23270971010099592, 0.23143261582964628, 0.23008369320715188, 0.2287272277265744, 0.22733269816015847, 0.22589187351782486, 0.22441066035219986, 0.22289627317039046, 0.2213358547699612, 0.21975274992608299, 0.21811584476717424, 0.21644357698338992, 0.21479859535786092, 0.2130496259654865, 0.21123431946935345, 0.20943018065805433, 0.20758163086102382, 0.2057165872747646, 0.20382052939541662, 0.20186643868931783, 0.19991425133866011, 0.19789125746805594, 0.1958849347559213, 0.1938482587251398, 0.19181252725673142, 0.18971535771548526, 0.18765972761295052, 0.18550559881246398, 0.1833323515248262, 0.18109548939135886, 0.1788910200335847, 0.17662358294731653, 0.1743851056992774, 0.17212595289982782, 0.16990518187291312, 0.1676012406113108, 0.16531359971253673, 0.16297930558040089, 0.16063452798418895, 0.15827125099432265, 0.1559082627051889, 0.1535018608495368, 0.1511255768224707, 0.14873972035281535, 0.14631756820238892, 0.1439193266796759, 0.1415730692617891, 0.1391527117796219, 0.13673032330232696, 0.13421464786185217, 0.1318020292732744, 0.12942511468899104, 0.1269990178208138, 0.12457326536712665, 0.12216817976820613, 0.11974387321605613, 0.1173412551675502, 0.11492479396895762, 0.1125155857403551, 0.11010793601876127, 0.10771623058109658, 0.10531652230303834, 0.10294601816897896, 0.10058530265798443, 0.09823105816876092, 0.0958933258295527, 0.0935786693850506, 0.09126529151184422, 0.08896676594944002, 0.08673739030244536, 0.08446426124333416, 0.08216436268035691, 0.07993812946179342, 0.0777303190396585, 0.07554389514038744, 0.07337511940693912, 0.07125084702959383, 0.0691218066611137, 0.06701657449407296, 0.06492714229087852, 0.06287226227673486, 0.06082526792374708, 0.058823185886354094, 0.05684641041415398, 0.05496415304096939, 0.05303159248118411, 0.05109616010805029, 0.04923076885450654, 0.047395124040588876, 0.045718062817728, 0.04392715786480035, 0.04208269153241722, 0.04037970569132981, 0.03870899971110744, 0.0371094957502613, 0.03549973997659812, 0.03392782592629011, 0.03238931494663195, 0.030886880458017955, 0.02950196258764667, 0.028061893498448842, 0.026658720266989042, 0.025301103483132407, 0.023983640298365465, 0.022740328309441515, 0.021498228344405994, 0.020366161261651566, 0.019198241776950516, 0.018075163901918295, 0.017000468451049862, 0.015964445599757154, 0.014920313468504564, 0.013976797405044159, 0.013072832428592399, 0.012298393398143244, 0.011462584528374791, 0.010686778012013743, 0.009938571611179654, 0.009235201230594218, 0.008591127410801203, 0.007974079248306004, 0.00738001375062353, 0.006853998402935428, 0.006370384788677224, 0.005944022447921027, 0.005542973120959958, 0.0052469000140468085, 0.004923710234797111, 0.004646605022217295, 0.004468426015511176, 0.004274899047049304, 0.004115937870589678, 0.004017970190137613, 0.003965056494113272, 0.004057164511211341, 0.004080004508909579, 0.004139185023891437, 0.004260789684573853, 0.0044285733361141884, 0.004648112893755578, 0.004905018407558194, 0.005278947594061406, 0.005614608468693542, 0.0059974382584835825, 0.006409230540062144, 0.006885404237749331, 0.00743694749604184, 0.007995002296777525, 0.0085969500745502, 0.009301921667437658, 0.009981872382855039, 0.010679209735386072, 0.011452031882299426, 0.012266531496880709, 0.013141359212076644, 0.014035034197530978, 0.01502758476299162, 0.015995592215991915, 0.017006805101180942, 0.01804742153071362, 0.01914386390608027, 0.020389265029862793, 0.021551040827298903, 0.022757650589965126, 0.023984183968294406, 0.025279444196124892, 0.026625201670510194, 0.0279979201534364, 0.029409534806217354, 0.03081867440359143, 0.032311106092770235, 0.033859564140232584, 0.03541834899192774, 0.03701254989108046, 0.038648209401864496, 0.040311330023417254, 0.042069062647202615, 0.04379367776065791, 0.04555565581316116, 0.047358461879326595, 0.04919225913741266, 0.05109137985803363, 0.05299149283724348, 0.05492741788840275, 0.05689195202771771, 0.0588980290627004, 0.0609566655383961, 0.06302638734958609, 0.06512946998350135, 0.0672118308996926, 0.06938663507623044, 0.07166500839130652, 0.0738877195528783, 0.07614326035488797, 0.07839460652040264, 0.08071848642028019, 0.08304568452561631, 0.08543058245508588, 0.08784263072611, 0.09030323865272756, 0.09276691833774224, 0.09528675403375425, 0.09780340530907651, 0.10034955522197926, 0.10289697648248537, 0.10550441541856599, 0.10816216163923813, 0.11082007571342477, 0.1135058761796834, 0.11620215219328166, 0.11894501657163381, 0.12175461916413051, 0.12454443621548322, 0.12736243060258434, 0.13012261338378853, 0.1330065456322536, 0.13594906147190292, 0.13887320975131956, 0.14183087166225758, 0.14480383391191876, 0.14780218935889092, 0.1508044473087898, 0.15385599833812239, 0.15692075959231713, 0.16002155911213395, 0.16314581705787334, 0.16628297755957658, 0.1694559001487252, 0.17263919838712521, 0.1758603283821701, 0.17910425091698645, 0.1823647675054602, 0.18565571021854235, 0.18899103868614117, 0.19232545075552182, 0.19568439849056002, 0.1990186425713904, 0.20243276113680014, 0.20589206384302405, 0.20934687312938807, 0.2128253250848831, 0.2163766987010068, 0.21989644251266882, 0.2233187263077932, 0.226907022015418, 0.23051430556896318, 0.23417766885553531, 0.23782042354446017, 0.24151180039222883, 0.2451974107863682, 0.24890777742373432, 0.2526000557807052, 0.25636516021668054, 0.26013747163578727, 0.2639491254806982, 0.2677826717133727, 0.2716127849460447, 0.2754943472863522, 0.2793994008493066, 0.2833238254550631, 0.28727052143411375, 0.2912847115348871, 0.2952711325621828, 0.2992831250536594, 0.30332051232014, 0.30738313169138026, 0.311423773659449, 0.31554237053779965, 0.3196852837665609, 0.3238482264566384, 0.32803395210965397, 0.3322554677682929, 0.33648562541768434, 0.34069907769144814, 0.34498223939850736, 0.3492870302056818, 0.3536223069163362, 0.35797012731055167, 0.3622873410597159, 0.36668776358630106, 0.3711082266121342, 0.37558129221179665, 0.3800391299162944, 0.38446867484819325, 0.3889791021312304, 0.3935096838182993, 0.3980821823008259, 0.4026514101493509, 0.4072343399369348, 0.4118491674037004, 0.4164857424236052, 0.4211761583585449, 0.42585215703875834, 0.4304895875523038, 0.43522001104547814, 0.4399697245853237, 0.4446854084022089, 0.44948087621235594, 0.45429507071193637, 0.45912386672875294, 0.4639701183131921, 0.4688618508785543, 0.4737400699527896, 0.47857355307359956, 0.48349853518053104, 0.4884388721512867, 0.4934482711785883, 0.4984131555988575, 0.5033369274667637, 0.5083465002323311, 0.5133705821905795, 0.5184198734103646, 0.5234715628687192, 0.5285424429651341, 0.5336231368549794, 0.5387183803955912, 0.5438341932827028, 0.548956500002606, 0.554075317684642, 0.5592264978805398, 0.564389247904802, 0.5694989595147143, 0.5746916225778923, 0.5798865710347527, 0.5850928891885423, 0.5903054142101157, 0.5955004642299363, 0.6007278426345072, 0.6059765324882684, 0.6112099637933854, 0.6164481088622136, 0.6217225762508022, 0.6269646071793092, 0.6321752049603434, 0.6374308196696216, 0.6426875647367779, 0.6479747898190401, 0.65322817425402, 0.6584482286384845, 0.6637067768149764, 0.6689623886766707, 0.6741673202482769, 0.6794209203061182, 0.6846432526148278, 0.6898839437834856, 0.695114684080273, 0.7003629176020972, 0.7055690620413876, 0.7107462222397777, 0.7159345135730644, 0.7211103111466719, 0.7262964083747518, 0.7314419850599041, 0.7365697593814123, 0.7416877706785369, 0.7467898896436127, 0.7518729305728322, 0.7569403814949268, 0.7618923806172225, 0.7669325485474972, 0.771945972844893, 0.7769772557161301, 0.7819304508765911, 0.7867939861019493, 0.7917033514140597, 0.7965816567237375, 0.8014604722180597, 0.8062709620639114, 0.8110461047253529, 0.8157939798883698, 0.8205084782124363, 0.8251457736024757, 0.8297957650146355, 0.8344302912526073, 0.8389985398783536, 0.8435274973363639, 0.8480203590017795, 0.852466920154155, 0.8569031978392204, 0.8612597821725564, 0.8655734264248177, 0.8697442760117182, 0.8739801371440593, 0.8781803547145464, 0.8823079473459239, 0.8863824834828974, 0.890430898002206, 0.89439314307737, 0.8982968729042866, 0.9021499772593221, 0.9059461902972176, 0.909624447667851, 0.9133109404823434, 0.916963617762772, 0.9205181132099678, 0.9240091001148361, 0.9274184355985623, 0.9307814664757755, 0.9340876002552336, 0.9373131741266907, 0.9404698959645492, 0.9435203588076466, 0.9465408447777545, 0.9495429227003072, 0.9524075787697139, 0.9551998015562888, 0.957933310701087, 0.9605750462698291, 0.9631158604835715, 0.9656090634356804, 0.9680230734460094, 0.9703141332831602, 0.9725722570963162, 0.9747715812091183, 0.976856943427025, 0.9788580965694, 0.9807485439418765, 0.9825820523242976, 0.9843189057483173, 0.9859767142424973, 0.9875447642681072, 0.9890503306318362, 0.9904337358316354, 0.9916930859188501, 0.992900377768983, 0.9939865750931317, 0.9950103574144671, 0.995938380343353, 0.9968324380047687, 0.9975603532718234, 0.9981331624490429, 0.9986819723844156, 0.9991326716045124, 0.9995107232408962, 0.9997613232926399, 0.9999488221499808, 1.0, 0.999954913044608, 0.9998300071866667, 0.9995882874592893, 0.9991938269051006, 0.9987642610254396, 0.9982332624493683, 0.997564423157103, 0.9968350347638579, 0.996096189706678, 0.9951480295040481, 0.9941021168075271, 0.9928766547829543, 0.9916440629379907, 0.9903549264611848, 0.9889095528773119, 0.9873639599306655, 0.9856774868357385, 0.9839365836261136, 0.9821467344080423, 0.9801946617306563, 0.9781440449228198, 0.9759478379370036, 0.9737061848398845, 0.9713806791160919, 0.968935497185189, 0.9663914474955906, 0.9637404165771105, 0.9610010699111425, 0.9581509540355596, 0.9552179577643356, 0.952187521134086, 0.9490967511203994, 0.9458690735369755, 0.9425375608500034, 0.9391254429032945, 0.9356206106174397, 0.9319617054964916, 0.9282813503287117, 0.9245261877997236, 0.9206565639942177, 0.9166965025263033, 0.9126599193372665, 0.9085206071197613, 0.9043162245325811, 0.900002280517367, 0.8956050894555209, 0.891072044459096, 0.8865177771016538, 0.8818735898119541, 0.8771545600194869, 0.8723545177540046, 0.8675112889631853, 0.8625489965790395, 0.8574799989847227, 0.8523736701144946, 0.8471932449135035, 0.8420129227739973, 0.8366795217486171, 0.8312142112871896, 0.8257588945856095, 0.8202361293347571, 0.8146731667173974, 0.8090170081230993, 0.8033145718036055, 0.7975354065873435, 0.791698641857071, 0.7857371601849684, 0.7797978959654407, 0.7738398259076223, 0.7677830844363477, 0.7616751827606054, 0.755554127460938, 0.7493442494080575, 0.7430731119497758, 0.7367784998156977, 0.7304416228901702, 0.7240469997006994, 0.7176326767674396, 0.7111394565168715, 0.704655604829106, 0.6981349049884022, 0.6916351493414955, 0.6850402130383174, 0.6783794689592823, 0.6717364232784141, 0.6650672035455006, 0.6583267463843178, 0.6516171040255555, 0.6449722975669245, 0.6382081697791838, 0.6314307137953373, 0.6246393140109618, 0.6178400836954632, 0.6109722005444557, 0.6041646782880545, 0.5973483676712389, 0.5905532618441136, 0.5837223752085611, 0.5768350874132281, 0.5700115176444939, 0.5631877483719373, 0.5564024396650044, 0.5495805010774387, 0.542741448481976, 0.5359417047798115, 0.5291527441230847, 0.522402261161726, 0.5156376623336127, 0.5088933986856112, 0.5021666410137515, 0.4954616347237622, 0.4887244575997426, 0.4820750645826646, 0.47552210106734727, 0.4689130409964685, 0.46233595605173744, 0.455798686831333, 0.44928902973737017, 0.4427283286123375, 0.43630449510285474, 0.42991524839969314, 0.42360337987786645, 0.417284534756286, 0.41103016136751097, 0.40479637281930986, 0.3986100404450703, 0.39244259651068053, 0.3863590986315966, 0.38031480892448055, 0.37433407615589637, 0.3684058191714072, 0.36257015666660786, 0.35674678116481745, 0.3509913043222907, 0.34528670119283383, 0.33964425612636384, 0.33399874852421235, 0.3284922770026354, 0.3230945720107544, 0.31770717888800715, 0.31238728955342404, 0.3071359962450353, 0.3019543714815367, 0.2968092414086118, 0.2917744134159274, 0.28681041986583583, 0.28189712634801184, 0.27708121591314, 0.27240912194917616, 0.2677319961526545, 0.26313449760338664, 0.2585594158102162, 0.2541301122542742, 0.24975316710581283, 0.24548417279387386, 0.24129371861608975, 0.23720428450631692, 0.23317138847851226, 0.22925119814965284, 0.2253807098343391, 0.2215959650818323, 0.21784810305305569, 0.2142420632620349, 0.21077986172501656, 0.20733481444804797, 0.20397835742495787, 0.20067204618234116, 0.19749781120075324, 0.19439519437244598, 0.19139638418321528, 0.18848397104269796, 0.1856048466019017, 0.18287303261387086, 0.1802875685496855, 0.1777171622721874, 0.17523568180339283, 0.17286870637537974, 0.17056153036333913, 0.16828232127061604, 0.16616259691632004, 0.16412860016719677, 0.162182561054568, 0.16031994907991023, 0.15852185229536586, 0.1568336239974156, 0.1552297756038695, 0.15375301155500623, 0.15231220688058109, 0.1509063926193386, 0.14964410298049383, 0.14849178312516015, 0.1473900405672254, 0.14637142789220137, 0.14542034850699279, 0.14456798441181518, 0.14383230027741745, 0.14313536406722963, 0.14251952673561433, 0.1419346003524625, 0.14148420836888692, 0.14110488916347216, 0.14080512359179112, 0.1405791766656153, 0.14050121941579724, 0.14041129654347487, 0.14034152187479007, 0.14040870302090278, 0.14054564210270096, 0.14075993806441336, 0.14103240349870821, 0.14139993834852332, 0.1418022831234763, 0.14227117347383486, 0.1427881029510181, 0.1433880740148084, 0.14405374655569636, 0.1447747825336451, 0.14555498482604345, 0.14640160373444888, 0.14729512784983262, 0.14819728769557125, 0.14920674513304574, 0.1502664381425353, 0.1513817475553886, 0.1525379396794379, 0.15370510359226008, 0.15495933539712756, 0.156256367353618, 0.15761230845732638, 0.15898970086911768, 0.16039054065330177, 0.16184989752277495, 0.16334618370518084, 0.16490382618713756, 0.16646695662229738, 0.16808171977341657, 0.1697101630175731, 0.1713709547611048, 0.17310088897972944, 0.17481639520557138, 0.17652282124966442, 0.1783000647065522, 0.18010066592987198, 0.18191021950932001, 0.18375445061966827, 0.1855802550297833, 0.18746350500240974, 0.18935973491786037, 0.19127632439566145, 0.19319386089913781, 0.19505703574776997, 0.19700095258513625, 0.19894834886339047, 0.20092615751000384, 0.20287429379375113, 0.20486526430498755, 0.2068113409010583, 0.2087592573657735, 0.21068808673223063, 0.21263711602639307, 0.21457125706733604, 0.21651180537692497, 0.21844466996487988, 0.22042411645695772, 0.22233052733689138, 0.22419195460072652, 0.22608392734031724, 0.22796170476268598, 0.2298495670985679, 0.2316915592378735, 0.23353165641909032, 0.23533647713779485, 0.23712223246759898, 0.23891943542785626, 0.2406583397431547, 0.24233692242766955, 0.2440353882032636, 0.24570661374095534, 0.2472852197670641, 0.24890648943816615, 0.250521197243327, 0.25206961028608027, 0.25358397732348814, 0.2550313229302238, 0.25647899072427605, 0.25794805085379263, 0.25931052688257056, 0.26063661042394304, 0.26194441749915326, 0.2631919217106828, 0.264351647086201, 0.2655270578343466, 0.2666588804625318, 0.267789257750725, 0.26882658471879217, 0.26982082974522814, 0.270771036315651, 0.2716763033215105, 0.272463053556396, 0.27328514260082015, 0.27405795358860174, 0.27477681891943323, 0.2754441210906841, 0.2760896203824412, 0.2766494336242743, 0.2771994046112823, 0.27765264884481955, 0.27805679521955023, 0.27841538951502376, 0.2787186708122651, 0.27895826534367074, 0.2791608940057305, 0.27931087149937944, 0.27941854865014015, 0.2794608819186186, 0.2793967843837523, 0.27933966923068376, 0.2792260443426288, 0.27911389079714044, 0.27888061418201526, 0.2785305557534758, 0.27819992402824756, 0.27781263996200534, 0.27743325693150783, 0.2769256862527348, 0.27629772829962224, 0.2756947829170253, 0.27503580970001545, 0.27435555031529446, 0.27358173094348504, 0.2727317910461987, 0.2718559812175154, 0.2709267234859958, 0.26990598221187156, 0.26887610769066717, 0.26777065983954784, 0.26663592788152546, 0.2654473915707306, 0.2642573143731608, 0.2629574155504702, 0.2616584581343248, 0.2602562378759797, 0.25880937930178854, 0.25724950919815465, 0.2557223389657272, 0.25418565268181464, 0.25255842025895053, 0.25088701444679123, 0.24918907570377613, 0.24742878054602102, 0.24562696731081624, 0.24378413431527549, 0.24190082957008321, 0.23994128299203266, 0.23798345891093722, 0.2360000056996719, 0.23396009069463194, 0.23188242761432187, 0.2297978498723336, 0.22764357886671782, 0.22543669487779294, 0.22321882750392316, 0.2209679464603937, 0.21871920865579336, 0.21640078587307018, 0.21401561514845127, 0.2116462798126468, 0.2092480040935486, 0.20681548171226719, 0.20436347161780122, 0.20185769191814212, 0.19935844320592386, 0.19683400434119275, 0.1943199835307643, 0.19174495397121208, 0.18914001660125848, 0.18652893664382975, 0.18390009911127667, 0.18124607643783402, 0.178586190024852, 0.17594995010709005, 0.17325667342779508, 0.17055307457047805, 0.1678100692066039, 0.16509223049728386, 0.1623650626113, 0.15962974789700124, 0.15688745915727204, 0.15411796901182356, 0.15136791807797162, 0.1486067383550914, 0.14584938382762527, 0.14308954343060598, 0.1403477699613033, 0.1375843939898631, 0.13483625423199422, 0.13207711372134237, 0.12936384038453969, 0.1266109476197978, 0.1238674406402387, 0.12109329703812702, 0.11837560405395318, 0.11570336480067041, 0.11300031302065398, 0.11031050012745894, 0.1075961660764124, 0.1049399531082984, 0.10231850575107991, 0.09968744951093376, 0.09707316646259408, 0.0944722676239758, 0.09189473638686559, 0.08938345508487218, 0.08683926405125227, 0.08431871333442548, 0.08183086798946052, 0.07935807643676733, 0.07688963810423156, 0.07447156651189071, 0.07207912100655366, 0.06973016466254675, 0.06738905612509402, 0.06510244417646163, 0.06281634414011253, 0.0605617188922212, 0.05833255819216469, 0.05614294316943201, 0.05407558506933537, 0.05193997001847749, 0.049842877754892566, 0.04773065051035694, 0.04571691465509907, 0.043802593224148506, 0.04185171676572742, 0.03994066910185772, 0.038056598779933185, 0.036226844249803686, 0.03447269353824917, 0.032717070382886924, 0.031003254187781593, 0.029395421818906687, 0.02775717018722363, 0.026143095638826084, 0.024598304141836592, 0.023097212732319742, 0.02166973458002914, 0.020252203348569156, 0.01895067828766588, 0.01761490233456374, 0.016328256653092933, 0.015130769027437803, 0.01393551106527538, 0.012751633458512124, 0.01166036022509913, 0.010615619430965059, 0.009685729713643646, 0.008725048869781305, 0.007829449515292934, 0.006966523615287867, 0.006153502920377923, 0.005434792137249748, 0.00471443716589976, 0.004087980004907154, 0.0034637868380851347, 0.002891884720262228, 0.002388561005918507, 0.0019167155927223283, 0.0015473118499337972, 0.0011705199201814203, 0.0008464786912934938, 0.0005721437573609516, 0.00035127691723915076, 0.00019563857196691078, 7.281129273150237e-05, 0.0, 3.226211634608627e-05, 5.0843283003498377e-05, 0.0001339161497375317, 0.0002533599122762769, 0.00042361960654712267, 0.0006503604353951523, 0.0009192692844885534, 0.0012908181102615909, 0.0016507084019710464, 0.0020616571833528977, 0.0024970935037361168, 0.0030107949065460286, 0.003618743561887648, 0.004220425601733457, 0.004871084782153575, 0.0055528528682521824, 0.006301434438863812, 0.007106665005876636, 0.007945368364953935, 0.008829787108163397, 0.009770147654084694, 0.010743266145603782, 0.011778485735665808, 0.012838932573858895, 0.013944383996555001, 0.01512635024599468, 0.016316059889631092, 0.017636507515897418, 0.01890500207935362, 0.020222034669441797, 0.021543489583055395, 0.022959131235123557, 0.024449357938342173, 0.025945287806224668, 0.027484258297947133, 0.02907186226405938, 0.03069369599347393, 0.032307450067365906, 0.03401704353841329, 0.03576364747483471, 0.0376133656787716, 0.0394249730325293, 0.04125099049181597, 0.04314523112881276, 0.04507662534806915, 0.04708535746940822, 0.04908456384342152, 0.05114969145786285, 0.053220872075327094, 0.05533030713961791, 0.05744505064559933, 0.059632542035570044, 0.06183485790501355, 0.06409252179043114, 0.0663823708394438, 0.06877049044968578, 0.07111564125176019, 0.07347461276295013, 0.07589211622491834, 0.07834214202678427, 0.08079639560711757, 0.08331355110845573, 0.08585815204134074, 0.08843456063540937, 0.09104005357338855, 0.09368300398853481, 0.0963450259973048, 0.09907882117199063, 0.10179314340240489, 0.10453831442011387, 0.10724527267925932, 0.11005900939436714, 0.11291088867001205, 0.11577368340289483, 0.11866260207923751, 0.12157754225500425, 0.12451838740168913, 0.12742511421197456, 0.13042494464778076, 0.13344690096120412, 0.13657045385010516, 0.13962756247582522, 0.1425965107535383, 0.14572243549233974, 0.14886828127678725, 0.15207946984876605, 0.15526089350936845, 0.15844461843075347, 0.16167603591933033, 0.16492973813869266, 0.16825497014333102, 0.1715471268703948, 0.17478094982534328, 0.17813340090587573, 0.18150541923254726, 0.1848972951264071, 0.18830926068513443, 0.19174149646470945, 0.19519413757745346, 0.1986672792470341, 0.20218665094379218, 0.20569769939533208, 0.20926500957063127, 0.21281557952428587, 0.21638966603429102, 0.2199568377027268, 0.2235803333224044, 0.22716016289161522, 0.23083265887901494, 0.23452181014927684, 0.23823656903088228, 0.24195907669694675, 0.24569759424647344, 0.24945683526747955, 0.2532344008695226, 0.25705821684904073, 0.26086923999116346, 0.264670471587548, 0.2685254105512724, 0.2723984689103207, 0.2763025563161272, 0.280210434077623, 0.28410308799086115, 0.2880532093389495, 0.2920031225769851, 0.2959894004840619, 0.29999195426867303, 0.3039725337004621, 0.30801322139231585, 0.3121221276086564, 0.3161859747337339, 0.32026836918200924, 0.3243392359844181, 0.32846212354093546, 0.3326228719942894, 0.3367760960351258, 0.3409471599620884, 0.3450375326747985, 0.3492563125325246, 0.3534827160794228, 0.35772648262242146, 0.36198309220788777, 0.36625944265366206, 0.37054228021209284, 0.3748737314033553, 0.37918120700586994, 0.3835053111018653, 0.38783515126352486, 0.39219326058636594, 0.396549656684851, 0.4009405823876186, 0.40534563459530765, 0.4097412363060776, 0.4141773416943181, 0.4186024838004982, 0.42306674723041376, 0.4275423070565155, 0.43200363935170505, 0.43650540866455473, 0.44103225619268144, 0.4455525177231941, 0.4500840030784406, 0.4545988197495068, 0.45915596999224007, 0.46372453682052106, 0.46829998618121865, 0.472884800336938, 0.4774296595369504, 0.4820390125091011, 0.48669296777722376, 0.49130979065063674, 0.4959350687494063, 0.5005706089327528, 0.5052114984491209, 0.5098256483916036, 0.5144854000811341, 0.5191498211438016, 0.5238529330111166, 0.5285217010292319, 0.533121426219399, 0.5378106873000682, 0.5425003191172862, 0.5471881491607471, 0.551878612163435, 0.5565497395994699, 0.5612422325001298, 0.565933025027109, 0.5706903661736893, 0.5753684271204746, 0.5800114536413172, 0.5846958272765738, 0.5893776151851942, 0.5940711673202443, 0.5987439955601795, 0.6034045809734075, 0.6080703076995165, 0.6127302431965664, 0.6173750818907517, 0.622022256597508, 0.6266095372699086, 0.631245374810483, 0.6358683231399196, 0.6404673453187982, 0.6450647745467807, 0.6496710204167592, 0.6542356047110263, 0.6587858472814543, 0.66329532750196, 0.6678178491887955, 0.6722602180767621, 0.6767537213535199, 0.6812243301153876, 0.6857402799469547, 0.6901556986105516, 0.6945083442448728, 0.698888149797609, 0.7032434777106755, 0.7076014291787076, 0.7119021180662676, 0.7161091821408957, 0.7203671198276569, 0.7245939198456286, 0.7287633934757017, 0.7329295314660299, 0.7370934063842968, 0.741186277575252, 0.7452454995434157, 0.749291545866027, 0.7532779825748028, 0.7572098796253875, 0.7611270054188763, 0.7650054256451846, 0.7688740764642216, 0.7726682497488947, 0.7763453116118829, 0.7800677192314713, 0.7837431336807226, 0.7873751975293273, 0.790954119079028, 0.7944927671799837, 0.797972120049337, 0.8014014324610297, 0.804773323113027, 0.8081004550150456, 0.8113870753071765, 0.8146049323724187, 0.8177682273866305, 0.8208929799970061, 0.8239417102561554, 0.8268758120830678, 0.8298168779019316, 0.8326954104948848, 0.8355042803965516, 0.8382563847614137, 0.8409626063504401, 0.8435812520162282, 0.84613430374208, 0.8485887117307811, 0.8510117408672485, 0.8533559271192108, 0.8556387617402419, 0.8578493953161472, 0.8600513151753807, 0.8621073500530153, 0.8640306197143409, 0.8659517661281491, 0.8677962126755473, 0.8695782606421634, 0.8712653805727729, 0.8728531868836082, 0.8743863343253788, 0.875838704240468, 0.8772417426167999, 0.8785265703468669, 0.8797155022349411, 0.8808394625399272, 0.8818798600637383, 0.882797459163921, 0.8836734192379253, 0.8845064296018559, 0.8852005979315664, 0.8858086554839096, 0.88628491550546, 0.8867241675635416, 0.887089704866334, 0.8873448346889559, 0.8875094781762513, 0.8876238169302065, 0.8876009788931949, 0.8874992885474711, 0.8872952592825747, 0.8870008541307173, 0.8865832717633083, 0.8861100906823274, 0.8855342203887483, 0.884873580772057, 0.8841178017314577, 0.8832367765420602, 0.8822940418791743, 0.8812540558729002, 0.880116949517113, 0.8788828429009685, 0.8775368755362508, 0.8761109975931615, 0.8746624797860715, 0.8730323536362967, 0.8713093800786913, 0.8694974562960802, 0.8675871781643162, 0.865570533805586, 0.8634746108302509, 0.8612840952310825, 0.8589733489438177, 0.8565970347167347, 0.8541270621302187, 0.8515592593865093, 0.8488965507482121, 0.8461264981385548, 0.843276811911105, 0.8403434513730575, 0.8373042415658541, 0.8341724101071706, 0.8309270730415109, 0.8276142490894784, 0.824243426082282, 0.8207425827401316, 0.8171379813655381, 0.8134619576258562, 0.8096973438547578, 0.8058555382614612, 0.8019145272323733, 0.7978812980725284, 0.7937701945582292, 0.7895743638768693, 0.7852454316774222, 0.780888870779907, 0.7765350868406621, 0.7719988946910542, 0.7673852967787099, 0.7626071594745834, 0.7578516217254113, 0.7530841373060602, 0.7481606383742012, 0.7431635359005748, 0.7380616375939529, 0.7329241196565309, 0.7277311475385386, 0.7224476341688295, 0.7170951312946986, 0.7116085184213472, 0.7061300256487002, 0.7005889054899639, 0.694973326843188, 0.6892926552548805, 0.6835421660734634, 0.6777371765914028, 0.6718888648334563