0.022122725951662685, 0.021919533861426966, 0.02174784700709169, 0.021620830468196305, 0.021522911306708702, 0.021401543623512456, 0.021355548940531925, 0.021315779551727906, 0.0212988173818231, 0.021292155744127482, 0.02128977094100937, 0.021299846428530493, 0.021290120722526947, 0.021315050902036576, 0.021343355797090482, 0.021358520281523, 0.02139518695885246, 0.021434830977925232, 0.021476132689743407, 0.021520287577318067, 0.021573592702610722, 0.021623827229801187, 0.021642828502518616, 0.021706739673565723, 0.0217738763591036, 0.02181900507667348, 0.021898060170008497, 0.02199808326823031, 0.02208365413993878, 0.02217577004563908, 0.022278027483621208, 0.022384712905274613, 0.022441286530856, 0.02257290733070012, 0.022710745789324374, 0.022896545909185127, 0.023044382255896438, 0.023166934294873293, 0.023341894033838684, 0.023526625117488504, 0.023683916122152836, 0.023894808559785666, 0.02415069247842605, 0.024376617279441914, 0.024615404758775928, 0.02486962868425066, 0.02513487584013938, 0.025380684944994257, 0.02567831277314601, 0.025988514504628774, 0.026313268496352897, 0.026649868444087732, 0.026995284734611647, 0.027360924293696562, 0.02774097831313106, 0.028108343052041202, 0.028521719266023957, 0.028954876880564213, 0.02939569368073525, 0.029851644977557056, 0.030286000633628504, 0.0307779908475464, 0.03125734858255546, 0.03178146774968973, 0.032319299127240304, 0.032895291054546895, 0.03345958988743534, 0.03404678371027023, 0.03464457927244472, 0.03526030112762927, 0.035838537153279025, 0.03649784644990367, 0.037172636696508644, 0.03786356342279191, 0.03857122079768744, 0.039346603586586655, 0.04008291409479504, 0.04082691193115074, 0.04160700375951008, 0.042407419783077265, 0.043211242612666734, 0.044054912151203884, 0.04492953084373467, 0.04581172615847849, 0.046714940384085725, 0.04759557565111147, 0.04854690107914669, 0.04954403958418291, 0.050530724050066575, 0.05153903270452168, 0.0525231993924827, 0.05358127532123072, 0.05470285717665481, 0.0557954394168556, 0.05691132271695796, 0.05804321977485174, 0.05920704187664462, 0.06035853332771236, 0.06157362168363965, 0.06281037604929253, 0.06404551814299307, 0.06532995971689066, 0.06666494373708093, 0.06798947547500657, 0.06933825779803746, 0.07068626202636326, 0.07208731380571813, 0.07354735987558769, 0.07499101851877611, 0.07646071959782283, 0.07790377256775854, 0.07943219303301145, 0.0810111306649053, 0.0825826264014629, 0.08417951238715338, 0.08579743514601049, 0.08744594353591954, 0.0891124199201719, 0.09081273040115716, 0.0925381707596238, 0.09426956223153968, 0.09604801665737488, 0.09786636984796308, 0.09969169059832521, 0.10154256917722627, 0.10340862129996006, 0.10531192250513567, 0.10725277296044108, 0.1092043893759912, 0.1111817027438727, 0.1131868292905448, 0.11521491724235096, 0.11725140630720286, 0.11933243226533943, 0.12143765454300036, 0.12356481861767174, 0.12571860578097288, 0.1278666301577375, 0.13007192610844567, 0.13229929707300633, 0.13460228518422754, 0.13686736037332517, 0.1390976233055063, 0.14142042967495524, 0.14376427712459985, 0.14614036201815245, 0.14852503536513847, 0.15092846382610442, 0.1533568009123502, 0.15580635251489514, 0.15827841738254084, 0.16076962883611134, 0.16329486245834987, 0.16582544901851876, 0.16837689433766365, 0.17091910576754457, 0.17351477814940175, 0.1761261676814177, 0.17875782217999306, 0.1814068900307512, 0.18411765793620138, 0.18679519566654734, 0.1894859225194683, 0.1922017857378328, 0.19493511129288815, 0.19766750280145565, 0.20043624818690792, 0.20318929671778807, 0.2059909166331579, 0.2088046993839514, 0.2116593814822914, 0.21449318659178573, 0.21734969967273154, 0.2202078606877073, 0.2230785241209238, 0.22589947169865904, 0.2288010316925385, 0.2317416583753288, 0.2346533819433684, 0.23757374844844095, 0.24051561954301323, 0.24345008387476394, 0.24634195320392202, 0.24929786746212165, 0.252257510511728, 0.255232508494126, 0.2581973195603547, 0.261154508639347, 0.26412725988606217, 0.26710190192441985, 0.27007427980653775, 0.27305180383159333, 0.2760629670877137, 0.2790362625515565, 0.28201063993905384, 0.28498230215605896, 0.287956741415676, 0.2909133146419262, 0.29388595574562243, 0.2968545882934322, 0.29981115507729894, 0.3027707840430674, 0.3057047478434829, 0.30865345684953915, 0.31158382291338144, 0.31451586821746674, 0.3174376640262867, 0.3203902874176534, 0.3232848721833885, 0.32611658940702715, 0.3289981338387041, 0.3318654392804737, 0.33473809251016884, 0.3375730063940781, 0.3404252544832807, 0.3432262764342284, 0.34601307844600376, 0.34877205970646735, 0.35152908170132424, 0.35423935379322535, 0.3569635965394946, 0.3596667846019066, 0.36236764468926375, 0.3650245679954359, 0.36761672746968993, 0.37023485749663065, 0.37282729392966163, 0.37539287282565154, 0.3779327118897926, 0.3804817971266944, 0.38296229949412114, 0.3854166693533332, 0.3877921079299128, 0.3901982163962367, 0.3925764553055875, 0.3949185394215045, 0.3972284220124989, 0.3995545773894297, 0.40179235007955383, 0.4039419752657368, 0.4061239874485811, 0.4082699021330325, 0.4103911601842391, 0.4124620587074742, 0.4145288022696913, 0.41652137115814736, 0.4184777708973432, 0.42037932665340777, 0.4222630694246524, 0.42410713446996035, 0.4259108869633676, 0.4276737011326695, 0.42938308893146987, 0.43106368853044846, 0.43268899294608043, 0.43428375656423507, 0.4358334491766232, 0.4373213518297267, 0.43878177043950944, 0.44018905232752814, 0.4415555323437391, 0.4428738837175892, 0.4441935436882101, 0.44540850602119325, 0.44655795777745344, 0.4476821998948137, 0.44875773795233165, 0.4497952143000486, 0.45077049204742853, 0.4516910862275714, 0.4525675166956979, 0.45339314539447606, 0.4541230265424082, 0.45485142191138117, 0.455522332592563, 0.4561420635153339, 0.4567070744050857, 0.4572299520999023, 0.45768382785446576, 0.45805461852470214, 0.4584036816466135, 0.458696624083123, 0.4589461240417336, 0.4591254010803152, 0.45927684876544866, 0.45934199688033234, 0.45935322035770987, 0.45927830649802254, 0.4591848255827337, 0.45905038664208186, 0.45884190078317993, 0.4585778369944004, 0.4582343695454239, 0.45786192319769015, 0.45743311557183475, 0.4569465318630294, 0.4564032074211115, 0.4558040335996108, 0.4551475824208155, 0.45442672171602855, 0.45365895760082514, 0.4528347952767987, 0.4519529814065487, 0.45101690328960753, 0.4500636241122839, 0.4490113507538811, 0.4479059670078467, 0.44670216515226496, 0.44549618991699236, 0.44424346493767414, 0.4429255058700752, 0.44155328533130245, 0.4401279136715757, 0.4386481891079318, 0.4371287295694129, 0.4355415234630758, 0.43390276465611843, 0.43218456230987884, 0.43044720274920073, 0.42865992470061554, 0.4268186012510059, 0.4249264665911195, 0.4229781662583254, 0.42098690544358597, 0.4189648001208633, 0.4168730435444009, 0.41473420921411014, 0.41258143414248466, 0.41034580677248433, 0.4080434648330137, 0.405723609467146, 0.403359382187206, 0.40094022897673154, 0.398490414689681, 0.3960181727651077, 0.3934800546855311, 0.39090136690660154, 0.3882567199217475, 0.3856019459416225, 0.3828802605729077, 0.3801493363077589, 0.3773784558561603, 0.37456870384135604, 0.3717211384447055, 0.3688538604754046, 0.3659315961087101, 0.3629755246603372, 0.36000652627659024, 0.35698285224047643, 0.35388824109854483, 0.3508101724599282, 0.3477011142891195, 0.3445888574088735, 0.34141766273117574, 0.33819642003970085, 0.3349764355901071, 0.3317304633587354, 0.32845212053934314, 0.3251582116240755, 0.3218817892099843, 0.3185371451942305, 0.3151735954498957, 0.31180001877627783, 0.30839980721081417, 0.304938127293397, 0.30151195974404815, 0.2980685479099934, 0.2946350208872358, 0.29115729654799943, 0.28763752886403565, 0.2841397276518231, 0.2806297052141023, 0.27711604026209796, 0.27358409343018175, 0.2700326292544001, 0.26648635778928476, 0.2629331525311005, 0.2593852602569128, 0.25582011302036806, 0.25223192096905284, 0.24866426156271185, 0.24509441796694423, 0.24152129608207767, 0.2379507377921721, 0.23439381156269992, 0.23082478014641697, 0.22725962458181717, 0.22369112712792488, 0.2201375823789896, 0.2165924982136867, 0.21305213539949944, 0.20952010687482767, 0.20603446184256272, 0.20251725106006055, 0.19902589079990285, 0.19553418168797856, 0.1920576910948033, 0.18859921887236278, 0.1851546393020998, 0.18167750870522686, 0.17827418309987658, 0.1748865420452653, 0.17156538639037644, 0.16820605964649757, 0.16485279286977858, 0.1615393147877003, 0.15824781599661128, 0.15498054066397693, 0.15173509270800897, 0.14850879038164677, 0.14531341989256197, 0.14214951330488368, 0.13900522358123624, 0.13588833431226513, 0.13278990419632147, 0.12973114240721573, 0.1267176561959963, 0.12371549346439475, 0.12074469788530924, 0.11775169403293706, 0.11485224666311364, 0.11201849963885309, 0.10917573036293049, 0.10636700577986598, 0.1036122237970427, 0.10087095039401114, 0.09816063368093814, 0.09549429351734724, 0.09286530929131365, 0.090223671971387, 0.08767710846470318, 0.08516860663048557, 0.08269425594840914, 0.0802574497324928, 0.07789077874187948, 0.07552703195023712, 0.0731911689658127, 0.07091187346381754, 0.06867362421082823, 0.06648495170504905, 0.06432884372922107, 0.062221207022390805, 0.060149649032969536, 0.05812140416802446, 0.05610842905572271, 0.054170822174985984, 0.052261275403560944, 0.050410114609706985, 0.04860097649565026, 0.04684760046936301, 0.04512192026470829, 0.04348379430975869, 0.04184026981040931, 0.040243224979271616, 0.038630806090613846, 0.037133718720223814, 0.03569819126386215, 0.0342834726814619, 0.0329125956112245, 0.031585575376473815, 0.030302400913506635, 0.02909197329515033, 0.02789269828515232, 0.026738712172423997, 0.025588866713403623, 0.0245296080304319, 0.02352570534883848, 0.022548762184043766, 0.02161453654787967, 0.02072729985031502, 0.019877383159632833, 0.01909653943787066, 0.0183276892882897, 0.017602126414725645, 0.016870355947484622, 0.01623599960621022, 0.015689614503997314, 0.015126964803746704, 0.01460581600525484, 0.01412336225780898, 0.01368376792726786, 0.013267516661736417, 0.012908783838599202, 0.012587732308965458, 0.012291347034252845, 0.012046032381165006, 0.011811951968976449, 0.011640823661836046, 0.011503314528291722, 0.011399959251076607, 0.011328923083053706, 0.011341235748289734, 0.011329257073354025, 0.011352264323024159, 0.011380490800152557, 0.011474658911404971, 0.011622754501070018, 0.011775316966648568, 0.01195898061858136, 0.01213958877018398, 0.01238738217126169, 0.012657670863798277, 0.012959441929631471, 0.013286921907712407, 0.01362848107324964, 0.014007257019704102, 0.014458503251053011, 0.01487759515947964, 0.015321919878708819, 0.01576456017542168, 0.016259812285089065, 0.016750089318824542, 0.017289932807534273, 0.017847940905583504, 0.018442913047681204, 0.019033300128296272, 0.01964061582410444, 0.020265697055669177, 0.020906919657748785, 0.021559085900235548, 0.022230911631121255, 0.022908957209147523, 0.02360827757501025, 0.024319368096844318, 0.025066037542791245, 0.025795529776438935, 0.026547230208150262, 0.027296566251924448, 0.028055810582329244, 0.028785417360837316, 0.029566494719696208, 0.030343599093939577, 0.03113508333556956, 0.0319298195844523, 0.03274210487500749, 0.03353981845421089, 0.03432953679560752, 0.03513262819136894, 0.03593608814159671, 0.0367756383885531, 0.03757332373215172, 0.038389296403407935, 0.03918474269679443, 0.039979807588494835, 0.040716332501911444, 0.04151482791878728, 0.04235799208393736, 0.043136521347314605, 0.04391050293336431, 0.04469166604730449, 0.04545234075323092, 0.046188822780161516, 0.04693809662216209, 0.04767826397240525, 0.04838863410693591, 0.04911116890670299, 0.049814137154622865, 0.05051287432939119, 0.051198160001927694, 0.05186441156594219, 0.052522276313362655, 0.05321046954274712, 0.05383237976095369, 0.05444115624297825, 0.05504347448017109, 0.05562285343065886, 0.05619111283970786, 0.05673967578027161, 0.05727228292199875, 0.05778458673385018, 0.058283878502945884, 0.05877485654809827, 0.0592365141775, 0.059679791759966454, 0.060095269053399805, 0.0605013986665989, 0.060879041948941996, 0.06124520978341287, 0.0615899259725005, 0.06196192246421453, 0.06225683724100626, 0.06248413520757028, 0.06274577270494636, 0.0629841763501723, 0.06326157635130325, 0.06344534551879852, 0.06361651984458119, 0.0637587367678843, 0.06388025413701592, 0.06396275089934735, 0.06404364576876857, 0.06415046319863982, 0.06417888000207543, 0.06418665141689515, 0.06418067909051496, 0.06414474510259906, 0.06407760953510332, 0.0639994209287515, 0.06389847722868956, 0.0637798161203341, 0.06363228358287289, 0.06348495658889068, 0.06328885478580563, 0.0630711512666963, 0.0628932565224637, 0.06262409829078443, 0.06235424911320135, 0.062045333319775346, 0.0617180069182576, 0.06138740244519853, 0.061020042709241815, 0.06066823728087326, 0.06025912152976963, 0.05984028523285429, 0.05939556898225372, 0.058933476615362294, 0.05843151847576073, 0.05793689559275523, 0.057467017201231915, 0.0569290072941133, 0.056374897084200785, 0.05583506204988639, 0.05524484991883755, 0.054667800671119954, 0.05404547009229228, 0.05341034770552888, 0.052748962392668096, 0.05208969890134084, 0.051445033033548755, 0.05075527093012604, 0.05005407582913722, 0.04941208235990376, 0.048679621584958414, 0.04792698209123948, 0.0471823443655613, 0.04642981805212457, 0.04567471843009448, 0.04490620784586485, 0.04415964884535021, 0.04337381686238462, 0.042583306479192715, 0.04182690066431661, 0.041022834472569686, 0.04021708605670932, 0.03940975977005346, 0.038601054389939965, 0.03781648029030266, 0.03700275036041633, 0.036200509190462735, 0.03538794728205709, 0.034577704920762266, 0.03378273629951927, 0.032976629727557986, 0.032227455409567035, 0.03142361669873271, 0.03062789869000819, 0.029853773849245598, 0.02907305811857218, 0.028318915476864288, 0.027555332120862697, 0.02680284684146433, 0.02608549643570634, 0.025353166146355036, 0.024628444101381132, 0.023924270415323277, 0.02323402191797657, 0.02259085913669333, 0.021925927341666197, 0.021287353085527545, 0.02065659685189076, 0.02004464952587516, 0.01947867186156592, 0.01890237337948689, 0.01831377307293315, 0.017785842262873455, 0.017278677450388573, 0.016801972756311775, 0.016337600532224158, 0.01591916731588962, 0.015500094404936845, 0.01510747468269054, 0.014744878228700903, 0.014406626617580947, 0.014116179698936488, 0.013833171069498093, 0.01358109064885037, 0.013362702377407993, 0.01317384325822437, 0.013034067068425643, 0.012909265351852021, 0.012819365726229538, 0.012776749875947803, 0.012756713147731595, 0.012829508771300555, 0.012877293893832535, 0.012966396886994537, 0.013087269518142132, 0.013260596404893443, 0.013474468797383747, 0.013730840070638248, 0.014029249101966523, 0.0143812825812998, 0.014763758984333132, 0.015199252403092996, 0.015669267509460887, 0.016184797620067665, 0.016739578458316428, 0.01734824934257085, 0.018008567309828635, 0.018710018161376966, 0.019459280198149905, 0.020308047978920822, 0.021147957694544493, 0.0220215095489027, 0.022968243519857604, 0.023966368130590974, 0.02498802369683427, 0.026093518923326033, 0.027307009893685407, 0.028507609321570485, 0.02976346060522428, 0.03104646749841133, 0.03241671978585594, 0.03385142551378042, 0.03532890926189321, 0.036861859912331346, 0.03844242643359294, 0.040088273858121866, 0.041789314112802435, 0.04354749073836649, 0.045362276523180825, 0.04729040235115484, 0.049212279086488966, 0.05116447551238357, 0.05321151389426923, 0.055317289758878105, 0.05748120804188547, 0.05970498963714961, 0.06201831601993766, 0.06435663431742736, 0.06675604663448403, 0.06921123104403985, 0.07173312273103759, 0.07427986971443018, 0.07692716387913306, 0.07963284876955136, 0.0824327867830774, 0.08525145378102726, 0.0881370763697772, 0.09107688497658561, 0.09407775414063477, 0.09711797365220194, 0.10024311059156887, 0.10340675636085782, 0.10665307392994705, 0.10995745570074815, 0.11335413688239757, 0.11677059906616506, 0.12021902701158213, 0.12375908047888207, 0.12735711702712105, 0.13106425569328498, 0.13477151719218408, 0.13851852479469134, 0.14234886942067915, 0.14623741712719465, 0.15019714289908465, 0.15419925967488388, 0.15821613204768908, 0.16233876170770023, 0.16651575130323926, 0.17074471702242527, 0.1750301915570796, 0.17940491695635302, 0.18379289864430226, 0.18823595507782248, 0.1927223358965291, 0.197275089291308, 0.20188340345544065, 0.20654043764861202, 0.21124915875347333, 0.2159563056210571, 0.22077331013976983, 0.2256840171963625, 0.23058883669672955, 0.2355427939262096, 0.24050142349891393, 0.24555711855215, 0.25065295358155054, 0.25579803388900146, 0.2609866807474849, 0.26621327328672373, 0.2714883796033039, 0.2768083035712904, 0.2821662117981916, 0.28756504788080833, 0.2930034394206327, 0.2984822996065857, 0.30403863823678423, 0.3095896916329517, 0.3151803407143782, 0.3207390156196246, 0.32641453988942665, 0.3321818626379537, 0.33791428639374443, 0.3436814715375171, 0.34942967009156917, 0.3552698467897367, 0.36115646062399737, 0.36705102438828613, 0.3729739292554683, 0.3789376775257522, 0.38491299435038817, 0.39086729232555123, 0.3969005300238837, 0.4029555281992001, 0.40906280568755465, 0.4151554005038645, 0.42123677702506285, 0.427375324966944, 0.4335514311554161, 0.43972171254569375, 0.4459090393495201, 0.4521079437594286, 0.4583268657839505, 0.4645142432256689, 0.4707653115216905, 0.4770255249241471, 0.48329866621297485, 0.48957454450007254, 0.4958250032796685, 0.5021186108588805, 0.5084158699239637, 0.5147591563583618, 0.5210562386242399, 0.5273490722101926, 0.5336538442063692, 0.5399597341445289, 0.5462582198417409, 0.5525639700262557, 0.5588351903125044, 0.565138666190443, 0.5714355977683392, 0.5777407443664152, 0.5840201110178335, 0.5902711943294368, 0.5965355427527985, 0.6027884024900915, 0.6089836013065727, 0.6152164453911098, 0.6214561915908454, 0.6276517310296242, 0.6338304591771231, 0.6399372817312332, 0.6460864218342516, 0.6522492062105001, 0.6583477626281986, 0.6644244552742222, 0.6704204249008096, 0.6764577361252521, 0.6824929003010866, 0.6884701302566699, 0.6944195045527749, 0.7002881843282439, 0.706185688498394, 0.7120674557269908, 0.7178950702955406, 0.723688975345357, 0.7294016087284924, 0.7351315204652739, 0.7408062292163249, 0.7464599192409859, 0.7520726934667175, 0.7576588714413037, 0.7631863106749602, 0.7686622693221224, 0.7741064441672387, 0.7795065856679089, 0.7848225798935806, 0.7901372321596868, 0.7953861314621318, 0.8006050228300676, 0.8057731267867437, 0.8108721277137392, 0.8159393274687309, 0.8209575052399807, 0.8259166813584068, 0.830821554344825, 0.8356751867308774, 0.8404690081445942, 0.8452118901266875, 0.849892026060636, 0.8545147817420706, 0.8590592953394075, 0.8635673373850008, 0.8680002908019421, 0.8723874696976208, 0.8767115246233091, 0.8809659445137941, 0.885162755424006, 0.8892883891297395, 0.893354890262648, 0.8973546468213471, 0.9012366479847806, 0.9051076137102039, 0.9089362360341156, 0.9126608009169608, 0.9163152943194379, 0.9198843634670261, 0.9233990405413135, 0.9267967270142317, 0.9301716746665264, 0.9334708056023039, 0.9366992279857975, 0.9398457586333699, 0.9429119036395961, 0.9459068653808576, 0.9488250878248101, 0.9516425499470976, 0.954409441710554, 0.9571136925296212, 0.9597204531321935, 0.9622488567278199, 0.964655539665263, 0.9670316796044752, 0.9693549862570838, 0.9715639364141889, 0.9736927210032109, 0.9757017196236614, 0.9776742610407049, 0.97956132481893, 0.981367676260437, 0.9830906836909468, 0.984753341516842, 0.9863067084820679, 0.9877764534658071, 0.9891654858020095, 0.9904718177440217, 0.9916841132654682, 0.9928258472430243, 0.9938821976501017, 0.9948562495159909, 0.9957461835938058, 0.9965452775366913, 0.997267694988383, 0.9979069961259107, 0.9984600632071106, 0.9989286944745034, 0.9992810231709554, 0.9995849427749725, 0.999825784862595, 0.9999549669240135, 1.0, 0.9999142498574196, 0.9997972395460406, 0.9996338927709444, 0.9993395337875827, 0.9989620369181561, 0.9984844799702406, 0.9979433131627097, 0.9973370842620054, 0.9966266835927191, 0.9958343839356408, 0.9949084375397647, 0.9939595042053055, 0.9929174972320081, 0.9918020282914878, 0.9906032169109003, 0.9893544061313365, 0.9879868398518505, 0.9865486713637226, 0.9850213268873224, 0.9834157119109, 0.9817262121618224, 0.9799657977356493, 0.9781018529785588, 0.976190046330228, 0.9742001316153576, 0.9721135084442132, 0.9699718826618963, 0.9677687005238168, 0.9654716584486662, 0.9630999921802555, 0.9606521432252445, 0.9581335144864661, 0.9555287910051913, 0.9528670687605189, 0.950133253440656, 0.9473556105705505, 0.9444765671127368, 0.9414789335829606, 0.9384705760262118, 0.9353924313280804, 0.932251468984239, 0.9290360741864314, 0.9257779953180711, 0.9224276623570141, 0.9190140632446155, 0.9155015527134496, 0.9119681730160932, 0.9084021000647666, 0.9047397040157973, 0.9010180006547576, 0.8972548363095774, 0.8934147202650605, 0.889505293545858, 0.8855556515411037, 0.8815507289225558, 0.8774520675752258, 0.8733441729356076, 0.8691747605835627, 0.8649592588626933, 0.8606909735900237, 0.8563985924703329, 0.852024945824626, 0.8475836512045172, 0.8431182544188225, 0.8386060206811846, 0.8340562393053575, 0.8294526722594069, 0.8248068228240616, 0.820118150409435, 0.8154026702504605, 0.8106314418562459, 0.8058221784576998, 0.8009231321377231, 0.7960472772450501, 0.791146639952192, 0.7861942282215314, 0.7812072062570447, 0.7761638015146688, 0.77111413729873, 0.7660707931086035, 0.7609530927745617, 0.7558079974791113, 0.7506261127993022, 0.7454305321526886, 0.7401906944362395, 0.7349487297413898, 0.7296829306392727, 0.7243849110494648, 0.7190764214847958, 0.7137591478885997, 0.7084091275965292, 0.703041657059022, 0.6976319066015949, 0.6922362302967318, 0.6868517533273572, 0.6814230015988539, 0.6759828571733836, 0.6704974971745629, 0.6650421281710283, 0.6596099505116773, 0.6541312948665123, 0.6486469421149783, 0.6431512102136978, 0.6376592993720128, 0.6321576385218477, 0.6266614881216956, 0.6211640072050947, 0.6156277177357264, 0.6101357584518745, 0.6046918146403407, 0.5991947134022546, 0.5937028233950533, 0.5882125959741789, 0.582734408880575, 0.5772253316354261, 0.5717683672887618, 0.5663188464294235, 0.5609002948867455, 0.5554666048604002, 0.5500067046281112, 0.5446036136171581, 0.5392126693723752, 0.533892269487111, 0.5285221410788778, 0.523127242245298, 0.5178013344310913, 0.5124933398547611, 0.5072369654717461, 0.5019638187117503, 0.4966749259931055, 0.49145304588256006, 0.48625327310638244, 0.481101131138859, 0.47594555708340136, 0.47076824964065944, 0.4656725102580397, 0.4606020467911758, 0.45560843884187135, 0.4505854682942642, 0.44554485204733413, 0.4405912945026768, 0.4356674628517953, 0.4307951104655019, 0.42593099241992616, 0.4211198602060522, 0.4163213772875103, 0.4115590277128681, 0.4067784050166123, 0.4020967700632762, 0.39745860333852, 0.3928459210240862, 0.38827014675435023, 0.38376544140365887, 0.3792615375241265, 0.37479787475020543, 0.37037642540601345, 0.3659967080925872, 0.36165541500572984, 0.3573608352643478, 0.35310823678538944, 0.34889962011654574, 0.3447345217020775, 0.34059480225591043, 0.3365203059104933, 0.3324583213487315, 0.32847564080690084, 0.32453590608416294, 0.3206405744284508, 0.3167887239593856, 0.3129758969663784, 0.30921525916559023, 0.3055002873979044, 0.30182480397019057, 0.29820346218756055, 0.2946695838846263, 0.2911368136063283, 0.28765378894428983, 0.2842331327583316, 0.28084803423458726, 0.27748671101081, 0.27420587435229204, 0.27097385850891037, 0.2677640975813087, 0.2646335172759668, 0.2615966387359672, 0.25855594104814644, 0.2555660824188214, 0.252580162933499, 0.24969743487204557, 0.24690180121639976, 0.24410987468903497, 0.24136834990829087, 0.23867557503082798, 0.236034537782795, 0.23338840721714113, 0.23085377964096748, 0.22836555938523048, 0.22596111601191832, 0.2235617691066089, 0.22117370151616447, 0.21887718154141203, 0.21662724922871932, 0.21442769651941002, 0.21227066709992284, 0.21018427867625614, 0.20811795710818948, 0.20609966024074583, 0.2040919449147795, 0.2021733496538169, 0.20030409649875175, 0.19847465187227825, 0.19669016915210805, 0.1949601061720412, 0.19326373047834133, 0.191610712839773, 0.1900038508569972, 0.18844101497302093, 0.18691960078519657, 0.18544394694205033, 0.1840199149823927, 0.18262816509163532, 0.1812788044862857, 0.17996761489567548, 0.17870197198439378, 0.1774702924498489, 0.17628628293571844, 0.1751415442938601, 0.17405416927471593, 0.17298424168993393, 0.17196211617033524, 0.17096821223356526, 0.17001241872917372, 0.16907696354350976, 0.1681974427473799, 0.16731292661671968, 0.1665080812768139, 0.16573498198771744, 0.1650186270975211, 0.16430509488158315, 0.16361499385559022, 0.16296669426842783, 0.16234909266741163, 0.16179135583394366, 0.1612298417141864, 0.1606909391524817, 0.16019120348148513, 0.15972019877632046, 0.1592512516965443, 0.15883888584785968, 0.15845021234243922, 0.15808790492253885, 0.15774970445974615, 0.15744474419680032, 0.15715198065478497, 0.15687262478760372, 0.15662654444157334, 0.15640168498943582, 0.15623086160846958, 0.15604248709133475, 0.1558331550582908, 0.1556919229632927, 0.15556792503241146, 0.1554881257189301, 0.1553936366689925, 0.15530600626119298, 0.15524655705564075, 0.15520225126599688, 0.15515536515120593, 0.15514153064402872, 0.15511690918015353, 0.15512989494605275, 0.1551594328042044, 0.15519096204245786, 0.15523198468638014, 0.15528053777441453, 0.1553392777998202, 0.1554541625603185, 0.15552211690676582, 0.15559964166499834, 0.15564573760927, 0.15574471171570192, 0.1558921017093787, 0.15599431610383585, 0.15610261292496852, 0.1562087023549547, 0.15632753045489897, 0.15641762098148335, 0.1565461145700112, 0.15667459999704084, 0.15678857611901473, 0.15691760562733506, 0.15708836919003943, 0.15720745771051586, 0.15732630011511167, 0.15740486171260795, 0.15752608439707882, 0.15764726185775188, 0.15775861484293677, 0.15786507992950327, 0.15794847247186386, 0.15804627580347289, 0.15814297879512357, 0.1582257104653882, 0.1583012218631723, 0.15839366558910603, 0.15845063384446278, 0.1585207690036965, 0.15856092325675794, 0.1585942620405093, 0.15856595512231444, 0.15859055577546266, 0.1586598142038152, 0.1586537018143551, 0.1586387662101102, 0.15858471891625625, 0.15855410348822785, 0.15851129276881237, 0.1584560315335174, 0.15838806828405666, 0.1582863802869032, 0.15819490330089836, 0.15813557735784983, 0.158008938451567, 0.15787018786390955, 0.1576743416712009, 0.15751563940690402, 0.1573707211696002, 0.1571764730467968, 0.15696797623904532, 0.15672344658871695, 0.15648839345365811, 0.15621636825180885, 0.15595151305875868, 0.15566921967509006, 0.15540374406774404, 0.1550826108850578, 0.15475071849143388, 0.154398394348644, 0.1540307183812188, 0.15362597272395614, 0.15322973665890494, 0.15280082874341688, 0.15237242282269103, 0.15192613179661774, 0.15145618407691958, 0.15097535156716002, 0.15049455977679638, 0.14997611698541194, 0.14944124306731035, 0.1488773309931062, 0.14831121834296343, 0.14775546612789625, 0.14715183085372804, 0.14653290919115503, 0.1458718984842273, 0.1452255345155222, 0.14458444961961053, 0.14390150932440912, 0.14320323171331723, 0.1425118894204424, 0.14178018256702024, 0.14098477451822566, 0.14023126945151126, 0.13946081084487894, 0.13868860640502428, 0.13788345238877742, 0.13704617004347588, 0.13621325531152056, 0.13536473857648829, 0.1345113611930546, 0.1336313757535377, 0.1327396238150366, 0.1318316114311355, 0.13091021365866287, 0.13001572628724514, 0.12906318384573806, 0.12808982173529612, 0.12711765472188108, 0.12613437078815012, 0.12510445266823828, 0.12410376035593235, 0.12310442654656044, 0.12207693538334444, 0.1210384064003293, 0.11997506433498409, 0.1189172126318293, 0.11784628243214179, 0.1167674517348014, 0.11567852154133276, 0.11457622307547423, 0.11346887526309309, 0.1123844164314156, 0.11125544318611925, 0.11012011566202716, 0.10897859769755588, 0.10783107626816738, 0.10665846780267287, 0.10550202189677384, 0.10433916958684121, 0.1031495504736149, 0.10197775251588187, 0.10085080960265692, 0.09966042258660963, 0.09846767846817442, 0.09726304136739282, 0.09606716349330867, 0.09485025747874473, 0.09365203963431089, 0.0924508584990694, 0.09125680497079937, 0.09004980450387383, 0.08882611089662067, 0.08761920140298678, 0.0864109960838717, 0.08518564479387372, 0.08397831819479303, 0.08281096808509912, 0.08159738174320254, 0.08038635650304289, 0.07912836429423614, 0.077929319311762, 0.07678184822035093, 0.07557771555243069, 0.07437805915651906, 0.07313257279153762, 0.07194871439263925, 0.07080855518445005, 0.06962434626782493, 0.06844579471588881, 0.06722932611526139, 0.06606824303146182, 0.06490803071596266, 0.06375558200418027, 0.06260793149152181, 0.06147674293601199, 0.060338849190361775, 0.05924052748051228, 0.058112705407955455, 0.056994325486891755, 0.055885446520782533, 0.05478614702615453, 0.053650519804731706, 0.05257649859716393, 0.05150980621855609, 0.05044501195476361, 0.04939520688221391, 0.04837384040625686, 0.047338764596384655, 0.04631408841124074, 0.045305973359445084, 0.04430201395837865, 0.04333763363048735, 0.04235302936526786, 0.04138169514577437, 0.04040797195442051, 0.03946494184143092, 0.03849037271033587, 0.03757747024744625, 0.03667458335243776, 0.03579479623726096, 0.0349117131952577, 0.03403692711228737, 0.03317857470668142, 0.032332494946009954, 0.0314915038080108, 0.030671592441082567, 0.029920569773493378, 0.02911875698234161, 0.028333047273998557, 0.027510490819526643, 0.026762876118350497, 0.026031411192144478, 0.02530845404730456, 0.024598610053779404, 0.023942850139380384, 0.023254536960255538, 0.022563501559699297, 0.02190896382082143, 0.02125023702228563, 0.020626734597871288, 0.020016488893844456, 0.019450037763100794, 0.0188627884336504, 0.018264082188360717, 0.01771053481463326, 0.017170387700056435, 0.016677827991862782, 0.01616031689134169, 0.015653046630361035, 0.015166796617418654, 0.014695179963747872, 0.014253593087369017, 0.013808727534555018, 0.013346195897221072, 0.01293513624892142, 0.012536677899453959, 0.012185711785411791, 0.01180808312169951, 0.011439081310565785, 0.01109101915214393, 0.010756588477142668, 0.010478601801932686, 0.010165335037234213, 0.009866733813301958, 0.009583833196805166, 0.009315261822458511, 0.009070221012363117, 0.008827792939467652, 0.008599011211943772, 0.008383454660862495, 0.008180737577535251, 0.007968245850803064, 0.00779298570886621, 0.007632040171251177, 0.007477416005962747, 0.007333391465402105, 0.007251019773910714, 0.007121288476183028, 0.007017949478324296, 0.006912041434446832, 0.006818845339784258, 0.006739267861657274, 0.006669627630217361, 0.006646072942552657, 0.006593996897439667, 0.006554225924923259, 0.006513485959210335, 0.006498003104236585, 0.0064759979620539684, 0.006481794576098871, 0.006495734194033756, 0.00654507461854185, 0.006571250468508532, 0.006638451872022397, 0.006678438234950702, 0.006728575291038938, 0.006838725338837575, 0.006901062859789136, 0.006986640104905969, 0.007069366593391938, 0.0071625259595438535, 0.007249766707415472, 0.00736353676888292, 0.007493703389521157, 0.007620915142692662, 0.007755327415299061, 0.007971474270769665, 0.008109636328760028, 0.008261820464735344, 0.008419244749791825, 0.008585508027538784, 0.008778435500199333, 0.008957945643797071, 0.009182515094338773, 0.009372616620759548, 0.009571564931025456, 0.009801577907326463, 0.01001306151227221, 0.010215558219918834, 0.010444659956453365, 0.010679582704161758, 0.010977077676327, 0.011215331549993289, 0.011460892541477872, 0.011714651445382356, 0.01197514032373707, 0.012253732459920442, 0.012524760648972658, 0.012812296455663846, 0.01309385984985972, 0.013381408553052839, 0.013702785294083511, 0.013997742513103404, 0.01436987405125074, 0.014668874249756339, 0.014977754688866592, 0.015308280248101451, 0.015632906076929604, 0.015990424979982265, 0.016328160834971694, 0.01667456313306251, 0.01702456914157696, 0.01738714115424808, 0.017784800504139577, 0.018157302263524914, 0.018537770864414074, 0.01891024228522376, 0.019307551090234916, 0.0197377576687813, 0.020144027911807392, 0.02055795849915222, 0.021037255826330214, 0.02145874367255237, 0.0218744825633852, 0.022318709023772997, 0.02277174345083155, 0.023266818867952427, 0.02373284123266339, 0.024244130670330682, 0.02472627426981265, 0.02522033182723189, 0.02569474837264957, 0.026215495089165812, 0.02679151232668624, 0.027325094058189583, 0.0278707952591084, 0.028425464242424103, 0.028995302583041734, 0.029580466945925962, 0.030173107490447104, 0.030777699634564972, 0.03138766730437949, 0.03201735430165021, 0.03268501387511014, 0.03333569053537403, 0.03400038368826544, 0.034723711834425165, 0.03541114982896937, 0.03610068425939697, 0.03682372635051563, 0.037562656827563705, 0.03835246410923561, 0.03911915185987409, 0.03990193294703801, 0.040705494524075556, 0.041527223783010686, 0.042382798512483985, 0.04323923140688452, 0.0441255272356998, 0.04501970194857362, 0.04593419509993866, 0.04687283327498142, 0.0478278942029952, 0.0487787485174061, 0.049779261075408456, 0.050799857048186396, 0.05188554997731062, 0.052942171423558504, 0.05398873816046248, 0.05509797385269621, 0.05622970684409173, 0.05743341313060727, 0.05860546519418924, 0.05981466874756067, 0.06103904770165257, 0.062291047021757466, 0.06357598044224352, 0.06488297132807884, 0.06621466225599422, 0.067579148367524, 0.06897228682991625, 0.07040403115542226, 0.0718542034198381, 0.07334421156004604, 0.07485384118014574, 0.0763948215275734, 0.07792438449098904, 0.0795343369739045, 0.08122678815548669, 0.08289040200340428, 0.08458813851476069, 0.08628237083470405, 0.08805381020998362, 0.08986539693763698, 0.09170194934312992, 0.09357281900733179, 0.09549111884906082, 0.09743051535577578, 0.0994256950718941, 0.10143600215940086, 0.10348461874993219, 0.10553911183649739, 0.10766913705522045, 0.10987417713675098, 0.11207428951100637, 0.11431472636141435, 0.11656079196353233, 0.11888683737070956, 0.12126889828439458, 0.12367118769839928, 0.12609655589625782, 0.12858318516307646, 0.13111032620641, 0.13368955440842026, 0.13629762339020773, 0.13896960875115247, 0.14166003879553196, 0.1443946326444329, 0.1471497361746519, 0.14997593818261906, 0.15283784829974972, 0.1557515486239078, 0.15870854914026902, 0.16170917453547748, 0.16475372320367224, 0.16787956772863002, 0.1710080682313655, 0.17418332325903302, 0.17740598110858283, 0.18067438614552067, 0.18394408973441465, 0.18731127593961305, 0.19072236829053893, 0.1942029114609765, 0.1976995365874476, 0.2012534434034696, 0.2048409626757403, 0.20847524414772764, 0.21213836880422804, 0.21586809259724027, 0.2196521487283551, 0.22347163226542657, 0.22733707927102237, 0.2312187242213427, 0.2351795803325518, 0.23920298881116053, 0.24324961979418402, 0.24734148108593307, 0.2514406135511287, 0.25562734649682756, 0.2598849685563058, 0.2641536514912599, 0.2684668089757904, 0.27278787516382186, 0.27719393174214113, 0.2816625091909762, 0.2861494510870655, 0.2906792913921473, 0.2952302591015006, 0.29984782879259253, 0.3045314745221306, 0.30922739167211416, 0.3139652077657654, 0.3187110826776618, 0.32353555131779393, 0.3284246183650344, 0.33332283536880536, 0.3382606392371253, 0.3431937262287441, 0.3482146435497615, 0.3532651287928227, 0.3583575833993225, 0.3634847082683545, 0.36870186621349704, 0.37389038129651675, 0.3790815366189447, 0.3843470216359319, 0.3896455967456092, 0.39493882689652865, 0.4003065584084866, 0.40574420482252366, 0.4111646219769076, 0.41661564276859, 0.42206603581110314, 0.42757966977295053, 0.43314274014177, 0.4387057388067053, 0.4442952291265831, 0.449863606207793, 0.4555093986724015, 0.46116160431107855, 0.4668512591681178, 0.4725602366391836, 0.4782917347570327, 0.4840372888716256, 0.4898154918292505, 0.4955940707538995, 0.5013898123586542, 0.5072166339473847, 0.51304203480897, 0.5188299169529778, 0.5246911986933029, 0.5305624741752932, 0.5364690256501078, 0.542354887697621, 0.5481972961446311, 0.5541072251468226, 0.5600213116307005, 0.5659759988140433, 0.5718916754496254, 0.5777617188952748, 0.5836907068455207, 0.5896187049861972, 0.5955293747938533, 0.6014550337621211, 0.6074038397920349, 0.6133166229167104, 0.6192249981322321, 0.6250825808976085, 0.6309844730492514, 0.6368722803716154, 0.642753080046965, 0.6486216147907822, 0.6544532486278818, 0.6602975279819788, 0.6661602606808239, 0.6719664548205129, 0.6777564557327135, 0.6834748718844397, 0.6892356437918639, 0.6949734712717318, 0.7006875354321777, 0.7063769578084133, 0.7120675187218115, 0.7177014404062066, 0.7232514177259657, 0.7288392495317996, 0.7343952228095627, 0.739897752047916, 0.74539014661731, 0.7508424659409411, 0.756263378144165, 0.7616467599073298, 0.7669768959371823, 0.772284415971823, 0.7775567373545264, 0.7827803497004167, 0.7879613375330157, 0.7931142594721607, 0.7982049305158918, 0.8031831810618852, 0.8081913696880724, 0.8131484293462564, 0.8180559108564142, 0.8229083423162914, 0.8277350158598816, 0.8324766944247336, 0.8371649460520603, 0.8417563273991985, 0.8463396226644808, 0.8508621871048736, 0.8553263746623966, 0.8597295936122533, 0.8640383422276684, 0.8683211629779388, 0.8725429994978156, 0.8766937303599045, 0.8807779207964946, 0.8847858939866211, 0.888735783294508, 0.8925821062235201, 0.896396673521741, 0.9001383339119747, 0.9038013620666248, 0.9073962246178627, 0.9109124525547693, 0.9143573270959775, 0.9177258217786143, 0.9209980100130803, 0.9242142554755394, 0.9273748111005152, 0.9304286522436588, 0.9334032932943848, 0.9362705038679333, 0.9390878917176594, 0.941844489964828, 0.9444924361217052, 0.9470575107240784, 0.949487785801164, 0.9518914143323233, 0.9542093828315193, 0.9564366929523535, 0.958575681620923, 0.9606497547059524, 0.9626080687883977, 0.964465722100118, 0.9662489724840945, 0.9679423590024816, 0.9695194903798844, 0.9710351770176208, 0.9724434684777903, 0.973775742583488, 0.9750142620885115, 0.9761930827481305, 0.9772395334181587, 0.9781842249489796, 0.979047280330324, 0.9798169343647862, 0.9804914521865336, 0.9810737590910321, 0.9815203403472463, 0.9819193776154097, 0.9822215815411344, 0.9824160261117361, 0.9825265635379027, 0.9825609795454094, 0.9824753479560877, 0.9822558889985558, 0.9819847034239015, 0.9816162328097885, 0.9811642258900205, 0.9806006529885621, 0.9799179175407564, 0.9791667415324995, 0.9783192844036386, 0.977398983379869, 0.976357348736865, 0.9751952815785321, 0.9739698033684858, 0.9726495680574827, 0.9712409896798984, 0.9697319199321267, 0.9681164956978305, 0.9664235445476312, 0.9646377106017541, 0.9627595517053935, 0.9607896264200448, 0.9587158829548771, 0.9565657114110786, 0.9543247709728413, 0.9520271379700141, 0.9496024981899219, 0.9470865726282482, 0.9444892520816764, 0.9418057358976596, 0.9389838814101122, 0.9361362823432132, 0.9332286966302238, 0.930203803507028, 0.9270951033372221, 0.9238774230408445, 0.9206067947763176, 0.9172459120026741, 0.9138115998440414, 0.9102961206355822, 0.9067295007466896, 0.9030512834519131, 0.8992967570500281, 0.8954667511248692, 0.8915621207913002, 0.8875874561320488, 0.8835357729023928, 0.8793982892223674, 0.8752059051760193, 0.8709428979748185, 0.8665866113966199, 0.862188632195729, 0.857690827123835, 0.8531607731117289, 0.8485629149158342, 0.8439084359049942, 0.8391783233624642, 0.8344195798647613, 0.8295609849517325, 0.8246442430892488, 0.8196288581988525, 0.8146042650901042, 0.8095135246381925, 0.8043770271058343, 0.7991856789736829, 0.793969906995651, 0.7886696427478967, 0.7832797415786268, 0.7778881754282688, 0.772447892227446, 0.7669522782977758, 0.7614202091652256, 0.7558791433836676, 0.7502548863844699, 0.7445910675979018, 0.7388391763405682, 0.7331061412633185, 0.727331436686291, 0.7215230170496241, 0.7156789783312419, 0.7098357899192306, 0.7039208591808317, 0.6979784438938388, 0.6920066162661679, 0.6860083706220418, 0.6799344902056473, 0.6738935138967433, 0.6678210994084438, 0.6617315432127471, 0.6556194576646911, 0.6495005816992789, 0.6433465378712377, 0.6371733351274206, 0.6309871234790809, 0.6247866708281804, 0.6185577985153186, 0.6123350269132171, 0.6061124315040664, 0.5998678288925764, 0.5936158356512599, 0.5873511132648052, 0.5810891881376794, 0.5748338651567104, 0.5685644114216479, 0.5622944494117561, 0.5560356050104706, 0.5497670218830998, 0.5434510141198936, 0.537197586138839, 0.5309473354885142, 0.5247455942308147, 0.5185007781072598, 0.5122215959416077, 0.5060037790170012, 0.49979574878219535, 0.49358112552091354, 0.48739916028555547, 0.4812360737633974, 0.47508069204267067, 0.4689414295110003, 0.4628054859449134, 0.45670409652883187, 0.4506195835457447, 0.44455797798855495, 0.4385178979246499, 0.4325324730943425, 0.4265350400179766, 0.42057188970134984, 0.4146280915907167, 0.40871326417615816, 0.40277699062180045, 0.3969289202946457, 0.39112190599094043, 0.38533031807759016, 0.379570211943902, 0.37385667257718347, 0.36816067494623367, 0.36247013122285354, 0.3568489285026677, 0.3512627290110161, 0.3457421946849125, 0.3402251510468307, 0.334727556207789, 0.32929262545330357, 0.323897274335297, 0.3185266791318412, 0.31321470093778375, 0.30792209423179945, 0.30269541002434014, 0.2975099547695418, 0.2923658710068411, 0.2872655610229492, 0.2822423052826653, 0.27722582581491617, 0.2722562803762987, 0.26733847914147246, 0.2624633036077755, 0.25758515888615163, 0.2528132023482309, 0.24808717302058558, 0.24343149970411712, 0.23879631788206232, 0.23421769363148054, 0.22968017365282214, 0.2251928313569279, 0.22072545995383183, 0.21634294659040582, 0.21203101500039256, 0.20774431846291727, 0.20350866474955284, 0.19929897116772446, 0.19516900706663243, 0.19106826859999132, 0.18704122159016695, 0.18306354089122648, 0.17919346971281147, 0.17530824921204044, 0.17146989479336988, 0.1676923426433748, 0.16396744172561387, 0.16026160978477927, 0.1566456528666984, 0.15306801729422498, 0.14955401491598497, 0.14608963547467346, 0.14266754704495002, 0.13930356928995377, 0.13602305791107805, 0.13275345308279565, 0.129535090529477, 0.12635130391285446, 0.12323645698434678, 0.12014789136538821, 0.11713429018978987, 0.11416820138690134, 0.11128366770286743, 0.10840797850543016, 0.10556945108606561, 0.10279284462548728, 0.10006363360552237, 0.09735619753463617, 0.09472377350858302, 0.09216281825431882, 0.08961629887836581, 0.08707991692087645, 0.08462888467733841, 0.08222055713054462, 0.07986952581208233, 0.07754394460934336, 0.07527884076460445, 0.07303586326040197, 0.07083556856348788, 0.06868174662590758, 0.06656427098748302, 0.06446103657171523, 0.062428150436734005, 0.060433336149986853, 0.058440508201588, 0.05652490611594849, 0.054683221649956135, 0.052831581815461624, 0.051016186413897, 0.049246753355962646, 0.04750051838465252, 0.045797989316884856, 0.04411946456442118, 0.04247471153644519, 0.0408688383272111, 0.039288408858625785, 0.03767954055796563, 0.0361691961281566, 0.03468548068301515, 0.033223617310564536, 0.031792700349417925, 0.030411535458114362, 0.029027637687922214, 0.02766950542922261, 0.02630973807918439, 0.02500443969496937, 0.023742837722541814, 0.022478683826876397, 0.021236900541038734, 0.020031604168871925, 0.018830513124352827, 0.01765786864831952, 0.016497045469181, 0.015355985459367314, 0.014218970862141115, 0.01311670016194715, 0.012046368516246478, 0.010974142333280595, 0.009917750237027703, 0.008866726433339188, 0.007840780989957953, 0.006783204537146474, 0.005787974697991917, 0.0048017613649931614, 0.003839826376774241, 0.002868678070948509, 0.001898930820307528, 0.0009458154296907592, 0.0