0.03761655848309445, 0.03740567447736177, 0.037222608755319256, 0.03700846674769474, 0.036873857138673215, 0.036752598995358945, 0.03665202990494261, 0.036550477775550885, 0.03643210625759647, 0.03634968791602063, 0.03627203717355571, 0.03620112851616657, 0.036130712340295995, 0.03605148019350257, 0.03598872349517768, 0.03592796325735279, 0.035889240084980546, 0.03582987124126653, 0.035756280109559745, 0.035705443730570954, 0.03565680422489487, 0.035577105449548396, 0.03553776533736684, 0.035539629492666674, 0.03549783272557953, 0.035460398958928316, 0.035436880054262876, 0.03540754418702394, 0.03531674181908734, 0.035306972386982445, 0.03529923391114122, 0.035274158025509386, 0.035275108935789605, 0.0353579370799327, 0.035355384957204784, 0.035361521730567336, 0.035293295909817675, 0.03532720836704109, 0.03542534835431434, 0.035460288956860715, 0.035503903366064904, 0.035556271327523675, 0.03561747810796492, 0.03570234167620912, 0.03577963919025094, 0.035866885983240164, 0.03595603313698114, 0.03606416564089284, 0.036181802928457345, 0.03630904402577794, 0.0364459937894949, 0.036529834773876266, 0.036694493455876165, 0.0368482679377038, 0.03702879877625589, 0.037216072578174914, 0.037417439956894664, 0.03761925653806252, 0.037859426692899344, 0.038075741439547964, 0.03830341987982221, 0.038503748412692565, 0.03875940364555918, 0.039023241517412294, 0.03929853153573061, 0.03958407434479975, 0.03987487496544825, 0.04018265063953162, 0.040542874858656416, 0.04086760905077392, 0.04120622955283965, 0.041506456809288966, 0.041879284006423656, 0.042273650857976096, 0.04266719670430928, 0.04307296882017315, 0.043527380748481406, 0.04395380888790594, 0.04437782937598654, 0.044836382924793965, 0.045308840531612875, 0.04577255804925273, 0.04627605594819525, 0.04673764757889207, 0.04727437205766682, 0.04782160353245857, 0.048389427186151614, 0.048958555533750094, 0.04955403833512849, 0.05014784963984634, 0.05075622446630942, 0.05135933547654169, 0.052000123305514435, 0.052692543081752655, 0.05335723799934172, 0.054038866623519304, 0.054710644520652184, 0.05542951531324528, 0.05617453491756439, 0.05692316095090893, 0.05768827431510265, 0.05841375230642144, 0.05921927602833831, 0.06006388480503826, 0.06089403121321953, 0.061740284087963206, 0.06263366434368688, 0.06350889201960205, 0.06438248030052732, 0.0652970478741028, 0.0662287705355762, 0.06713088530538026, 0.06810312676682616, 0.06913567921379225, 0.07013218858314918, 0.07114687817300404, 0.07217436730560668, 0.07322601904541616, 0.0743088636214005, 0.07539444771218873, 0.07649861562825928, 0.07756637081260978, 0.078714347767818, 0.07989360895989585, 0.08107034770510624, 0.08226387111150955, 0.08350644450636148, 0.08472984460828234, 0.08589583639474319, 0.0871665033594316, 0.0884514095040544, 0.08979249609188532, 0.09110187250604002, 0.09238474450100315, 0.0937349813400942, 0.09510024035997822, 0.09651022947281933, 0.09790251319558099, 0.09932010948365999, 0.10074580758741307, 0.1021889688427023, 0.10364938084584988, 0.1051268305886438, 0.10659298764065625, 0.1081074251937038, 0.10963667739818404, 0.11124234110799695, 0.11279343033074803, 0.11427034560038536, 0.11586896488978567, 0.1174795092285431, 0.11911293572519073, 0.12074665208075401, 0.12241085801550139, 0.12406853210758798, 0.1257402116302485, 0.12745781137070045, 0.12915277112573054, 0.1308374091739592, 0.13256530830201457, 0.13430589652360117, 0.13605355336997343, 0.13781939417468927, 0.13961287186472776, 0.14139957717432863, 0.14319825298982666, 0.14496164083332427, 0.14678899518500005, 0.14867940620162354, 0.15051613641830172, 0.15236404928058536, 0.15422127222578325, 0.15609013671684221, 0.15794178208742238, 0.1598326744574427, 0.16173068338838556, 0.16362084129017898, 0.16553420689136503, 0.1674477316043929, 0.16937262878997172, 0.17130236014970224, 0.17323539702462554, 0.1751743658425885, 0.177089317767027, 0.17903977676273142, 0.18099220393473262, 0.18294383503466022, 0.18490022851611215, 0.18691427073923064, 0.18886618653732087, 0.1908222371494177, 0.19270939781024185, 0.19468070867834078, 0.19665802531140428, 0.1986241871191182, 0.20058856123774782, 0.2025616122058995, 0.20452028061157626, 0.20648896714574916, 0.20844161704510408, 0.21039203315405663, 0.2123557244086239, 0.21429796824616013, 0.21624390101645732, 0.2181786009071745, 0.22010931458768093, 0.22194428929904494, 0.2238764364340471, 0.22587373740064173, 0.22777398869337903, 0.22960183661268813, 0.23149610806015464, 0.23337855649665476, 0.23523834699915805, 0.2370980787800924, 0.2389636045081919, 0.24079488321940787, 0.24261384988693296, 0.24439865632814045, 0.24619440882083501, 0.24801815416113504, 0.2497784786982699, 0.2515257057890301, 0.253268490128706, 0.2549862007481793, 0.2566597788765794, 0.25835111223572077, 0.26002464344786824, 0.26171605601466585, 0.26334800373759276, 0.26498551361657957, 0.26657940554385046, 0.26815584681363064, 0.269677784438602, 0.27122123509961177, 0.2726944407080152, 0.27419941784156876, 0.2756786911224382, 0.27718974527617785, 0.27861002338721286, 0.2800261774363454, 0.28139767464343013, 0.2827460324936906, 0.28404235831381136, 0.2853457046643094, 0.2866435458532863, 0.28788989096261425, 0.2891096384823767, 0.2902472911892326, 0.29141900055977943, 0.29253385746407906, 0.29364586390955777, 0.29472480995558, 0.29583099184380035, 0.29683628595057715, 0.2977770773718954, 0.29872681109771054, 0.299643766353802, 0.3005116240239946, 0.3013642827674787, 0.30217711010585663, 0.30296133707077594, 0.3037104500617701, 0.30449123635228964, 0.30516116453268277, 0.30576439218798673, 0.3063741926264651, 0.30694870414939196, 0.3074862226314944, 0.30798924219500073, 0.30845583899594625, 0.3088856957433544, 0.3092785063678216, 0.309633976220284, 0.3099518222544671, 0.31023846763330226, 0.31047941777915855, 0.3106823420533409, 0.3108750683574181, 0.31099753905808974, 0.3110318751764634, 0.31108580596234764, 0.311098752327137, 0.3111069021988018, 0.31103341197707796, 0.31092506576160733, 0.3107730432492437, 0.3105818466061567, 0.31028963662335135, 0.310027159128407, 0.3097709318571279, 0.30941594838970915, 0.30902109121315924, 0.30853267665784967, 0.308064482001002, 0.30757183666313886, 0.3070152512365285, 0.3064172286726958, 0.30581809326362375, 0.30513258581194863, 0.30435212151582597, 0.3035961011889378, 0.30279789021679687, 0.3020006868278218, 0.3011137184760547, 0.30013842820640296, 0.2991801142144217, 0.2981801823627758, 0.2971591320369399, 0.29607465229853874, 0.2949696143627833, 0.2938043607376914, 0.29260126752933097, 0.29133630307082586, 0.2900608110208901, 0.28872231557810857, 0.2873724068789057, 0.28598292898891875, 0.2845463876584702, 0.28308038304026184, 0.2816187596009848, 0.2800709615221344, 0.2784881848813658, 0.2768143657757683, 0.2751692788717391, 0.2734973622038549, 0.2717765435410696, 0.2700201624583628, 0.26822476243489535, 0.266399432450526, 0.2645520105472154, 0.26265743600255176, 0.2607305119102218, 0.2587649930510968, 0.25677557067055085, 0.2548083470863904, 0.25274996556859236, 0.2506642860497521, 0.24857015318888234, 0.24642786609413422, 0.24422365226975717, 0.2420344916078253, 0.2398178079954619, 0.23759286813002753, 0.23532035305672824, 0.2330176298218126, 0.23069650763866603, 0.22835110739944542, 0.22594446783528974, 0.22355685634266775, 0.22121145493811262, 0.21876680169303808, 0.21630293311333024, 0.21376393128736865, 0.21126973874174598, 0.20877435219655, 0.20623597220905668, 0.2036792366817496, 0.20117581715932778, 0.19857553606828385, 0.19598043610503943, 0.1933536621135677, 0.1907160293125991, 0.18804627622413886, 0.18539019545336138, 0.18272276495520426, 0.18004453179275606, 0.17735607899126044, 0.17470086593227915, 0.17198843041045056, 0.16931562929124663, 0.16658600962265005, 0.16385381333890678, 0.16115395087474746, 0.15841259355999976, 0.15567922092737255, 0.15293682730165714, 0.15019509183273158, 0.14745957637288204, 0.14471918850159804, 0.14199000891498711, 0.13925251074685954, 0.1365182469555053, 0.1338131099739386, 0.13108352052081756, 0.12840029639245554, 0.125678436592118, 0.12296591695700532, 0.12032587663388002, 0.11762480626972809, 0.11496026489227931, 0.11228379980826804, 0.10962239915235912, 0.10699346791814741, 0.1043601143238391, 0.10179670335689255, 0.09918953355372256, 0.0966022179980968, 0.09398783363284147, 0.09144609517603877, 0.08900076345628105, 0.08648452226410959, 0.08399148853284752, 0.08157264143386879, 0.07912000197160178, 0.07668332831160968, 0.07428537378207353, 0.07191357097756712, 0.0695695512989633, 0.06725084337761536, 0.06504382808747149, 0.06276964023495173, 0.06056740989517717, 0.05835449481566378, 0.05617685646087891, 0.05398211984260517, 0.051881294767224424, 0.04985155149266429, 0.04781093922323391, 0.04580602480268117, 0.043882699259397875, 0.04194459443914322, 0.040127700255544935, 0.038258511409710906, 0.03643385842880914, 0.03458646156550056, 0.03285848158027818, 0.031261731683066854, 0.029603195914400943, 0.02799115352805473, 0.026365261126665655, 0.024853651666778796, 0.02346418118150045, 0.022029551361427764, 0.02064386695939326, 0.019301834119959324, 0.018014984791249408, 0.016818705937136073, 0.01562505779645013, 0.014483488710636783, 0.01336193667732958, 0.012328875801860355, 0.0113612424912743, 0.010428239627875912, 0.009547817821110293, 0.008709691105732751, 0.007937081083120266, 0.007231170465594154, 0.006564046002047702, 0.00595209442997791, 0.0054064668481515945, 0.004904832166129784, 0.004487082251241183, 0.004096637329574259, 0.0037655330206607736, 0.003534095163885851, 0.0033171005897065695, 0.0031220946805462823, 0.0030343984202395886, 0.0030064773235018967, 0.0031149835251773512, 0.0031979718893925097, 0.003289793892102374, 0.003509745244312713, 0.0037911174041577213, 0.004199820359239427, 0.004596651087662867, 0.0050728794715587154, 0.0055998010108360115, 0.00619307332693865, 0.006784180848069705, 0.007518147735507326, 0.008374348472734765, 0.00922513009417397, 0.010142173845938888, 0.011117363109509015, 0.012167726510207897, 0.013302479521244238, 0.014481819062972238, 0.01572797526924933, 0.017030155379641823, 0.01841107539608016, 0.019868736569340715, 0.02138041854722382, 0.022958843171181784, 0.0246428047132794, 0.026349711531231557, 0.028071900841287585, 0.029922920583584468, 0.03183914184189384, 0.03386357501174929, 0.03590525409451576, 0.03794935354932376, 0.040135123140798694, 0.04238474247846825, 0.0446878036331795, 0.04706733146784331, 0.049542989877026905, 0.05204668474059319, 0.05461659501002024, 0.05724589565003991, 0.059948675078519316, 0.06275702045410343, 0.06558539542628061, 0.06848115252798467, 0.07137685661020897, 0.0744143889326274, 0.07757839528921079, 0.08073231348554305, 0.08395218308826095, 0.08722274887762067, 0.09057481723723985, 0.09393557966737791, 0.09742139673600846, 0.10096697771067147, 0.10465539275769467, 0.10831012173484708, 0.1119609867512379, 0.1157524074985373, 0.11960288894244747, 0.12354037987940457, 0.1275048819809789, 0.1314945841636445, 0.13558299757303918, 0.13972843771594384, 0.1439882315805581, 0.14823966941322633, 0.1525277479162866, 0.1569000443470197, 0.16132884444498347, 0.16582694354568883, 0.17036527353166905, 0.17488676549055757, 0.1795444452566374, 0.18425210648957996, 0.18907121732401583, 0.19387062506385305, 0.19866266196573307, 0.20357464334342082, 0.2085345272552697, 0.21351121807792417, 0.21856984258002188, 0.2237271348413898, 0.22886900954356235, 0.23405852368411795, 0.23926277235381035, 0.24454930670295183, 0.24984720955153544, 0.255224277771042, 0.2606419413278569, 0.26612930852511557, 0.2716233331606657, 0.2771356180542513, 0.28271380481556485, 0.288330200521766, 0.29400695586860304, 0.2996950227925248, 0.30543134636151315, 0.3111922540756563, 0.31698951123337377, 0.3227792815579414, 0.3286516851684535, 0.3345430260954188, 0.34047829694340953, 0.3464425784629155, 0.3524325852419052, 0.35845335993230915, 0.36450640032883674, 0.37057961274978063, 0.3766785899235805, 0.3827810944792383, 0.38893184084741783, 0.39505777561432714, 0.4012578393342694, 0.40747587117460393, 0.41374226236452616, 0.41999104952851074, 0.42621123639684405, 0.4325016076110337, 0.43880585882559076, 0.44513952152810826, 0.45146782859134316, 0.4577997446990352, 0.46415435323769016, 0.470519692854525, 0.4768561045117227, 0.4832452868439763, 0.48962168280772633, 0.49602453940292296, 0.5024310158267761, 0.508876682253417, 0.5152840201057344, 0.5216910531108272, 0.5281052688065598, 0.5345208518200838, 0.5409113204523702, 0.5473297139657518, 0.5536632126807219, 0.5600846181689042, 0.5664964474069556, 0.5728863772242975, 0.5792796513677159, 0.5856642226214657, 0.5920339332590983, 0.5983913983060136, 0.6046984774952936, 0.6110341699145457, 0.6173788040811763, 0.623677757637211, 0.6299605022475461, 0.6362341821750032, 0.6424807867807049, 0.648690109388599, 0.6549009530990074, 0.6610900793843913, 0.6672204034421664, 0.6733678315407644, 0.6794431029265152, 0.6855422974278347, 0.6916228585448155, 0.6976587075345273, 0.7036635523983764, 0.70964738899982, 0.7155866702358605, 0.7214262992150987, 0.7273076812812824, 0.7331506777667683, 0.7390150819491776, 0.7447722355709454, 0.7504914337159655, 0.7561743591391729, 0.7618182675836688, 0.7673376639976196, 0.7729107723223629, 0.77841930399155, 0.7838998211958161, 0.7893312152242432, 0.7947009831504451, 0.8000342191613874, 0.8053843602685432, 0.8106056487615283, 0.815778212882059, 0.8208231733164244, 0.8259044560320635, 0.8309062855161089, 0.8358765239993574, 0.8407876605462864, 0.8456927893557932, 0.8504775017451919, 0.8551764301541415, 0.8598482996192827, 0.8644588085845607, 0.8689750098780493, 0.8734644038336582, 0.8778961837927938, 0.8822526768166179, 0.8865427546289623, 0.8907616760464194, 0.8949172390799464, 0.8989530582236287, 0.9029765845223227, 0.9069269028947239, 0.9108652527883468, 0.9146602639063861, 0.9183093362446265, 0.9219709130208154, 0.925555362573251, 0.9291145631648278, 0.9325370919223397, 0.9358936400381358, 0.9391633924719174, 0.9423565688549205, 0.9454093250106892, 0.9484545875982653, 0.9513996813569308, 0.9542812994498895, 0.9570785065556302, 0.9598017729754226, 0.9624280406621784, 0.9649977764797601, 0.9674507611239959, 0.9698197999947482, 0.9720707415466663, 0.9742741047155962, 0.9763602160197797, 0.9783913667317317, 0.9803323691037504, 0.9822433472450603, 0.9839960242783398, 0.9856373618323514, 0.987217912419387, 0.9887085239763035, 0.9900699504329404, 0.9913843527412904, 0.9926469324514975, 0.9937693717333641, 0.9948006728425622, 0.9957055939928843, 0.9965577563949818, 0.9972955366419184, 0.9979615740089726, 0.9985320449185694, 0.9990538935733149, 0.9994275348879583, 0.9997057519506848, 0.9998938945531294, 0.9999884896036105, 1.0, 0.9999054342053106, 0.9997266481932264, 0.9994434755307124, 0.9990668041321294, 0.9985441869314016, 0.9979864761985813, 0.9972929574541426, 0.9965465200414508, 0.9957015612791674, 0.9948068981929844, 0.9937606100489723, 0.9926041651927513, 0.9913718451610821, 0.9900447891042825, 0.9886179317734414, 0.9871029581796116, 0.9854617068331701, 0.9837628647912869, 0.981968796102861, 0.9800975356095706, 0.9781126781418615, 0.9760046006973917, 0.9738392198771297, 0.9715805609586594, 0.969285554998406, 0.9668353036127434, 0.9642474294867991, 0.9616274725438758, 0.958917097392734, 0.9561129786664161, 0.9532243434262136, 0.9502149918596018, 0.9471539689351132, 0.9440039891958197, 0.9407740590632141, 0.9374480404186263, 0.9340390313915472, 0.9305421748201652, 0.9269614675977589, 0.9233485926510584, 0.9195961693733192, 0.9157584811366069, 0.9118501729090848, 0.9078637970261303, 0.9037530709811399, 0.8996182660004227, 0.8954394450823113, 0.8911436707101523, 0.8867731875298611, 0.8823127229965454, 0.8777972681804995, 0.8732381363651771, 0.8685737090113234, 0.8638398484808663, 0.8589931776329729, 0.8541284982605886, 0.8491542837699642, 0.8441572277606813, 0.8390911040995394, 0.8340097187435459, 0.8288035814460002, 0.8235064918593157, 0.818182137802801, 0.8127967621169441, 0.8073583939097964, 0.8018541247303101, 0.7962878366576044, 0.790672181297935, 0.7850020932805335, 0.7792628221961475, 0.7734898495461175, 0.7676306831064864, 0.7617607964737879, 0.755840461030264, 0.7499195834833864, 0.7438973337543608, 0.7378604538762323, 0.7317503618321424, 0.7256015329856745, 0.7193667862264485, 0.7131496803091223, 0.7068836121846281, 0.7005928919226171, 0.6942663744726993, 0.6878748624684954, 0.6814854153954669, 0.6751368157541422, 0.6686742680734569, 0.6621866033729225, 0.6556521788661337, 0.6491205516210311, 0.642556625879157, 0.6359817391381948, 0.6293862231910302, 0.6227314080264958, 0.6161041980732146, 0.6094518889030345, 0.602790524655172, 0.596113954465702, 0.5894641252861618, 0.5827573638634859, 0.5759852977376675, 0.5692716930761168, 0.5625498189243973, 0.5558937968673232, 0.5491516572076911, 0.5423450186835064, 0.5356144894090573, 0.5288836236327253, 0.5222197209778554, 0.5154849318888061, 0.5086834821700603, 0.5019758685327368, 0.49528657294283873, 0.48859170355446224, 0.48190719486451766, 0.4752841303559436, 0.46861868616004815, 0.4619669196451582, 0.45533844146912505, 0.4487295982310948, 0.4420518368168438, 0.4354970779032809, 0.42902602618084573, 0.42250108873210374, 0.41600167939530575, 0.40951028347527535, 0.4030679861116861, 0.3966484874670876, 0.39026454316207765, 0.3839111624261471, 0.37759640120116905, 0.37130735721426017, 0.3650679804982485, 0.358848179268288, 0.3526665772939768, 0.3465296008561548, 0.34042692908037037, 0.3343672967103555, 0.3283488702705347, 0.32237424479017246, 0.31636274554375055, 0.3104890359534337, 0.30467894342524937, 0.29888855120950386, 0.29314473800941504, 0.28750502685996737, 0.28185107519038183, 0.2761796021271081, 0.2706421808813285, 0.26515558444294846, 0.25977864995142125, 0.25439015212885646, 0.24903119223421638, 0.24376217261601488, 0.2385504604539998, 0.23343170974310531, 0.2283327103008504, 0.22328202364663466, 0.21830859658590673, 0.21339707933800986, 0.20847710599266828, 0.2037001532919135, 0.19902438069148695, 0.19436265485809265, 0.189765097557849, 0.18523233408094375, 0.1807649563100975, 0.1763487959277177, 0.17201569832131383, 0.16774874399007048, 0.163596717993077, 0.1594576675491321, 0.1553328578127861, 0.1513419365250057, 0.14741848544958575, 0.14359116013199602, 0.1398006586231949, 0.13603782227057382, 0.1323939193778199, 0.12881842924748785, 0.12527969019008603, 0.12184644161347882, 0.11849442513779737, 0.11519572614301414, 0.1119666501084283, 0.108798111960907, 0.10571026933311416, 0.10270024543646608, 0.09975115456886527, 0.09687263520918826, 0.09411424600389956, 0.09137062327888981, 0.08863066462141908, 0.08604191764490501, 0.0835215640672823, 0.08114734281334264, 0.07875414642498922, 0.07643778771635362, 0.07418901193173572, 0.07201188284833265, 0.0699016885462815, 0.06786629815925997, 0.06582667010986641, 0.06393878686119153, 0.062114968384996305, 0.06042751327367389, 0.05872260848379461, 0.057094986988377394, 0.05552393904716363, 0.054019782545576024, 0.05257365549923219, 0.051201829974821436, 0.049875266302840233, 0.04863310396842625, 0.047452457937400216, 0.04627786446378518, 0.04522546134094585, 0.04429130842708573, 0.043344248022878354, 0.04245684362636007, 0.04161755049800009, 0.04084830825332345, 0.04013694823331864, 0.03947986322387936, 0.038877859676673655, 0.03827122253046856, 0.03778440306858014, 0.03742321821275641, 0.03702501110440835, 0.036679582949662524, 0.03638045067794013, 0.03613789003443908, 0.035876184864914056, 0.035739488713318585, 0.035646009701173625, 0.035635422213496484, 0.03562175548638518, 0.03559163861196587, 0.03567218975975527, 0.03579114952115869, 0.03601224778589088, 0.036198219666977095, 0.036356111458927094, 0.036629879634909254, 0.03693754429673892, 0.03730788979577226, 0.037677551895370295, 0.03811940999330805, 0.03854983504242549, 0.039013666328792794, 0.039439882377755336, 0.03997516001735047, 0.0405411796303414, 0.04112579434894134, 0.04173453212927638, 0.04245353066606755, 0.04309681025192454, 0.04369939309478256, 0.04440195955203084, 0.04512373745750011, 0.04585434617596885, 0.0466126949274258, 0.04740541491241098, 0.048191684586480515, 0.048992691716592714, 0.049779177058997634, 0.050609793541412554, 0.05149434736723905, 0.052337992315328374, 0.053192064575908575, 0.05406599048077694, 0.054935739154645336, 0.055752501315753725, 0.05664310917467703, 0.057535064440667, 0.058454413307622105, 0.05934345455770862, 0.06019825851398613, 0.06109182729434009, 0.06198198231921818, 0.06287603344986821, 0.06375614994412218, 0.06463106212667749, 0.06549991832156299, 0.06636186057361378, 0.06723209355158036, 0.06807558877864263, 0.06893993777513674, 0.06976151456237258, 0.07057418096372806, 0.07133256571259844, 0.0721294824838894, 0.07299192214419073, 0.07374836720572278, 0.0744931193884155, 0.07523822446760701, 0.07595395044281969, 0.07664155574212096, 0.07732828757463482, 0.07799716787642674, 0.07865392616349379, 0.07928341590958603, 0.07984047577413747, 0.08043527207847948, 0.0810052367929237, 0.08160625034189532, 0.08211837509970311, 0.08265460358439031, 0.08311446555661223, 0.08355260787256062, 0.08396258013487364, 0.08435476998372952, 0.08467908595729068, 0.08502584262119112, 0.0854052396423461, 0.08568599670463557, 0.08594064582566431, 0.08613895162820653, 0.08634284602769493, 0.08654765786595672, 0.08668757409542367, 0.08679871086179568, 0.08693008863413099, 0.08697590668855458, 0.08703183101479565, 0.08701739132217039, 0.08697626417647263, 0.08690758081931069, 0.08681059126542044, 0.0866940262086459, 0.0865374138424069, 0.08635138538936576, 0.08614085173980549, 0.08589406484994602, 0.08568134214948304, 0.08536577063752693, 0.08502316512328398, 0.08464887260683304, 0.08425092079449384, 0.08384424128135606, 0.08338586030066471, 0.08289934776746856, 0.08246209812434226, 0.08190881446776256, 0.0813151790857151, 0.08071472624187982, 0.08008797301067562, 0.07949227069776915, 0.07880507988618718, 0.07816810038794636, 0.07742434622973503, 0.07666063676702972, 0.0758360730314256, 0.0750355178294807, 0.07426999957538379, 0.07341433675503738, 0.07253837819165673, 0.07162183478968846, 0.07070734090227412, 0.06977119598672209, 0.06881371861961674, 0.0678353040089995, 0.06688729334746815, 0.06586202305401455, 0.06490324867961694, 0.06383467137246374, 0.06275476894417022, 0.06164452666418591, 0.060543691126182644, 0.05952117022018236, 0.058383672717022994, 0.05723926808105557, 0.056050225690881174, 0.05489618816102788, 0.05377708072775642, 0.05259946054055607, 0.051416168993332755, 0.05023287145362839, 0.04903859787005148, 0.04782145157043215, 0.046621848112710675, 0.045418258724457865, 0.04425304843598052, 0.043038862351520046, 0.0418109974790723, 0.04060141296692322, 0.03939340361003914, 0.038250788101531895, 0.037040685495278294, 0.03579697080415009, 0.03460839123352625, 0.03342644053560069, 0.03228423987644164, 0.031114475468170293, 0.02997894684504544, 0.028830054724248308, 0.02769556466796522, 0.02656681338562564, 0.02546449889155394, 0.024453336880659014, 0.023374835273519988, 0.02231863364730351, 0.02123559157866021, 0.020231545820342055, 0.0193167793194852, 0.018347149485406774, 0.017404480685301326, 0.016513414548682097, 0.015623325845529943, 0.014775456590350898, 0.013944744227375464, 0.01314607788836678, 0.01231312460822877, 0.011588920373103474, 0.01089638456604465, 0.010234008595578643, 0.00960469425396514, 0.009073995478929786, 0.008506522058426143, 0.007975505387894748, 0.007490199828815064, 0.007046613204405256, 0.006612101608151469, 0.006258697942657846, 0.006002593762937345, 0.005728228051060535, 0.0055016665829759346, 0.005257994167479627, 0.005137442228719016, 0.005135484084970574, 0.005099686800390719, 0.0051168121175286085, 0.005132604651603828, 0.005264463507841405, 0.005478962926199864, 0.005711778482938092, 0.0060004460955605495, 0.006384629099688051, 0.006782594078917586, 0.00720225423736392, 0.007726678960955912, 0.008310486238174368, 0.008989357233997545, 0.009690119423041342, 0.010433347818082563, 0.011265126304521348, 0.012160666883529835, 0.01307517468412716, 0.014106161891501996, 0.01520049219268284, 0.01635921054948439, 0.017583298414083456, 0.01895668833242008, 0.020303728346138153, 0.021664485031516256, 0.023164323470697887, 0.024733707593212993, 0.02642013072014149, 0.028124543670693065, 0.029872131982289385, 0.03172853239179683, 0.03365749780149361, 0.03567284432497936, 0.037746505166856986, 0.03986122122515548, 0.04208841701196717, 0.044388746815003696, 0.04679082070122473, 0.04923529669768657, 0.05169959192336966, 0.05430341374754947, 0.056980380113445285, 0.05972836683872711, 0.06255354903659677, 0.06544513960164063, 0.0684205910829725, 0.07147071077790706, 0.07464401100919998, 0.07783824653776585, 0.08107043890429651, 0.0844257449932531, 0.0878564057821056, 0.09142406657195325, 0.09499777145835558, 0.09861416595544226, 0.10234954541230563, 0.10616060553367102, 0.11002835361965119, 0.11399237628236936, 0.11803288893440464, 0.12214402824373215, 0.12632874904639135, 0.13053857733532442, 0.13487569629939455, 0.1393523827011514, 0.1438205970220204, 0.1483625978538911, 0.1529227825623652, 0.15761717137001002, 0.16233193687274164, 0.16716929763246038, 0.17207191774333758, 0.17703979026603994, 0.18207280603447892, 0.18723235036514546, 0.1923871685532803, 0.19760972269419252, 0.2028120461318091, 0.208178251223492, 0.213625890796842, 0.21910914854151628, 0.22465299772738823, 0.23021799026431983, 0.23588601016941205, 0.24158764404914823, 0.24737081577226552, 0.25320804618187986, 0.25909485901854046, 0.26503924005541185, 0.271075963066916, 0.2771189260874761, 0.2831827280551034, 0.28933453822741456, 0.29553517322490364, 0.301801090779478, 0.30809427886797125, 0.31437937784302195, 0.3207718845740635, 0.327205627918512, 0.333659688981398, 0.3401758632827685, 0.34669595067315256, 0.35329024853143126, 0.3599182185971216, 0.366640693767828, 0.37332585764338555, 0.3800375705241392, 0.38679140276418883, 0.3935763334061687, 0.40032930906572184, 0.4071798142172224, 0.4140722671080088, 0.4209657977165444, 0.42788148859578656, 0.43473502886112686, 0.44170159531203335, 0.44871645661244547, 0.4557048466904205, 0.46270707689969615, 0.46966835637791476, 0.47670127574028964, 0.48376526080662746, 0.49080810873482844, 0.49785727028077154, 0.504871253114769, 0.511934092745899, 0.5189700914178857, 0.5260350529211493, 0.5330960990868036, 0.5401508279119661, 0.5472009378344239, 0.5542784320504341, 0.5613080063444092, 0.5683294856643113, 0.5753211129346476, 0.5823239087565167, 0.5893043962915696, 0.5962781192413171, 0.6032340151578514, 0.6101330771711845, 0.6170534801334864, 0.6239640558234019, 0.6308322077641817, 0.6376740225231021, 0.6444331131827488, 0.6512246925626014, 0.6580425586958109, 0.6647574834725953, 0.6714395381707224, 0.6780240745835564, 0.6846431926619647, 0.691219436413453, 0.6977544682410816, 0.7042454694247386, 0.7106617159475986, 0.7170645354873066, 0.7234070434827924, 0.7297108846874855, 0.7359622086920796, 0.742142467229749, 0.7482874803303248, 0.7543861426313492, 0.7604145490541593, 0.7663841909863026, 0.7722991235391293, 0.7781466360964586, 0.7839571613776164, 0.7896752106266313, 0.7953294692013007, 0.8009116411012274, 0.8064343887437565, 0.8118119350112286, 0.8172051003343663, 0.8225221961977166, 0.8277717907961887, 0.8329330976172598, 0.8380631585355105, 0.8430613112649087, 0.8479819345979506, 0.8527539761931444, 0.8575240872522919, 0.8622822131404411, 0.8668709985985068, 0.8713767231819805, 0.8758019804752236, 0.880136856985341, 0.8843218516533962, 0.8884894675413778, 0.8925640301138345, 0.8965916949478563, 0.9004720931639859, 0.9042505344972305, 0.9079458299888753, 0.9115458209288164, 0.9150334822205648, 0.9184420514144426, 0.9216953997372072, 0.9249123677724935, 0.9280257356319722, 0.9310111507499428, 0.933919568915052, 0.936771706283301, 0.9394620669936256, 0.9420490348638177, 0.9445440268259717, 0.9469208065444293, 0.9491542049941807, 0.9513261217533218, 0.9533900120149214, 0.9553884395593385, 0.9572300155895502, 0.9589008576132416, 0.9605370022732637, 0.9620618786876942, 0.9635357298923343, 0.9648304150282255, 0.9660010815050392, 0.9670813678542505, 0.9680518055663361, 0.9689308547225297, 0.9696784097164708, 0.970304377342736, 0.9708340578598879, 0.9712529336830588, 0.9715555316730619, 0.9717531618111431, 0.9717551013929271, 0.9717407558554062, 0.9716104491760401, 0.9713649631912333, 0.9710050268139644, 0.9705728295982129, 0.9699807596807059, 0.9692785160864068, 0.9684824241129132, 0.9675586007997105, 0.9665303684516197, 0.9653893879875008, 0.9641406536511856, 0.9627804022637253, 0.9613174731381052, 0.9596979191603081, 0.9580274973535857, 0.956248078207344, 0.9543551935588087, 0.9523611051389904, 0.9502536490487814, 0.9480479613748778, 0.9457370184484422, 0.9433565737229418, 0.9408335386774127, 0.9381484215888565, 0.9354328372609282, 0.9326146404378244, 0.9297030824129997, 0.9266822726172297, 0.9235776094443479, 0.920358865355745, 0.9170445430098243, 0.9136369484834505, 0.9101342187333494, 0.9065242112149206, 0.9028392533907199, 0.899062959520979, 0.8952607665545609, 0.891297193626278, 0.8871864987917959, 0.8830631742392466, 0.8788535607222862, 0.8745362298131036, 0.8701609169252305, 0.8657033845970166, 0.8611623144886811, 0.8565408030059922, 0.8518671179050092, 0.8470858002434113, 0.8422085708546982, 0.8372822410491305, 0.8322827618635508, 0.8271942086672714, 0.8220550764875877, 0.8168944692142928, 0.8116115247746054, 0.8062648628183151, 0.8008275908882563, 0.7953607625390547, 0.7898110099739014, 0.784225451740874, 0.7785803258153028, 0.7728733642978428, 0.7671148416615946, 0.7613044058973568, 0.7554381042243318, 0.7495409146202882, 0.7435718266419625, 0.7375562786309574, 0.7314529480991852, 0.7253544782546315, 0.7192827162563652, 0.7130886786680578, 0.7068581617572275, 0.7005803996778328, 0.6942823473708993, 0.6878882018215814, 0.6815332845643823, 0.6751447128271912, 0.668783456682715, 0.6623262605532204, 0.655800581435281, 0.6493018364942174, 0.6427792661595821, 0.6362173322147116, 0.6296548894480404, 0.623103969929029, 0.6165010314353526, 0.6098843936934397, 0.6032730849066543, 0.5966317161614769, 0.589969103999082, 0.5833152004107366, 0.576655669490878, 0.5699640128733222, 0.5633016347451653, 0.556667693073949, 0.5499985411292606, 0.5433323982703816, 0.5366266066624571, 0.529976646549935, 0.5233291189757748, 0.5166916004629689, 0.5100627606903687, 0.5035073421580751, 0.4968933055808536, 0.49026466581477585, 0.48369094164793924, 0.4771353508660411, 0.4705685982304945, 0.46405765279795996, 0.45753142246257006, 0.4510684856853294, 0.4446277563720509, 0.43828612384930055, 0.4318859891732773, 0.42549636170186916, 0.4191638929700512, 0.412864363249964, 0.40655488618894947, 0.4003306985334858, 0.3942117824405693, 0.3880488557249746, 0.3819273871053965, 0.3757612771525823, 0.36973653161982406, 0.36382349759581983, 0.3578701078838338, 0.3519634567831326, 0.3460656582016858, 0.340260222366901, 0.33449013039982944, 0.32878226394712146, 0.32312358937690655, 0.31752341270274853, 0.3119658735141362, 0.306501811997486, 0.3010468800217238, 0.2956496049182353, 0.29028923537892143, 0.28501200185011755, 0.2797624582310004, 0.27460694094714977, 0.26950986478639705, 0.26447094569134205, 0.25949403089025125, 0.25458785747933826, 0.24973340556338527, 0.2449426192443513, 0.24019883222001565, 0.23553976030370438, 0.2309133570356199, 0.2263887278559937, 0.22192859916374705, 0.217600851480402, 0.21326399076478122, 0.20897119109529005, 0.20477957400723426, 0.20065765700767457, 0.19661253415222446, 0.1926303414061962, 0.18866176638653678, 0.18482949381702704, 0.1810656816403501, 0.17737770575491446, 0.17375193299868313, 0.17022492453797244, 0.1667372972501415, 0.16332264762665197, 0.15993284208968503, 0.1566704172287195, 0.15350115396858768, 0.15037703537814043, 0.14732528930488295, 0.14439283878774473, 0.1414800596132707, 0.13864904731549962, 0.1358851395090914, 0.13319583821371997, 0.13055926233415266, 0.12802051892970054, 0.12550162234855672, 0.12311335013179413, 0.12079367768095503, 0.11854139180506157, 0.11635939417194612, 0.1142527840745537, 0.11220726305053354, 0.11023062497913631, 0.10831995993104201, 0.10648068436082413, 0.10476420548865252, 0.1030534549202077, 0.10141296866135291, 0.09982582096537967, 0.09832533605511645, 0.09693319464141603, 0.09556045465222757, 0.09425550908333746, 0.09291824983884234, 0.09175836122665809, 0.09067913060812437, 0.08963485502748858, 0.08865063792462258, 0.08775278183949717, 0.0868838240056729, 0.08606817108297171, 0.08531923738960628, 0.084628274155638, 0.08399181379172874, 0.08341474240315122, 0.08291582886429337, 0.08244585231842615, 0.0820308891615795, 0.08159492076163617, 0.08129634614998217, 0.08109768399146328, 0.08088747162227276, 0.08072695704613374, 0.08063925218471701, 0.08057211278582121, 0.08050483231229154, 0.08053869598951392, 0.080615511407842, 0.08070503064450182, 0.08086905983119481, 0.08109332562039054, 0.08133161843863439, 0.08160855706890202, 0.08192588078028477, 0.08227693113530839, 0.08262907601668969, 0.08305530841960072, 0.08351341543291284, 0.08403073193243131, 0.08454664037001358, 0.08507879034977368, 0.08565736305023566, 0.08626379958897866, 0.08690376539064827, 0.08756197766390736, 0.08823190047812512, 0.08894087303618078, 0.08967192571115755, 0.09040260345938055, 0.09117741005318426, 0.09200342174304381, 0.09280855989955832, 0.09363147421619858, 0.09445219137516098, 0.09530935139268047, 0.09617288501658906, 0.097055980047037, 0.09794966421385871, 0.09886230149504789, 0.0997729431174168, 0.10071306621136009, 0.10163600776006751, 0.10256599533783782, 0.1034950626274575, 0.10443620089466199, 0.10533073731767993, 0.10628287434997903, 0.10723290822388275, 0.10820021600595757, 0.10914135288723019, 0.1100685902084493, 0.11100375168085276, 0.11194794566535136, 0.11286898923873911, 0.11378342580698915, 0.11469025873955022, 0.11558850308458234, 0.11650128618077504, 0.11737640146621715, 0.11824140255179395, 0.1190804361320744, 0.11992373281922916, 0.12078629805611886, 0.12159605863050822, 0.12239171927151289, 0.12315608508583455, 0.12392224457428878, 0.1246835595691128, 0.12541070725679138, 0.1261186956219447, 0.12679590704751217, 0.12746425010296092, 0.1280861270414652, 0.12871207416929265, 0.12931290333443254, 0.12986805790950534, 0.1304197673000623, 0.13098798755215912, 0.13147845057786398, 0.1319430728532256, 0.1323972192253069, 0.13280605676013782, 0.13313171587185188, 0.13349303841327553, 0.13382283658768984, 0.13420258882354927, 0.13445841624675114, 0.1346224141211672, 0.13483035578668012, 0.13500543260185996, 0.13520097702523395, 0.13530288532736487, 0.13537828827135556, 0.13541800085894962, 0.13542618904393383, 0.13540764816915216, 0.1353504863979424, 0.13526058632704538, 0.13513750392211743, 0.13498084709352598, 0.13476751128191128, 0.13454559836181615, 0.13436559210722818, 0.13406233141024118, 0.13372763183426759, 0.13332471849394043, 0.13292992994707034, 0.13248935937206113, 0.13202570604540648, 0.1315262625984262, 0.13107947482227286, 0.13049753817210322, 0.12986900657085276, 0.12922747683332672, 0.12855348924269908, 0.12783208388457293, 0.12709442040278085, 0.1263778868749354, 0.125565845315179, 0.12472334564643398, 0.12385681504025325, 0.12295184255649867, 0.12207382484651369, 0.12110026934823277, 0.12009926583193056, 0.11912398443929201, 0.11806027919550734, 0.11699542907426141, 0.11587770356683418, 0.11473526313470077, 0.11353825009500274, 0.11234903941613889, 0.1111969327063612, 0.10994549169475307, 0.10867101042659279, 0.10739207910160717, 0.1060688091495223, 0.10473683785177527, 0.10336772658478045, 0.1019774491561597, 0.1006076416584081, 0.09917027679269197, 0.09774956981269402, 0.09627156600751659, 0.09477761353026275, 0.09325968277574322, 0.09173498498901364, 0.09022773332214125, 0.08866715680940707, 0.08709332458541055, 0.08557748683491628, 0.08396913612305298, 0.08234730534450713, 0.08072336217093873, 0.07909109155556103, 0.0774708618925882, 0.07582035749300096, 0.07421736685985983, 0.07254841257433543, 0.07087732495121182, 0.06915069836594025, 0.06748269062637278, 0.06590407878906536, 0.06421648631365827, 0.06253169665493924, 0.06085529302316075, 0.05917623286951317, 0.05753343311541914, 0.05585906460313308, 0.05419171409860108, 0.052537142905365035, 0.05088446784397385, 0.04918973701726148, 0.047561764604526664, 0.045941083138883454, 0.044367690487126465, 0.04276019614130771, 0.041197824757218844, 0.03961310952274938, 0.03804494835800496, 0.03654221197299768, 0.035003135190466696, 0.03350691870240522, 0.032008445481592915, 0.030533570225701002, 0.029022468234588095, 0.027603769564023366, 0.026212170201655078, 0.02483742273604481, 0.023486999500378462, 0.022251698198155992, 0.020941858701168468, 0.019688753520013775, 0.018441502068621163, 0.01722905492595215, 0.015996849562521336, 0.014862036155021269, 0.01375484272562361, 0.012687666463668031, 0.011655187844546916, 0.010714698817934592, 0.009747676178305782, 0.008818986979134899, 0.007934910415116259, 0.007092911028906424, 0.006296358787801458, 0.005540282640344791, 0.004799142409597294, 0.004136321263675369, 0.0035177534840459875, 0.0029457967703035623, 0.0024186046860510805, 0.0020190756712574623, 0.0015773389005250256, 0.0011893277692200405, 0.0008097912155081322, 0.0005358617640988188, 0.00035158190036163064, 0.00017803250224941527, 6.0338836545642935e-05, 8.356832135366707e-06, 2.6691701467768445e-06, 0.0, 0.00011755694888126558, 0.00029092617298404966, 0.0005545416363806456, 0.0008381485449574001, 0.0011447235375962965, 0.0015545601012021137, 0.002023898392920752, 0.0025589628947111777, 0.003149189832448208, 0.0038204387531309164, 0.004533549089175279, 0.005311351769182992, 0.006169055942921796, 0.007075812640182897, 0.008036104376758666, 0.009078723763444001, 0.010188159173122734, 0.011388936964596478, 0.012630218699456821, 0.013935538648819972, 0.01531646282422693, 0.016766840703488342, 0.018290916956111285, 0.01988037289058194, 0.021532140311032368, 0.023263475546207432, 0.025065046372673497, 0.026884860281860025, 0.028834158471889658, 0.030866106960917843, 0.03294997592168668, 0.035103697633886995, 0.037324924504760014, 0.039619632428398895, 0.0420103295225612, 0.04444313569654748, 0.04691617048742684, 0.04949768671145209, 0.05214959387020275, 0.0548787384341376, 0.057670989403676334, 0.06056377797517129, 0.0634944317023225, 0.06649771250115974, 0.06949830275197953, 0.07265529550184704, 0.07588101844577776, 0.0791728758783505, 0.08253262070806126, 0.08594159149571055, 0.0894396607892495, 0.09306620052857079, 0.09669028685245601, 0.10038471864611129, 0.10411944360729282, 0.10795649820203805, 0.11181626436643897, 0.11579232498971238, 0.11983202569901662, 0.1239165385899766, 0.1280855629144651, 0.13230063590167856, 0.1365957780003284, 0.14095176634901677, 0.14542332866506133, 0.1498934864545979, 0.15440808602064784, 0.15900615040112698, 0.16366466853044212, 0.16832268732774353, 0.17310759284017074, 0.177976833636553, 0.18286747583891266, 0.187813969910238, 0.19276875908330193, 0.19783075354207616, 0.2030066904783577, 0.2081623255407674, 0.21337156256947817, 0.21860787315754862, 0.22392425870526095, 0.22922527364760087, 0.23464668077976455, 0.24011155540961002, 0.24564356031155596, 0.25119092129154164, 0.25675475091647487, 0.2623911124091583, 0.26806741754140817, 0.2737936302418292, 0.27954616335034044, 0.2852698704480049, 0.2911060966915179, 0.2969746315234586, 0.30291242262724677, 0.3088391136120486, 0.3148076820868341, 0.32079709023435066, 0.3268172781670957, 0.33285360751402615, 0.3389332806689026, 0.3449521519955264, 0.3510940873088792, 0.35725495140950697, 0.36343687683139225, 0.36963351515395876, 0.3758392469318037, 0.3820702915188823, 0.3883162089980858, 0.39455061587001455, 0.4008265914731314, 0.40713573665626224, 0.41342872286517446, 0.4197314628107062, 0.4260038754390113, 0.43232723507658705, 0.4387118752517246, 0.4450343341453145, 0.4513615927366354, 0.4575942924596882, 0.4639386561929521, 0.4702667871080859, 0.47660065126271317, 0.4829266825794058, 0.48930959340811003, 0.4956089038273977, 0.5018114443072468, 0.5081063297164594, 0.5143858493083631, 0.5207173877161981, 0.526954767251528, 0.533177688643044, 0.5393844931673438, 0.5455735360430009, 0.5516441090786517, 0.55780527766799, 0.563938274216913, 0.5700423064164534, 0.5761164971114052, 0.5821706049786909, 0.5881808347463171, 0.5941413701645641, 0.6000880085729559, 0.6059989189114662, 0.6118984033667341, 0.6177311901474251, 0.6235301659251788, 0.629285342533954, 0.6350000235858062, 0.6406499721221277, 0.6462821206266391, 0.6518855005950331, 0.6574218363650092, 0.6629104361623942, 0.6682548164879107, 0.6736557074882971, 0.6790367848389631, 0.6843177103711441, 0.689542115380067, 0.6947263317601535, 0.6998322497285093, 0.7048003400609706, 0.7097973050884646, 0.7147284607102351, 0.719648074262079, 0.7244387194432068, 0.7291056429734964, 0.7337728632545089, 0.7383694722353467, 0.7429563010939998, 0.7474015820727631, 0.7516983113110892, 0.7560130957533374, 0.7602511856928073, 0.76441727142306, 0.768499254338794, 0.7724906692549354, 0.7764163165374889, 0.7802611028967277, 0.7840590772792659, 0.787735431321882, 0.7912930397189021, 0.7948105246759645, 0.798242484252939, 0.8015667549191552, 0.8048281377557843, 0.8080018804479407, 0.8110845470780854, 0.8140771112321897, 0.8170137477327285, 0.8198197873455646, 0.8225692170667286, 0.8251899280325278, 0.8277206072023485, 0.8301654817602778, 0.8325121047223472, 0.8346881611178726, 0.8368578065386332, 0.8389282998444619, 0.8409476169312643, 0.8428130203661083, 0.8445236788547918, 0.8462013590895824, 0.8477773630648211, 0.8492877276065031, 0.850655450607707, 0.8519392025453766, 0.853104373084127, 0.854169546619937, 0.8551542924076375, 0.8560154371457672, 0.8567629191401063, 0.8574246685260231, 0.8579843739446542, 0.8583573737451596, 0.8587227626396178, 0.8590622350251915, 0.859202608940453, 0.859240908867233, 0.8591755433204055, 0.8590091559902884, 0.8586650297571147, 0.8583024992661333, 0.8578328406063916, 0.8572887715080117, 0.856602511454068, 0.8557550068777642, 0.8548689175378251, 0.8538764101497892, 0.8528304272346658, 0.8516206179573683, 0.850337497575267, 0.848921479504352, 0.847406044414205, 0.8458072939533924, 0.8440911566082242, 0.8422513418995754, 0.8403420163037129, 0.8383439471043334, 0.836234764374576, 0.8340275752361764, 0.8317120565300745, 0.8293114159293323, 0.8267465153712417, 0.8241603059630971, 0.8214742478351125, 0.8187578147628894, 0.8158669575327664, 0.8128152584410756, 0.8097484565824838, 0.8065863870958331, 0.8034011864676707, 0.8000431094218442, 0.7965864870073014, 0.7930546346046713, 0.7894354821688557, 0.7856628221810031, 0.7818797844849305, 0.777997308089282, 0.7740395598303094, 0.7699952319650858, 0.765864403752961, 0.7616513075701431, 0.7573583955634681, 0.7529813191694623, 0.7485245706191516, 0.7439867603217567, 0.7393748609694276, 0.7346950112831286, 0.7299314186824538, 0.7250948687535362, 0.7202254088187545, 0.7152417027479858, 0.7102083105620173, 0.7050891581401584, 0.6999058168775493, 0.694577510823703, 0.6892788681620188, 0.6839638608837413, 0.6785288727895629, 0.6730341791048617, 0.6674448966873758, 0.6618391881511609, 0.6561836536140561, 0.6504628402680301, 0.6446878630080998, 0.638857582374896, 0.6329792287301614, 0.6270324263012707, 0.6210585904839286, 0.6150371095289522, 0.6089683486794757, 0.6028568400853668, 0.5967548856078541, 0.590553115475264