0.03169609999246913, 0.031389997091985075, 0.031118944260023863, 0.03085750678798544, 0.030614775678165562, 0.03036326124068299, 0.030153129770678928, 0.029913947882060008, 0.029727379704910465, 0.02954582415543624, 0.029360258200673225, 0.02918757606938364, 0.029034024203645745, 0.028864258635437907, 0.028697564687250186, 0.02847807435821068, 0.02832389784430884, 0.028167122373970805, 0.02801256213353603, 0.02785409731996059, 0.027700940150157036, 0.027548664108727, 0.02739155970493151, 0.027243224088063442, 0.02707825051551346, 0.026936536305419752, 0.026796608684000325, 0.02663844573224545, 0.026506387488495074, 0.026413650967382903, 0.02628201747286559, 0.026155908167990398, 0.025979929324185923, 0.025872565516708062, 0.02577855031102958, 0.025676625901307856, 0.025579551943729864, 0.025526905806870052, 0.02543585676537014, 0.025280947960943902, 0.025215498813470696, 0.025154263919096642, 0.025118443775908796, 0.025064770439901695, 0.02499336110241995, 0.024957037797309192, 0.02492679952557474, 0.02495249108826693, 0.024929345179583475, 0.02489554729973112, 0.024894788888044424, 0.02490261604063823, 0.024882038631991458, 0.02491198734705628, 0.02497753464526644, 0.02501773299047404, 0.025067025599826712, 0.025071927482459417, 0.025146399975223124, 0.02521481931498143, 0.02530397033523676, 0.025399687203242368, 0.025564271045253342, 0.02566676069987954, 0.02577857788877153, 0.025903965655787477, 0.026040375223367634, 0.02618155357684479, 0.026340588094932383, 0.02651837524905385, 0.026697425277775532, 0.026887523774472025, 0.027041276755675078, 0.02725943381978151, 0.027512763482624818, 0.02774473386465552, 0.02798739157647062, 0.02822232981890209, 0.028489103573295673, 0.028827718563521166, 0.029107044851304775, 0.0294004245724382, 0.029684947162574547, 0.03000859208155029, 0.030385600316821824, 0.030728423727705505, 0.031085853187333787, 0.03142055999463989, 0.03181119101894429, 0.032191084590057734, 0.0326086085230884, 0.03303714954213098, 0.03348119066225945, 0.033932309480051506, 0.03440393301403565, 0.03487880061899409, 0.03536690127982344, 0.035864279069510986, 0.03637985297765638, 0.036894484026017076, 0.037439014687655245, 0.03799656319967655, 0.03858388591782265, 0.039166193564378726, 0.03974466653983415, 0.040358807292202356, 0.0409867689832951, 0.04163701520476681, 0.04229222728030446, 0.04297469208528378, 0.04365822650968409, 0.04435753708935624, 0.04506436718596131, 0.0457962259763095, 0.04655366078755559, 0.04731483080670963, 0.048091971065331265, 0.04888916791406419, 0.049697631765076085, 0.05048719033695295, 0.051332253833148066, 0.05219136054350918, 0.05311624587153925, 0.05399760716368461, 0.05486562288929548, 0.05578573558935741, 0.0567211698257444, 0.057709041800471005, 0.05867053319678252, 0.059626851622381336, 0.060625893110524805, 0.0616406025508825, 0.06265444880195303, 0.0637024226730055, 0.0647814628146348, 0.065856604639457, 0.06694739600125862, 0.0680269677569453, 0.06915217471253324, 0.07031391815410093, 0.07146413861609492, 0.07262972837162418, 0.0737776164069474, 0.07497777479978943, 0.07623643100032276, 0.07745736505237755, 0.07869428144640492, 0.07993865626868622, 0.08120774238528534, 0.08245240195240072, 0.08375568456461044, 0.08507113101846916, 0.08642772113105694, 0.08776423219328378, 0.08911483510481498, 0.09047933261696504, 0.09185752670364865, 0.09325539812096521, 0.0946596054635533, 0.09608137472892671, 0.09751169191281647, 0.09895517992620914, 0.10042185972764493, 0.10188955769890556, 0.10335370817561446, 0.1048490097252833, 0.10635564422002718, 0.10785694667625308, 0.10938776842924165, 0.11092224422437327, 0.11247344420205037, 0.11403396708781834, 0.11556460953577932, 0.11714850807723229, 0.1187742841138395, 0.12036765117326807, 0.12197014172526643, 0.12356094162222116, 0.1251836257926201, 0.12680123331162704, 0.12843995887488943, 0.13008506773702797, 0.13170561278192008, 0.13336721281195502, 0.1350970649680765, 0.13675947464913976, 0.13842999506100623, 0.1400524782257795, 0.14174467951019035, 0.14346504642832442, 0.14516097517662885, 0.14686161442108547, 0.1485584028749153, 0.1502685295247595, 0.15198808810890277, 0.1537036531400678, 0.15542223231056554, 0.1571290417889304, 0.15885437315864198, 0.16057255791992797, 0.16230085142748849, 0.16402922461699063, 0.16574508187652504, 0.16747444568809716, 0.1692168388360894, 0.17094139846604317, 0.17266494684700007, 0.17439123193558284, 0.17611111201436275, 0.17783730989458849, 0.1795518752208864, 0.18126412118374846, 0.18297560927056594, 0.18468146789349957, 0.18636304907895096, 0.1880636613722676, 0.1897584576477833, 0.19143476389181954, 0.19311853381111838, 0.19481540995320076, 0.1964813362426903, 0.19814039789510965, 0.1997859548259249, 0.20143069065023664, 0.20310186187149262, 0.2047246007471109, 0.20629871529275784, 0.20791112293506558, 0.20951244676970185, 0.21110239080427448, 0.21268064491678565, 0.21426748586156244, 0.21581877642304914, 0.21735853310786954, 0.21882649976721855, 0.22034920143157738, 0.2218905199553321, 0.22337598761897204, 0.2248469652549178, 0.22625981694014655, 0.22770614789041752, 0.2291838547195621, 0.2305877679199996, 0.23197626498165957, 0.23329938274056183, 0.23466173813447072, 0.23601466798810047, 0.23733618107664828, 0.238638329936411, 0.23991469075377606, 0.24117814106611066, 0.24241285267376694, 0.24363610167160282, 0.24483788024757155, 0.246042694317466, 0.24719774475152467, 0.2482846312183137, 0.24940363322761552, 0.25049826537180336, 0.25160142128293905, 0.2526429137053322, 0.25366776503106403, 0.25466240821018127, 0.25563373432321085, 0.2565915858662784, 0.25751361970086384, 0.2584115898351398, 0.25928500248883796, 0.2601333888008818, 0.2609501236195482, 0.2617479249085484, 0.2624840635211091, 0.26323267265376415, 0.26395202011063823, 0.2646235398384301, 0.265286605114475, 0.26593364151415105, 0.266534048329771, 0.26710490608019166, 0.26767081772647366, 0.2681790921414036, 0.26867530550415897, 0.2691240745684036, 0.26954456698313545, 0.2699363492815013, 0.2702990231183992, 0.2705869041396665, 0.27089602484403036, 0.2711724865870895, 0.2714369732306539, 0.271645745624377, 0.271802611350547, 0.27195124052288683, 0.2720671479894369, 0.27213596298597215, 0.27218838472508194, 0.2722506470083263, 0.2722308978291995, 0.2721804082799197, 0.2720700892766761, 0.2719610445064918, 0.2717901365943462, 0.27161875346051295, 0.27141284932293197, 0.271152111395753, 0.27088059883976745, 0.27062361916225447, 0.27027641557123244, 0.2698977835069714, 0.2694320033396458, 0.26899726195647505, 0.26855862223628885, 0.26805077966684215, 0.26751063674319187, 0.2669671135354378, 0.2663589682938708, 0.2657306912547616, 0.26506023981128907, 0.2643596872538944, 0.2635711976721825, 0.2628173034818864, 0.2620111772467388, 0.2611926605447238, 0.26034022251593614, 0.259540901222225, 0.2586112056870964, 0.2576250600445453, 0.2566435168053693, 0.2556322617435257, 0.25455429469060215, 0.25348856445130163, 0.2523810481876292, 0.25125409158742934, 0.2500959413308322, 0.2489194517663807, 0.24769881270431593, 0.2464387925419039, 0.2451616287215439, 0.2438554747788165, 0.24250838629873203, 0.24114705017163632, 0.23975312674542146, 0.23833586542423288, 0.23689086521996452, 0.2354227350441895, 0.23392318636525702, 0.23243256813813193, 0.23087682745070792, 0.22929778369655096, 0.22765641960393007, 0.2260361153517021, 0.2244299092537698, 0.22275510064745552, 0.22105848634230119, 0.2193464331893613, 0.21760601693181192, 0.2158097708207357, 0.2140323806899708, 0.2122326840473313, 0.2104132990686843, 0.20857039364503713, 0.20674402241777484, 0.20485585501337616, 0.20295025124585836, 0.20099034249050543, 0.19905521956824734, 0.19711161002974953, 0.19513821460951453, 0.19314780473715853, 0.19117795829182616, 0.18915032974433257, 0.18711338956510887, 0.18505858343987347, 0.18299102866119332, 0.18089449311395392, 0.1788043029741722, 0.17675690472743685, 0.17463450712560488, 0.17250337052203907, 0.1703553054401865, 0.16820794712211112, 0.16601258361229065, 0.16385272983260588, 0.16168242760151608, 0.15952501016779821, 0.15733295818503046, 0.155158442423407, 0.15294936338459977, 0.15073543206524642, 0.1485457804545301, 0.1463194120699435, 0.1441031506307283, 0.14187087037313303, 0.13963739721675927, 0.1374461484204438, 0.13520535022211577, 0.13298908060925335, 0.13074911422070143, 0.12851228726912683, 0.12630325012006252, 0.12406945730400284, 0.12189379626249273, 0.11966234582888165, 0.11743849623987758, 0.11521988789313747, 0.11301072278221204, 0.11087647290196247, 0.10867262958659761, 0.10647970688924402, 0.10429529778332695, 0.1021235677702419, 0.10000112249847252, 0.09784475889988357, 0.09570087440535108, 0.09361878547079101, 0.09149334991702499, 0.08937487361475337, 0.0872806459153101, 0.0852008133090286, 0.08319105925694294, 0.08113326651241969, 0.0791840729845772, 0.07715059124686216, 0.07513996622787275, 0.07308355139112041, 0.07112540702685632, 0.06930634818699286, 0.06736828712590005, 0.06545535600767782, 0.06356703287159109, 0.06170295648454996, 0.05994530572542149, 0.05811877367259396, 0.0562816787737863, 0.05451669890308058, 0.052777167338104794, 0.05113114094112783, 0.049434237357072905, 0.04780211100294478, 0.04616006427576333, 0.044549402899609444, 0.04296778908330186, 0.04141945623545655, 0.039939015334256436, 0.03844770520989922, 0.03698954424047071, 0.03561391708119087, 0.03421574183913169, 0.032855676293216465, 0.03152915209723399, 0.03023853162466943, 0.028985884670001204, 0.027766929859638405, 0.02662753828473822, 0.025475949102869037, 0.024363603898543983, 0.023348169313380032, 0.022307069765392425, 0.021308662048091655, 0.020352695744121123, 0.019439033371302206, 0.01857793631971608, 0.01774755121238815, 0.016962241728086982, 0.016217733618001596, 0.015516635224615922, 0.014867399090546381, 0.01425276732645919, 0.013668370830183026, 0.013145148336601376, 0.012666362250202437, 0.012296333107914482, 0.01189974464095178, 0.011523756679751305, 0.011229669018220334, 0.010983418881357622, 0.0107709174274396, 0.010623178925772612, 0.010581198642036303, 0.010522825144302517, 0.010516760554805863, 0.010577449263757177, 0.010674304385699789, 0.010793598366170613, 0.011001078006393425, 0.011260291783233362, 0.011548957733038398, 0.011915640960158834, 0.012333928445355559, 0.01280438512654664, 0.013327551437181803, 0.013899824152800723, 0.014530457606157593, 0.0152480103652279, 0.015982880223633235, 0.016774501964292185, 0.01761068632037218, 0.01851789634509509, 0.019465225881984998, 0.02048801290394391, 0.021567056967493253, 0.02266157113018965, 0.023859549198408613, 0.025176492687881687, 0.02647728322711603, 0.027838047156439744, 0.029201145902738618, 0.030689280132040343, 0.032226062216880715, 0.03382954482958011, 0.0354904634901383, 0.037215496147896134, 0.03899194780951091, 0.04084606425877469, 0.04273872722104445, 0.044692131554073165, 0.04668988817594406, 0.04876711987619915, 0.0509414877114176, 0.053134338571069, 0.055389688033136424, 0.05761880407800502, 0.06000990156740933, 0.06251990314707777, 0.06501799353894526, 0.06757776827928422, 0.07012707512894448, 0.07281916677610076, 0.07560579732190052, 0.07840862972523786, 0.08127194338846327, 0.08412988214581307, 0.08712265071964928, 0.09020938336509302, 0.09331174665313414, 0.09647401280185539, 0.09969210726261375, 0.10297479945586832, 0.10630895265901875, 0.10971206539475882, 0.1131743380460366, 0.11664837222464691, 0.12023485978211167, 0.1238941625659339, 0.12759149806279377, 0.1313465386076066, 0.1351489670409755, 0.13902062086299347, 0.1429842321193731, 0.14696527168882886, 0.1510050422916294, 0.15509075129421904, 0.1592482441250367, 0.1634439247324976, 0.1677168708381861, 0.17204479621852295, 0.1763862727969091, 0.18082864436313967, 0.1853785148697783, 0.1899176227122922, 0.19451167961051252, 0.1990983174297197, 0.2038083749151622, 0.20858261761221225, 0.2133903029456324, 0.21824833757881879, 0.22310490175474484, 0.22806914220170163, 0.23310035876950674, 0.23815472768857435, 0.2432565050645288, 0.24842800453656275, 0.25362064766252423, 0.25877221327107897, 0.26407039291529827, 0.2694097596019393, 0.27480887123056263, 0.28022822074360015, 0.2856792553460198, 0.29118346590922217, 0.2967282030686787, 0.3023459862117993, 0.30796623158012454, 0.31355526564273684, 0.3192655353399752, 0.32501090404402255, 0.33082608327127444, 0.33663621791162907, 0.34245341735844487, 0.3483381941410215, 0.35425560579151144, 0.36020708185377137, 0.3661875611106107, 0.37221935237786485, 0.3782578675868924, 0.38432664664282606, 0.3903855326185657, 0.3965167251946317, 0.4026749651644114, 0.40885514403106354, 0.41505892338450173, 0.4212463311494751, 0.42749972429145294, 0.43376573609459834, 0.4400568890351913, 0.4463651897984265, 0.4526961220543314, 0.4590357876046976, 0.4654051017254421, 0.47177249015326767, 0.47815405423725926, 0.48449101382604576, 0.4909048993597773, 0.4973366674680199, 0.5037637308041389, 0.5101975133169798, 0.5166165130393139, 0.5230635836698455, 0.5294845336126156, 0.5359398224989473, 0.5423944259724117, 0.5488228865552345, 0.5552769567632816, 0.5617038674130179, 0.5681510637659227, 0.5745909332766549, 0.5810104119245764, 0.5874349921216927, 0.5938471318424012, 0.6002503764444586, 0.6066537414615571, 0.6130299881520871, 0.6193927160133306, 0.6256892574768642, 0.6320279174987068, 0.6383527419245468, 0.6446497435601979, 0.650925310304592, 0.657147507489574, 0.6633809526879318, 0.6695756127496864, 0.6757568445063947, 0.6819090408833661, 0.6880415518105997, 0.6941314624331815, 0.7001651645370339, 0.7061940216617472, 0.7121875688520902, 0.7181303246637938, 0.7240518416321664, 0.7299380359857057, 0.7357790752699096, 0.7415787145005244, 0.747337824416684, 0.7530508060627331, 0.7586611735302287, 0.7642902955916779, 0.7698686682635613, 0.7753789678863411, 0.7808553265596877, 0.7862669875136599, 0.7916349650140184, 0.7969461310904296, 0.8022407669068036, 0.8074302923445079, 0.8125315070984297, 0.8176087228048412, 0.8226240121122602, 0.8275762440376662, 0.8324642662362892, 0.8372972090929471, 0.8420519885456466, 0.8467395928654399, 0.8513381418846144, 0.8558901652869868, 0.8603597381462827, 0.8647676726179486, 0.8691006898939478, 0.8733433482762113, 0.8775252745542452, 0.8816386709018506, 0.885660699408842, 0.8896025859630133, 0.8934262007786914, 0.8972093393303374, 0.9008741461371709, 0.9044899609374312, 0.9080170313696383, 0.911485720146494, 0.9148297327571225, 0.9180973344843134, 0.9212613225511813, 0.9243353917483392, 0.9272649653125585, 0.9301629312121222, 0.9329896901947917, 0.9356921458113183, 0.9382989650221225, 0.9408505563669969, 0.9432585264581583, 0.9455254966109179, 0.9477467321364975, 0.9498675909100853, 0.9518833175020806, 0.9538020402173601, 0.9556347400956211, 0.9573457893815446, 0.9589540976452475, 0.9604610229224645, 0.9618615106749968, 0.9631120320107308, 0.9643083201312453, 0.9653961792439535, 0.9663980600628297, 0.9672655558088806, 0.9680396493197988, 0.9686892575748732, 0.9692310327169201, 0.9696459414126194, 0.9699729503423808, 0.9702267951618634, 0.9703283962586182, 0.9703213863472439, 0.970155832835951, 0.9699364277030026, 0.9696455247772092, 0.969195586817181, 0.9686354054224604, 0.9679873852278387, 0.9672031364641572, 0.9663010566681728, 0.9652983721937176, 0.96418511115283, 0.9629261565204179, 0.961595928357554, 0.9601385992167192, 0.9585851652134534, 0.9569189192665486, 0.9551815341720252, 0.9532858773844451, 0.9512852665757854, 0.949171093698118, 0.9469484330746344, 0.9446010222634142, 0.9421641714908546, 0.9395795696282762, 0.9369309379821277, 0.934172515588032, 0.9313381277170207, 0.9283585445960754, 0.9252550519314602, 0.9220676539483981, 0.918775040769947, 0.9153965478975625, 0.9118935623890367, 0.9083053137537838, 0.9045974533947615, 0.9007902005571374, 0.8968574110904209, 0.8928567166973496, 0.8887963254533362, 0.8845940112608087, 0.8802970780225473, 0.8758856517006726, 0.871404321012726, 0.8668316278208588, 0.8621642530253167, 0.8574057242682843, 0.8525427268117153, 0.8476070591764004, 0.8425684162884631, 0.8374587726947034, 0.8322624030744571, 0.8270260841895362, 0.8216549082379404, 0.8161421323956225, 0.8106202713751633, 0.8050174014438511, 0.7994093828294913, 0.7936402102824014, 0.7877724761107687, 0.7818641955137062, 0.7758848393158134, 0.7698049258785099, 0.7636916101009622, 0.7575057124769949, 0.7512577517586434, 0.7449446110694579, 0.7385783771709602, 0.7321389316264044, 0.7256793747761361, 0.7191181784871954, 0.7125033367740224, 0.7057929978691176, 0.6990806068579921, 0.6923659513347451, 0.6855457995803855, 0.6786805096602007, 0.671736557652913, 0.6647899533118202, 0.6577576143636422, 0.6507334389956858, 0.6436681844931561, 0.6365682343533378, 0.6294270509503023, 0.6222805323141398, 0.6150694749977726, 0.6078300797350755, 0.6005518297924353, 0.593262859442027, 0.585964833186696, 0.578629057018825, 0.5712745465529174, 0.5638949054250514, 0.5565095089560315, 0.5490857571482994, 0.541678151968372, 0.5342593981694306, 0.5268192702564136, 0.5193861581375007, 0.5119640089419042, 0.5045199404922399, 0.4970755683232579, 0.48963285703780607, 0.48219375959008914, 0.4747725774649116, 0.46734495969918743, 0.4599274429841457, 0.45249917895927205, 0.4451101644857019, 0.43776219676210487, 0.4304003272057994, 0.4230581958076081, 0.41568603768148543, 0.4083950996455346, 0.4011818410482333, 0.39393014862323444, 0.38665845983943253, 0.3794735111841432, 0.37231845657058427, 0.36520149832588966, 0.3581114731831374, 0.35105968456357306, 0.34404359779702987, 0.3370674625520648, 0.33013304505389984, 0.3232420836768836, 0.31636745029833824, 0.3095721539756146, 0.3028237484208852, 0.2961755957443571, 0.28951999640347237, 0.2828804690965063, 0.27634153502098985, 0.26985820958460893, 0.2633847299893752, 0.25702341999193296, 0.2507362680583403, 0.2444901115332628, 0.23830623449276686, 0.2321862218978046, 0.22613160147444814, 0.22014178666289577, 0.21422257945391054, 0.20837291609638275, 0.20259001820937148, 0.19688394049159175, 0.19126959885149886, 0.18570880785827248, 0.18022468273114853, 0.17478526169684533, 0.1694616026721118, 0.1642671753076999, 0.15909365740228718, 0.15400307649915101, 0.1489404712846757, 0.14402476556966232, 0.13916611688367073, 0.1344181770745872, 0.12975273551076263, 0.12518536870105465, 0.12068648611578815, 0.11628649130464515, 0.11195990272757185, 0.10772208006076213, 0.1035653733497941, 0.0995078537888701, 0.09558560680599044, 0.09170280341089597, 0.08791352836940536, 0.08420756581567339, 0.08060690316941266, 0.07709326478811325, 0.0736799541099931, 0.07035980780185556, 0.06709592176803587, 0.0639672898372998, 0.06092400361670656, 0.05797959276060841, 0.055127071247584064, 0.05239352640029872, 0.04972225484279501, 0.04710596291178238, 0.04462777803654747, 0.04224128531134158, 0.03996105625482033, 0.03775650938004546, 0.03566324989809599, 0.033641688753960536, 0.03171353786124358, 0.029841312385229007, 0.028103427776916805, 0.026467939485939704, 0.024908381506670667, 0.023439122706725924, 0.02205769669251348, 0.02076803276509814, 0.019540421554920945, 0.018431288355036407, 0.01740840359407852, 0.01651463905668782, 0.01565755451855281, 0.014861011731467907, 0.01418103391836498, 0.013585019807882391, 0.013068118461859887, 0.012638318720402969, 0.012275518000593944, 0.012009563295003947, 0.011822546968639122, 0.011744590151283771, 0.011709158725451698, 0.011694237328601899, 0.011821304829847562, 0.01202097030240837, 0.012352240361456763, 0.01268728281114799, 0.013069094974326947, 0.01355321307779321, 0.014106564301477439, 0.014752680288787165, 0.01543778289377605, 0.016134246457514205, 0.016958878166977744, 0.0178444453311221, 0.018820833770952852, 0.01982126854903924, 0.020901767350044682, 0.022017108634542367, 0.02319022104409007, 0.02437005606167549, 0.02566014010170803, 0.027041612659786544, 0.028425674244714722, 0.029859807127463642, 0.03132180144547276, 0.03285385332070045, 0.034448537300727215, 0.036064992796757504, 0.03772368713969202, 0.0393900378060825, 0.041132509087074144, 0.04290226571290579, 0.044715475989447, 0.046561011142075816, 0.048439583939030126, 0.050345432852884085, 0.05225280284919543, 0.05421718266689692, 0.05620542618059486, 0.05827186946513664, 0.06029691716438694, 0.062285238152564606, 0.06436201615140005, 0.06645478615426383, 0.06857047111251648, 0.07069019582546589, 0.07279553878984268, 0.07494196379834978, 0.0770963060998071, 0.07924285146249882, 0.08141093041931464, 0.08361302613076446, 0.0857821580822877, 0.0879535537135166, 0.09016475927678401, 0.09233095986154312, 0.09448243755462003, 0.09664796532205783, 0.09880864971695795, 0.10093191154744528, 0.10308180467806823, 0.10517690685657956, 0.10730785745397117, 0.10942214823628556, 0.11158469128336204, 0.11365426712512672, 0.11569950373739848, 0.11773627827906877, 0.11975324374465614, 0.12171800399913907, 0.12369479743254508, 0.12566418656502792, 0.12758558931405053, 0.12947976919055398, 0.13133923802799152, 0.13317585076122607, 0.13499751565804746, 0.1367679997624072, 0.13850561864283253, 0.14021114614409488, 0.14187895209636886, 0.14352673787166417, 0.1451182650643908, 0.14667186266954507, 0.14815743584757568, 0.14963510539636907, 0.15111287157062914, 0.15249787207519414, 0.1538404050185733, 0.15513310315442808, 0.15638798261169073, 0.15765228841669413, 0.15880679222165642, 0.15991635503769627, 0.1609343460348147, 0.1619559205280918, 0.16295726626857718, 0.16387200970257954, 0.1647360581560292, 0.1656350831442645, 0.1663843293695146, 0.1670565505749229, 0.16771171522737283, 0.16831450448067178, 0.16889702491600156, 0.16938843005616377, 0.16985791923283217, 0.1702389256804105, 0.17054457509845192, 0.17082214635168363, 0.17104406025284424, 0.17129016574574452, 0.17138922136115395, 0.17143177824933142, 0.1714256878143901, 0.17136531362734203, 0.1712685965624126, 0.17109563235748376, 0.17090299068099193, 0.17061578219016385, 0.17027510481063704, 0.16992784193674113, 0.16947287738915323, 0.16898040675722603, 0.1684192409330055, 0.1678060496803637, 0.16723522405309643, 0.16650503661451552, 0.16575009416773975, 0.16492145452744056, 0.1640453519698568, 0.16310062150976049, 0.16213068526509855, 0.16122014592258588, 0.16013694795927985, 0.15901041881591854, 0.15782970585870576, 0.15661636211380117, 0.1553848226590165, 0.15407822819953865, 0.15272847183861857, 0.15135628879247656, 0.14991815147777124, 0.14851503989902515, 0.14698523142960002, 0.14541933101635968, 0.14383790859243803, 0.14219730636546288, 0.140524247530774, 0.13881463091772428, 0.1370713192045877, 0.13531545423781838, 0.13350389552550287, 0.1317276921952164, 0.12984737511952182, 0.1279417050531887, 0.12601105613536331, 0.12405595329712166, 0.12213267512796339, 0.12012373346154157, 0.11809578960223904, 0.11606792155135869, 0.1140013859681894, 0.11191891286079893, 0.10982127172072512, 0.10770935064045159, 0.10559032307410697, 0.10345213527734409, 0.10136506390701268, 0.0991988927798129, 0.0970279670679687, 0.09486341726142654, 0.09268428886036335, 0.09047703329701626, 0.08829965455403825, 0.08612163524873936, 0.0839712010491736, 0.08179289797975042, 0.07961786254256202, 0.07745182054065482, 0.07529373544120177, 0.07315330997384488, 0.07101452418248416, 0.06892367549677622, 0.06680779420993017, 0.06470982025035586, 0.06260424752239772, 0.06054935091979756, 0.05855398166814836, 0.05653655211940781, 0.05454499573809423, 0.0525332760711332, 0.050603527009588756, 0.04872174340484628, 0.04684595804702895, 0.04500234669367932, 0.043194598840450536, 0.04141996363075885, 0.039690744296154594, 0.03799102654540653, 0.0363321581068581, 0.03470743162691162, 0.03313590251841885, 0.03161760001303543, 0.030136599884863707, 0.028704230693804886, 0.027317877365699787, 0.025987799294688186, 0.02470031576943151, 0.023478843488164647, 0.022312702805639496, 0.021189041797111164, 0.020140063964211346, 0.019148172074625304, 0.018219350958910283, 0.017352728724542903, 0.016586926275332765, 0.01584460002592837, 0.015133983772790726, 0.01453505372110081, 0.014005093278789535, 0.013597029555239162, 0.01320274220912365, 0.012818562402724635, 0.012585558529737688, 0.012426690295381683, 0.012351649505994565, 0.012344307616936829, 0.012366306378101946, 0.01252399020881459, 0.012760067689934748, 0.01309666615063069, 0.013491419750901928, 0.013947382247238717, 0.014513845708022149, 0.015165068510217176, 0.015904295682084384, 0.016728260041792037, 0.01765486260245822, 0.018654405829776382, 0.01974484811954285, 0.02090014497384022, 0.022177936830468075, 0.023559573363431535, 0.025019608703024433, 0.026573431885527743, 0.028194877207660667, 0.029941457693007156, 0.03178409009470212, 0.033719091670131436, 0.03574952783837879, 0.037896546269347575, 0.04011683243358362, 0.04240633939533953, 0.04482660432086437, 0.04734370390520458, 0.049935359615673705, 0.05265007544628664, 0.05548809690441288, 0.05839286849239683, 0.06139637141293071, 0.06444507328949106, 0.0676528478789438, 0.07096454314781464, 0.0743629727431936, 0.0778581231584291, 0.08144390403318286, 0.0851334725950906, 0.08890916804914831, 0.09279282312479811, 0.09677212040217091, 0.10082222113863365, 0.10499549823466345, 0.10925628077469551, 0.11361758529323296, 0.11807189381900925, 0.12264368545386926, 0.1272800748276618, 0.13197281787457893, 0.1368000937502912, 0.1417173450962838, 0.14676737887582178, 0.15185767994012425, 0.15696876705853408, 0.16224855798933918, 0.16761319482937587, 0.17309102570140308, 0.17862014414448352, 0.1841969093291635, 0.189899191244878, 0.19568212121416137, 0.20154493435341725, 0.20748678838542178, 0.21349234935247022, 0.2195912981114358, 0.22576553837687577, 0.23198730388193375, 0.23831248277953926, 0.24470828621517168, 0.25117374859935077, 0.2577078216791732, 0.26428260156283395, 0.27095383749074736, 0.277682421049416, 0.2844803875660036, 0.29133924067127087, 0.29826394559802705, 0.30524007083329563, 0.31228592400157956, 0.31937374955234005, 0.3264898584020852, 0.33368952167261895, 0.3409393659922662, 0.34821933212631007, 0.3555672691338306, 0.36293078990201266, 0.37036969865683356, 0.37784831029989296, 0.38536728037804463, 0.39292074508884395, 0.40051370509231893, 0.4081357628433726, 0.4157900966370045, 0.42343990911576457, 0.43115784534002716, 0.4389047540180573, 0.4466702623234515, 0.45445756418609023, 0.4622463495539607, 0.47007422173757896, 0.4779091530530587, 0.48576691065089733, 0.49363594276594586, 0.5014876808138228, 0.5093772291743818, 0.5172566149327326, 0.5251547904722391, 0.5330529317561782, 0.5409761069952403, 0.548865597807037, 0.5566997440897095, 0.5645859605529139, 0.572461236927707, 0.5803403432853149, 0.5881864655589379, 0.5959904868373076, 0.6038073459400413, 0.6116033443975623, 0.6193292676476598, 0.6270839840425034, 0.63483426765936, 0.642525986077216, 0.6501867289679569, 0.6577692716309492, 0.6653680439060258, 0.6729274895646867, 0.6804459872529395, 0.6879218534449217, 0.6953265716523167, 0.7027153031907218, 0.710052498109932, 0.7173408977932098, 0.7245763743013035, 0.7317098285518007, 0.7388402482953943, 0.7459180521990502, 0.7529242801959379, 0.7598671696518186, 0.7667409697396548, 0.7735527694361339, 0.7802568527273523, 0.7869347475644425, 0.7935384467492007, 0.8001221418923431, 0.8065660851470386, 0.8128665489996312, 0.8191660813024665, 0.82538231828016, 0.8315179797389073, 0.8375628674075322, 0.8435348054628097, 0.8494016080883806, 0.8551787915279573, 0.8608152583522302, 0.866414490095153, 0.8719349305189589, 0.877335940116439, 0.8826381974999218, 0.8878155668545638, 0.8929191986044781, 0.8978999142539823, 0.9027959389707078, 0.9075841397369331, 0.9122861103410965, 0.9168525822455135, 0.9212845344894185, 0.9256332441246292, 0.9298682125555103, 0.9340131143576067, 0.9380143414414096, 0.941873307823895, 0.94564572970474, 0.949298748242396, 0.9528643854572411, 0.9562716313899897, 0.9595770931364832, 0.9627401932739263, 0.965781756193992, 0.9686305489294667, 0.9714343796395712, 0.9741299688583631, 0.9766730877270494, 0.9790876651474153, 0.9813689835089014, 0.9835252296234533, 0.9855530433396944, 0.9874475568906765, 0.989210743884556, 0.9908153728937688, 0.9923179666558289, 0.9936988267520231, 0.9949315292067812, 0.9960305553157035, 0.9970183411447862, 0.9978465059619288, 0.9985334371905508, 0.9990963348816535, 0.999525187352974, 0.9998425053119506, 1.0, 0.9999832071744191, 0.9998795335356571, 0.9996401246270815, 0.999285840129789, 0.9987731570567184, 0.9981514574621426, 0.9973683384232795, 0.9964532394817175, 0.9953547164854599, 0.9941824020993622, 0.9928797068103336, 0.9914385384333125, 0.9898644473890271, 0.9881786909812448, 0.9863381427539475, 0.9844028797680641, 0.9822989912895707, 0.9800684892665898, 0.9777055563560398, 0.9752237744260499, 0.9725998709983982, 0.969869524002372, 0.9670139413001667, 0.9640401891228, 0.9609360519590208, 0.9576830224089333, 0.9543389966905343, 0.9508733015143417, 0.9472542294479979, 0.9435531312980316, 0.9397941098117172, 0.9358473167485669, 0.931787379329452, 0.927600917609791, 0.9233196884664641, 0.9188948274872122, 0.9143977326090179, 0.9097907733821703, 0.9050982522511792, 0.9002736275162804, 0.8953370990869095, 0.8903076536766344, 0.8851770410911503, 0.8799921683650684, 0.8746582759384713, 0.8691893851129052, 0.8636743868847849, 0.8580659109748994, 0.8523801193610387, 0.846588108351647, 0.8407087053085539, 0.8347435864704902, 0.8286944593840214, 0.8225321623149495, 0.8163241663155609, 0.8100439641661685, 0.8036761018509462, 0.7972323846427132, 0.7907374627330609, 0.7841451488479961, 0.7774821819623609, 0.7707547700674352, 0.7639623347498261, 0.7570758789959423, 0.7501630341601919, 0.7432036285027097, 0.7361692177539024, 0.7290790608945631, 0.721951719010473, 0.7147542372442831, 0.7074917181728889, 0.7002011721527069, 0.6928651009047985, 0.6854877068310037, 0.6780667540323241, 0.6705882852677918, 0.6630938548793667, 0.6555636734146499, 0.6480020872492919, 0.6404069862777693, 0.6328119010817317, 0.6251577319535647, 0.6174807973933637, 0.6097521707727604, 0.6020395488527261, 0.5943207594819875, 0.5865717915633815, 0.5787580147168018, 0.5709910723817295, 0.563212194333308, 0.5554527581026539, 0.5476539197986099, 0.539854271390495, 0.5320515797636507, 0.5242504116179553, 0.5164302055885934, 0.5086412296969982, 0.5008711180700395, 0.49309582754551706, 0.4853321766115146, 0.4776234329714049, 0.46988403855427024, 0.46212766361739205, 0.4544348329580016, 0.44676339898905504, 0.43914215754658315, 0.4315161582104154, 0.4238860816145156, 0.4163237473701527, 0.40879191792899044, 0.4012761189082503, 0.3938133645467359, 0.38636756592617505, 0.37898018500873476, 0.37163128858262284, 0.3643209106116078, 0.3570554628104358, 0.34987156058762137, 0.3426922910759692, 0.3355633808906657, 0.3284410397235525, 0.3214231509510316, 0.3144967632886037, 0.30758050119948654, 0.3007224382056128, 0.293888971721777, 0.2871559675346646, 0.2804648562450945, 0.2738567055993365, 0.26731118114666036, 0.260827908796319, 0.25441288559064124, 0.24809406604209364, 0.24181163124660685, 0.23560113026124327, 0.22943487908666507, 0.2233753311645238, 0.21737094453663966, 0.2114624481954617, 0.20562916728251404, 0.19990128491436027, 0.1942187496153161, 0.18863747148358803, 0.1831145586405433, 0.1776752513740749, 0.1723016935574706, 0.16703398084855597, 0.1618549687993535, 0.15675669065845046, 0.15174477729197428, 0.14679314015047504, 0.14195938351831544, 0.1372001081751833, 0.13254240820934232, 0.12797242082322052, 0.12352596118107681, 0.11912929295581406, 0.1148224343483711, 0.1106100897442246, 0.10649012420685523, 0.10242369238079006, 0.09849428724103715, 0.09468882248357219, 0.09093773755386532, 0.08728046556194993, 0.0836862348039833, 0.08022084905027746, 0.07685813730221232, 0.0735764859036996, 0.07038830212284891, 0.06728337255281767, 0.064283639808937, 0.06135632114447421, 0.058545256442442246, 0.05582606985116895, 0.05320504073476616, 0.05066905869591426, 0.048200677842176576, 0.04585231621880191, 0.04359454318545543, 0.04145614793296216, 0.039375683079536414, 0.037395301805783945, 0.03549699631177871, 0.0336899927776428, 0.03193453738302258, 0.030313219686735567, 0.02877703632592313, 0.02733000028949131, 0.025969246366324764, 0.0247149031849475, 0.0235226397282439, 0.02237709603086776, 0.021360701474283268, 0.020426347689248354, 0.01961469742257488, 0.01883754289902333, 0.018126463373126452, 0.017515452826362948, 0.01698396296150484, 0.016576372811682324, 0.016195346372293494, 0.015872880351045796, 0.0156513915733751, 0.015505153245012154, 0.015424740840795485, 0.015426483725181402, 0.01546647858388708, 0.015613667924170445, 0.01582791474071025, 0.016116545072029573, 0.016461073473333226, 0.01691555191708624, 0.017382492453372568, 0.01791433477312921, 0.01845597362611364, 0.019119768206156042, 0.019851166718837118, 0.020627194517464153, 0.02145891511992445, 0.02234920885487665, 0.02328804857946579, 0.024266655152280936, 0.025309962755606135, 0.026401989988569897, 0.027566173898274104, 0.028748640719108345, 0.029954628404119252, 0.031230764392658834, 0.03254870005306073, 0.033874109026894424, 0.03527568965326738, 0.03675219965524972, 0.0382192561543168, 0.03972193959909748, 0.04123396992264651, 0.04280635144138174, 0.04443507287746918, 0.046061831680506427, 0.047716915285120357, 0.049355449163147116, 0.05106781418306746, 0.052832156259426784, 0.05458152990755003, 0.056351200768604184, 0.0581313763553797, 0.059938030089998255, 0.06176193530493209, 0.06359724123858566, 0.06544491177843745, 0.06728285842732849, 0.06915339846079743, 0.07103892935059287, 0.07292061790404152, 0.07480688155876321, 0.07672515490656333, 0.07861270768898322, 0.08048987974862819, 0.08238131927314864, 0.08427080911369687, 0.08617747833250357, 0.08805607099064305, 0.08992745265838671, 0.09179442166228148, 0.09365299874611596, 0.09547903468914772, 0.0973192564876782, 0.09911042388225973, 0.10092578998473509, 0.10272273655729058, 0.10454978545055266, 0.10630086586631882, 0.10798609937462923, 0.1097048555036056, 0.11139976376450318, 0.11310285651658616, 0.11474310806973573, 0.1163194054901361, 0.11791375371035927, 0.11947867638194622, 0.12104010412790084, 0.12254023358076825, 0.12400368737018878, 0.12544252226587607, 0.1268483723109434, 0.12820171619614734, 0.12954101560831532, 0.13090314475199638, 0.1321603046807198, 0.13331027669926487, 0.13450513432368894, 0.13565844704729657, 0.13683766664688163, 0.13789770463943687, 0.13891840513389014, 0.13989867436735662, 0.14083748631108572, 0.14175035863729293, 0.1426013475705668, 0.1434255775009633, 0.14418708507785166, 0.14490450664725893, 0.14554602376068695, 0.14617649981825004, 0.14681012422540476, 0.14733693579269816, 0.1478174152303717, 0.14825488149647573, 0.14863985602581645, 0.1490466085917161, 0.14932560662568337, 0.1495591454045728, 0.14971324125996252, 0.14985708784679905, 0.15000243788861864, 0.15003939018935344, 0.1500285226582367, 0.14994856503303006, 0.14984276193845072, 0.1497233763667139, 0.149511366266118, 0.14925045015197408, 0.148979400757332, 0.14861471930322506, 0.14828078195692618, 0.14781071498071385, 0.14729677833458552, 0.1467525572209732, 0.1461467272186116, 0.14553291425681938, 0.1448317939449766, 0.14408688035271328, 0.14332033180326523, 0.14248361936859416, 0.14163835435688565, 0.14070981310743777, 0.13973928843728117, 0.1387883033667336, 0.13772532074213012, 0.13659252875236902, 0.1354552639491261, 0.13427678825235556, 0.13315206335847626, 0.13187990573732242, 0.1305254021887932, 0.12918903531150797, 0.12781468422121406, 0.12645841071958264, 0.12500248119784121, 0.12354418531122843, 0.12201806324179777, 0.12046102198222979, 0.11891860802850628, 0.1172948102815543, 0.11569107158516537, 0.11400685546315546, 0.11229853941741781, 0.11059299505162164, 0.10883352831731817, 0.10705425934031597, 0.1052511114360403, 0.10342696417246619, 0.10163180827727962, 0.0997611812474677, 0.09788461387431265, 0.09598066395922043, 0.09406210003934387, 0.09211306316490339, 0.09016932897868814, 0.08830699961849782, 0.08632563315207552, 0.08433840163604082, 0.08235807327642823, 0.08035891650784888, 0.07834798458358455, 0.07634348896016863, 0.07433648764768841, 0.0723650270872059, 0.0703513079654322, 0.0683093957026091, 0.06630587465092293, 0.06430517364414383, 0.06234154798783565, 0.060346246778977035, 0.05837403287107478, 0.05639537349234797, 0.05442850587733563, 0.052484847246585434, 0.05054366930380914, 0.048601894391371546, 0.046695746009535896, 0.04480696269326229, 0.0430111009133674, 0.04115188412583075, 0.03931019824107726, 0.03750440852241971, 0.03572569630481888, 0.03393598576940309, 0.03221962077357587, 0.030574740239139517, 0.02891087592287757, 0.027280697956316245, 0.02565652672301189, 0.02410088142677459, 0.02256234206210828, 0.02108181109209939, 0.019638834445272303, 0.018243260080873857, 0.016879144289620937, 0.01554335930963266, 0.014268019962017691, 0.013037506319590055, 0.011861585698371847, 0.01072422930716854, 0.009673719178004617, 0.00863256969067492, 0.007645966666918728, 0.006663428562160665, 0.005795495445780719, 0.005019388717381869, 0.004257726597900293, 0.003555775271459513, 0.0028692919770769818, 0.002295715197897462, 0.0018092962786443675, 0.0013545109044529064, 0.0009643923518106309, 0.0006070795354332111, 0.0003537334126809822, 0.00018085033337630847, 5.906288349930275e-05, 6.6623444826520755e-06, 0.0, 9.267493783186771e-05, 0.00025027565980043656, 0.0004871086382855938, 0.0007969738537203899, 0.0011912744111318525, 0.001649154419819306, 0.002175545581360982, 0.002788826445964696, 0.0034800715640337632, 0.004227469043210047, 0.005080005757617827, 0.005991046686315232, 0.0070052968001811655, 0.008099235342435392, 0.009249089006982226, 0.010508291621171032, 0.011895788149185824, 0.013311760810064993, 0.014813080360867125, 0.016354808383503276, 0.018033663955302513, 0.019833457091811554, 0.02167600097321585, 0.023605730075715405, 0.02554664627545883, 0.027661014438086533, 0.029924785298644185, 0.03219853790721942, 0.03456087124093358, 0.03693146853020274, 0.0394811605656986, 0.04214375584959137, 0.04485852457127726, 0.04766006115346156, 0.050529987467229816, 0.05350782634377709, 0.056563455488857786, 0.05971453168775234, 0.06295137552856549, 0.06630289067769995, 0.06970774622902688, 0.0731567151407015, 0.07674141828915763, 0.08041030337233708, 0.08414681291541265, 0.08798583954360711, 0.09195299630069395, 0.09595176711350625, 0.10003551970059592, 0.10412531662021551, 0.10838693006013286, 0.11279506771426588, 0.11720508364394495, 0.1216971716670589, 0.1262560791330256, 0.130911617660501, 0.13559642752839668, 0.14041486506612869, 0.14530766062864972, 0.1502826132018254, 0.15532167959964005, 0.16044842628814887, 0.16563145735475066, 0.17083759544156615, 0.1761710083757241, 0.1815722354429619, 0.18705712236359684, 0.1925899101217701, 0.19815427506907943, 0.20382368712730084, 0.20955568905063832, 0.21536801055112242, 0.22122034066009857, 0.22715630295730727, 0.23312653848541645, 0.2391566254521441, 0.24519156548804177, 0.25134379296711545, 0.25755262254241523, 0.2638082404995837, 0.2701143981471312, 0.2764513398064027, 0.28285721899669836, 0.2892881933303055, 0.29578685073232003, 0.3023275549837108, 0.3089132596981366, 0.31553396629602487, 0.32218706366593414, 0.32888429675950603, 0.3356169111858108, 0.34231342612788973, 0.3491212822361628, 0.3560220386158782, 0.36287451245880253, 0.36975553813237977, 0.37665101259173756, 0.38358545384799414, 0.39049714447578215, 0.3974807520302417, 0.4044809571203581, 0.41148401254587974, 0.41851474567416846, 0.4255590853414199, 0.4326111813107099, 0.4396719389356042, 0.44668207815035715, 0.4537626003313943, 0.46084360765677307, 0.46792383732075005, 0.4750019366297894, 0.48205999302385305, 0.4891315447106697, 0.49624497443350396, 0.5032936627631978, 0.5103345173079415, 0.5172666492458715, 0.5242983021698581, 0.5313228949213431, 0.5383129294066088, 0.5452817102016362, 0.5522215621154423, 0.5591440685428748, 0.5660011704731676, 0.5728744847742572, 0.579716070862053, 0.5865080670355403, 0.5932840606422406, 0.6000539435593755, 0.6067505686474669, 0.6134089702346456, 0.6199531811219657, 0.6265390679893053, 0.633099756174499, 0.6395858117925648, 0.6460227020681735, 0.6524191474892458, 0.6587516309990241, 0.6650389275050307, 0.6712617643861966, 0.6774281265546658, 0.6834826260918082, 0.6895373301392106, 0.695527090710776, 0.7014505384535864, 0.7073062645165504, 0.7130825277207558, 0.7187997620073514, 0.7244010400938955, 0.7299769280091717, 0.7354748273850649, 0.7408709684363495, 0.7462123703419945, 0.7515142857698931, 0.7566836620238034, 0.7617705368807897, 0.7667548607884705, 0.7716745539166315, 0.7764547008553255, 0.7812034792635987, 0.7858586548952463, 0.790404888728252, 0.7948718767909393, 0.799262161508947, 0.8035310194224561, 0.8077018522068911, 0.8118147043192098, 0.8157808117484542, 0.8195859407941468, 0.8233600207249967, 0.8270285406389665, 0.830600915748537, 0.8340543470156143, 0.8373795101341076, 0.8406192180520966, 0.8437481320460636, 0.8468128325895423, 0.8497117706738281, 0.8524713356308656, 0.855151677432726, 0.8577175736126947, 0.8601620128468093, 0.8624973297455847, 0.864678357466332, 0.8667832399242577, 0.8687674497144267, 0.8706677092489146, 0.8724048051242584, 0.8740304523897344, 0.8755264578614819, 0.8769019339573089, 0.8781047245495611, 0.8792437292109395, 0.8802780860203117, 0.881163891296063, 0.8819253998483054, 0.8825499805295658, 0.8830636677135333, 0.8834516230699719, 0.8837137504520217, 0.8838499694786571, 0.8839178964463125, 0.8837948401477413, 0.8834871912227572, 0.8831259012497349, 0.8826375144530866, 0.8820304705403129, 0.8812874613627403, 0.8804637786951299, 0.8794632357880223, 0.8783396338355639, 0.8770640076935644, 0.8756976314877405, 0.8742023021433009, 0.8725871011577395, 0.8708475135207645, 0.8690004449776392, 0.8670113108350815, 0.8648918495073712, 0.8626599723462984, 0.8603063741784315, 0.8578542668858321, 0.8552560570600564, 0.8525453483615207, 0.8497094823656147, 0.8467563087973532, 0.8436698965602718, 0.8404858969174328, 0.8371525282975092, 0.8337407284577288, 0.83021240880415, 0.826576995957981, 0.8228181562534577, 0.8189406449571235, 0.8149587336044636, 0.8108662606394266, 0.8066870986645365, 0.8023742890808269, 0.797974406112423, 0.7934490981066143, 0.7888213992513896, 0.7840737687162109, 0.779246683136476, 0.7743152041102612, 0.769289396138321, 0.7641657192730996, 0.7589496862692628, 0.7536339523390848, 0.7482454277611872, 0.742741737628323, 0.7371486972608854, 0.7314470230115732, 0.7256818800719799, 0.7198179537761742, 0.7138831375686479, 0.7078644446790963, 0.7017574415380656, 0.6955770205316688, 0.6893341106292591, 0.6829954831365764, 0.6765824416723331, 0.6701543506863905, 0.6635902671655198, 0.6568962674519979, 0.6502094241638183, 0.6434741185777371, 0.6366528684865982, 0.6297695389756602, 0.6228094434375772, 0.6158094376030799, 0.6087456853555443, 0.6016333094824339, 0.5944669836719073, 0.5872507996742695, 0.5799824036236779, 0.572709512515968, 0.5653421413622894, 0.557933447900855, 0.550454186685298, 0.5429717597356309, 0.535426643597996, 0.5278734219370923, 0.5202848831105932, 0.512685906212861, 0.5050305028687467, 0.49733116272496847, 0.48962489911381835, 0.48189419838625297, 0.4741720696684312, 0.466394903803228, 0.45858278425529536, 0.45077695626670433, 0.44295733700336715, 0.43515065263350716, 0.4273063417231051, 0.41945357453625676, 0.41159852593549834, 0.4037405737061797, 0.39587950465306737, 0.3880215575176118, 0.3801764637533731, 0.37232421311321834, 0.36447888015906693, 0.35657017977223815, 0.3487532464762527, 0.3409817285909462