0.12200887041575674, 0.12162754891669378, 0.12128593040639228, 0.12089773938558449, 0.12062942719599971, 0.1203520457083223, 0.12012484033125173, 0.11991050551754905, 0.11986641507240418, 0.1196519668981441, 0.11928204260495445, 0.11912041760746837, 0.11896142194637604, 0.11879743369005241, 0.11864387736219575, 0.1186129586815881, 0.11844768676693859, 0.11829124647890797, 0.11801286073705723, 0.11788858901942854, 0.11776057394191533, 0.11763741002988345, 0.11751555392562994, 0.11739214340854535, 0.11727574781200502, 0.11726537870563294, 0.11714363693607141, 0.11703256806827028, 0.11694486534755606, 0.11685320025719209, 0.11670129279961376, 0.11664102503513922, 0.11658791667899014, 0.11665435492956928, 0.11660331445832986, 0.11653821681169586, 0.11652104792904401, 0.11641246283560433, 0.11643456514820609, 0.11646395824185152, 0.11655656412368022, 0.11659639994271893, 0.11657233067833704, 0.11664828154768583, 0.11673356650169107, 0.11686207963278777, 0.11696453639555619, 0.11709535143099976, 0.11722379058728227, 0.11736758884026852, 0.11753616734573749, 0.11771030207268722, 0.11783878538898529, 0.11805423763191834, 0.11828317376891442, 0.11859222518069555, 0.11884177201742434, 0.11918548992060181, 0.1194636555004448, 0.11976511644336399, 0.12008748552073226, 0.12043420148601991, 0.12069281078378183, 0.12109677920905065, 0.12151592036413171, 0.12191983872857995, 0.12237545712381363, 0.12291804495652814, 0.12339653296620648, 0.12389620423415447, 0.12449599107171316, 0.12502855500524102, 0.12553045016498954, 0.12612201121079092, 0.12673574084091055, 0.12728207333919705, 0.12795211453417618, 0.1287645212525612, 0.12945536446958092, 0.1301728595497696, 0.13086370589592963, 0.1316407658155265, 0.13244115763665304, 0.13326530377752957, 0.13411361873837743, 0.13505246143084285, 0.13594198963669255, 0.13676898903357593, 0.1377280975827952, 0.13871090927568894, 0.1397437773444028, 0.14077282426529938, 0.1419041128676683, 0.14297830049867777, 0.14408458107433947, 0.14522454498675522, 0.14639412254244186, 0.14743231869757872, 0.14868576837552766, 0.1499616314150876, 0.15139130610374632, 0.15269940520028122, 0.1540261785230816, 0.15540273063031443, 0.15681170525006297, 0.158124987138464, 0.15961540688511647, 0.16121756479948107, 0.1627495534468928, 0.164314261439961, 0.16589729644941847, 0.16753007272855502, 0.16925045437299283, 0.17094191361874161, 0.1726697580659258, 0.174486963748394, 0.17628043815653444, 0.17809642944402254, 0.17996950584452173, 0.1818797521886448, 0.18373718294374655, 0.18573250856972645, 0.18779424361801522, 0.1898489875253269, 0.19193845740220647, 0.19409767922791174, 0.19625283643298752, 0.19828222655524205, 0.20053244544579024, 0.20281058259541945, 0.2052809134256208, 0.20759780493814867, 0.20996233899213157, 0.21235843875317253, 0.2147943252635123, 0.21711931522127365, 0.2196524357670748, 0.22219917692123461, 0.22479546784654245, 0.22742255949880857, 0.23006107198286108, 0.23275451274801098, 0.2354741043494697, 0.23823214824955719, 0.24102265149902685, 0.2438497303270348, 0.24670595101902687, 0.24969667806794665, 0.25260781739501403, 0.2555586224414618, 0.25852633899515737, 0.26155699102411145, 0.2645726040213045, 0.267681788568791, 0.2708234292658979, 0.27396085358828287, 0.27717189867208764, 0.28046624908690887, 0.28373107598476227, 0.28702928097507996, 0.29036411265012996, 0.2937273598531877, 0.2970111791118869, 0.3004527441708074, 0.3039194410383596, 0.30739521642491774, 0.3109154509791469, 0.3145781103124839, 0.31813412860020934, 0.3217223101440098, 0.32525017229470243, 0.3289116462047761, 0.3326159091463958, 0.3363239466767511, 0.34005729673705004, 0.3438760793625646, 0.3476513651014014, 0.3512838620045363, 0.3551349355215643, 0.35900220922926146, 0.36285503765915267, 0.366759997839923, 0.3707024620589258, 0.37463602979215244, 0.3785869043274016, 0.38254765939868374, 0.3865336858134841, 0.3906166497567218, 0.39462485128079555, 0.3986532460660878, 0.40267327098085987, 0.4067422968980506, 0.41078464593410485, 0.4148891093762589, 0.41900503854499493, 0.42308247633384927, 0.427226058805038, 0.4314389866412435, 0.43558857021376385, 0.4397481421593812, 0.4439827480982834, 0.4481512304061262, 0.4521749381065295, 0.4563835382349302, 0.46059148120194426, 0.464945229463018, 0.4691329290617367, 0.4732231706970788, 0.47743643838095046, 0.481647745515688, 0.4858106926250851, 0.49002202094061603, 0.49426351487561104, 0.4984568948392011, 0.5026450399598893, 0.5069498754244687, 0.5111095460198285, 0.5151858883211041, 0.5193523196289189, 0.5235095654485782, 0.5277298752983404, 0.5318563949162278, 0.5358172017087556, 0.5399457017761675, 0.5440540366814551, 0.5482409219091021, 0.5522956839102542, 0.5563074323343365, 0.5603333282888646, 0.5643396286355407, 0.5682447241476306, 0.5722190151768413, 0.5761551741870266, 0.5800762061110207, 0.5839686590660452, 0.587951172026203, 0.5917700101038881, 0.5954976183658967, 0.5992765250193502, 0.6030250247014732, 0.6068136208141559, 0.6104894253290067, 0.6141451187620868, 0.6177596682962992, 0.6213167669591042, 0.6248694468631287, 0.6283859338749915, 0.6318577196151308, 0.6352992331832165, 0.638554120611749, 0.6419329846607384, 0.645261476430987, 0.648638680903532, 0.6518542579302983, 0.6548895309930648, 0.6580317764223473, 0.6611196800354815, 0.6642101291955032, 0.6671823244268271, 0.6700996097777021, 0.6729690649475881, 0.6757856107337495, 0.6785027010365171, 0.6812169521114708, 0.6838862293994934, 0.6864828155432328, 0.6890213674677641, 0.6916038139405534, 0.6940113060624313, 0.6963333013566255, 0.6986344614773474, 0.7008764800115518, 0.7030801957509135, 0.7051977612777661, 0.7071148854483996, 0.7091264430942703, 0.7110666532321631, 0.7129392247895241, 0.7147363263750152, 0.7165940798892507, 0.7182317918319413, 0.7198051854010882, 0.7211791597903708, 0.722636824221551, 0.7239968606029493, 0.7253059886568215, 0.7265381256204069, 0.727759264845924, 0.7288291412493201, 0.7299136047332021, 0.7308250108774648, 0.7316667210914316, 0.7323916280934722, 0.7330959302147694, 0.7336877410665547, 0.7342443547985859, 0.734721870471268, 0.7350229586081067, 0.7353538585573269, 0.7356966228423747, 0.735845350689656, 0.7359153441024269, 0.7358842434932907, 0.7357984515990643, 0.7356774569325135, 0.7354237620464334, 0.7350914294428671, 0.7346946586858664, 0.73420188609485, 0.7334945314084597, 0.7328604602061864, 0.7321390086174223, 0.731422578433669, 0.7305171116297049, 0.7294125046158223, 0.7283618304007954, 0.727224167151853, 0.7261414708053795, 0.7248145895091306, 0.7233744399082743, 0.7218984803107772, 0.7203430164265024, 0.718621956448681, 0.7169184475397022, 0.7151142713495222, 0.7132453110179157, 0.7112928420764332, 0.7092430727300953, 0.7071279803704429, 0.7049273377306251, 0.7026497849164111, 0.70029179245502, 0.6979219389463511, 0.695396846199969, 0.6927461080051978, 0.6900789654749339, 0.6873349719250166, 0.6844818255063823, 0.6815903165400476, 0.6787228763900486, 0.6756661801122033, 0.6725402878914879, 0.6692298570776837, 0.6659804672087579, 0.6627822725434763, 0.6593677076816185, 0.6558874426235234, 0.6523874068548486, 0.648770432110096, 0.644962748102565, 0.6412370682770024, 0.6374418810445743, 0.6335583141080614, 0.6296304715018144, 0.625659567105245, 0.6215963289756948, 0.617470255700055, 0.6134106993713164, 0.6091460765958964, 0.6048566283629598, 0.600484001626359, 0.5960609057661508, 0.5914408932047551, 0.5869358626998495, 0.5824663043088373, 0.5778352064943029, 0.5731546801422777, 0.5684805184970617, 0.563696745954992, 0.5587978555754081, 0.5539363321996523, 0.5490283402112505, 0.5440880241163203, 0.53908944588386, 0.5340326237415047, 0.5289538651171888, 0.5238349395889393, 0.5187633698799614, 0.5135574815086044, 0.5082985339315302, 0.5030340040067408, 0.4977387104655292, 0.4924668522409007, 0.4871065761886834, 0.4815606570852003, 0.4761726848661848, 0.4707528749248646, 0.4654207111440243, 0.4599290191560943, 0.4543122582481533, 0.4487974193155429, 0.44325994156292164, 0.43774578265409725, 0.43216336972346325, 0.4265061018058129, 0.4209039848589552, 0.41528696903734774, 0.40980903149836895, 0.4041486904488214, 0.39838496321584693, 0.39273652187917374, 0.38708266458093854, 0.38142492629968977, 0.3757648218336627, 0.37021743104786337, 0.36454270439724235, 0.35887642450221663, 0.3530542470212982, 0.34742741185090265, 0.3417888371677268, 0.3361679177602846, 0.3305515188817239, 0.32502595860934613, 0.3194139921148467, 0.31375302507147546, 0.308180518574906, 0.3026217744873518, 0.2972286702059429, 0.2916833639981089, 0.2860184935973336, 0.28054600394740026, 0.2750929814795972, 0.269650109083838, 0.2642423736460996, 0.2589334443294966, 0.25356519209466133, 0.24822797253682727, 0.24292632193404695, 0.23765334486155193, 0.23249856191787183, 0.22728367796461352, 0.22210927051861315, 0.21694628596801951, 0.2118574080033906, 0.20685604361946994, 0.2018416548181279, 0.1968713531362232, 0.19200602585304793, 0.1871176214686504, 0.18217560787160883, 0.17739827505045086, 0.17266454348014554, 0.1680744996275991, 0.1634189172627324, 0.15885253922245846, 0.15429774983432873, 0.14969748948749462, 0.14526615809687807, 0.14088483278546515, 0.1365986011878941, 0.13231505492504558, 0.12814403350621534, 0.1239654386185492, 0.11984710598717314, 0.1157544528833176, 0.11176177951190669, 0.10799313578680482, 0.10409856970618117, 0.10027371460227094, 0.09640064713544258, 0.09272816859885538, 0.0891520542859375, 0.08559897041542117, 0.08211075076244649, 0.0788178442135152, 0.07544405689431838, 0.07215094217611841, 0.06892228791988325, 0.06576626330957458, 0.06262563732739651, 0.05962084335550601, 0.05685119623648211, 0.05396249479875361, 0.05115219832766284, 0.048285551370383616, 0.04564608276024529, 0.04312806609144144, 0.04061902812186105, 0.03818227398769445, 0.03593324692896035, 0.03362657773018398, 0.031378676011555744, 0.029231556324650593, 0.02716067479261111, 0.025284668509610635, 0.02334995351614774, 0.021399947120669907, 0.019639907016286245, 0.017953963406526628, 0.016380462297113086, 0.014837496953646669, 0.013355828276744704, 0.011966247599016364, 0.010651096542187643, 0.009490812173041627, 0.00831383257859339, 0.007284953492495871, 0.006255356296532586, 0.005306663593738217, 0.004498140967379203, 0.0037001733381433802, 0.0029759804772767967, 0.002339814244489014, 0.001781825396759327, 0.001227738673224191, 0.0008324888558562085, 0.000631363218670269, 0.0003632242561283265, 0.0001730873336682994, 3.417312192203956e-05, 0.0, 2.0994274698785565e-05, 0.00013547859471578356, 0.00032120153164673886, 0.0006547058038455605, 0.000971987651681497, 0.0014570909758999857, 0.0019103477390092825, 0.0024413342460277714, 0.003020976068846841, 0.0037062654994723244, 0.004505534744298534, 0.005328217465396342, 0.006223252169280352, 0.007101541553442764, 0.008149013138904187, 0.00927902181567356, 0.010452417405987896, 0.011690647523732755, 0.013064772530691634, 0.014422470354752113, 0.01576539230728475, 0.01726785787737866, 0.018831454372800167, 0.020435822278465927, 0.022123569006826944, 0.02393653585894974, 0.025734329258062356, 0.027594738104815567, 0.029571941099287128, 0.031548309783937196, 0.03353496807068002, 0.0356437212807072, 0.03781064272009311, 0.04009191186522033, 0.04236615295063259, 0.04456801034775582, 0.0469768994502991, 0.04943582155067865, 0.05191372636330266, 0.054476844298508034, 0.057172541607774206, 0.0598217206501385, 0.06252404133906607, 0.06524210200836905, 0.06805305801241517, 0.07097877986226518, 0.07387857185790843, 0.0768299408323563, 0.07980985946660304, 0.08286407267988857, 0.08598210605404409, 0.08912814504674937, 0.09232094341287345, 0.09553215371525652, 0.09881936799429684, 0.10199721462476143, 0.10538845237100594, 0.10881267990084056, 0.11237678083792581, 0.11585527899595809, 0.11927339588718815, 0.12284473632032315, 0.12644948270144202, 0.1300584625770489, 0.1337340393762096, 0.13743599275185736, 0.14117609943488088, 0.14494784575824474, 0.14884276881427272, 0.1526659376514648, 0.1564851437644151, 0.16038506032608865, 0.16431702733708076, 0.1683152094988627, 0.17230493663567048, 0.1762570945114746, 0.18031877100972943, 0.18440672714275755, 0.18854262226097823, 0.1926793435129127, 0.1968937833666987, 0.20107625669076637, 0.2052868122725905, 0.20944015230143484, 0.21371449978310667, 0.2180532374190205, 0.2223626621942421, 0.22669451690468306, 0.23100052587583836, 0.2353813413519774, 0.23986245165382086, 0.2442683227621785, 0.24869617622401036, 0.2530974163757424, 0.2575724189974052, 0.2621317791859976, 0.2666309258504098, 0.2711495785051306, 0.275662932980912, 0.2802207081738238, 0.28467479457138045, 0.28927778548333055, 0.29388826369134574, 0.2986256890524728, 0.30323712730765673, 0.3078727492804025, 0.3125122318542476, 0.31716560924855736, 0.321817396879429, 0.32649797947758163, 0.3311416572983234, 0.33584913773142744, 0.340563535799976, 0.34524805611025977, 0.3499804252614691, 0.35465114904769635, 0.35940052553994756, 0.36415055892214254, 0.3688907294869283, 0.3736447687465606, 0.3784457325190544, 0.38319648043567606, 0.3879513295902457, 0.3926367036210277, 0.3974081008205738, 0.4023012543816776, 0.4070553712339396, 0.411815724243083, 0.4165117497782991, 0.42129058247154855, 0.425960955585708, 0.43075245710140325, 0.4355369811989249, 0.4404433223321911, 0.445199209309996, 0.4499730847233564, 0.4547290548001471, 0.45948581752077794, 0.464117895561564, 0.4688893345541379, 0.47376558486624015, 0.4785053421608479, 0.48311115718547104, 0.48786265641757065, 0.49260303869836963, 0.4974388402360096, 0.5021442985294587, 0.5066766199775746, 0.511393365414363, 0.5160944208808631, 0.5208078517925073, 0.5254756705717754, 0.5302241276011848, 0.5348545353974816, 0.5394772990311899, 0.5440219033913424, 0.5486355181925797, 0.5532075074222204, 0.5577960637257581, 0.5623684069933162, 0.5670105412507706, 0.571539212269793, 0.5760358771564946, 0.5805424340677102, 0.5850341416901483, 0.589543267177978, 0.5939989969208255, 0.5983205697492451, 0.6027602721262526, 0.6071764013450391, 0.6115892230787799, 0.6159559170063138, 0.6203204231143888, 0.6246396176287392, 0.6289370190328335, 0.6331974605900759, 0.6374515838166491, 0.6416778583845208, 0.6458836483973572, 0.6500641701506977, 0.6542904289299205, 0.6584100304916642, 0.6625271331073859, 0.6665978080683365, 0.6706448649465484, 0.6745572509713849, 0.6785676356230096, 0.6824735751390117, 0.6864269250071717, 0.6903430570545127, 0.6943359348810288, 0.6981642865437638, 0.7019424247415915, 0.7057123330700384, 0.7094493350712392, 0.7130648319256536, 0.7167451489084427, 0.7204479187485965, 0.7240407302186368, 0.7275971939184639, 0.7310434012522604, 0.7345345385709225, 0.7380272690631098, 0.7414280325392506, 0.7447886791873276, 0.7481141361658807, 0.7513921280977502, 0.7545680927430785, 0.757769920709479, 0.7609254469489292, 0.7640601267005447, 0.7671191634268746, 0.7700666194519513, 0.7730421630548749, 0.7759672076108186, 0.7789186146973897, 0.7817326054218622, 0.7844065040756116, 0.7871380705897322, 0.7898159197661209, 0.7924325972871715, 0.7950034847471759, 0.7975691132731396, 0.8000240347384314, 0.802426418353584, 0.804762666672383, 0.8070592802755555, 0.8093461311647283, 0.811525176255195, 0.8136499195029887, 0.8156204053234594, 0.81764601414107, 0.8195996566240438, 0.8215007034984074, 0.8233381529839522, 0.8252749021647314, 0.8269640336876697, 0.8285596328882593, 0.8301418987023408, 0.8316638527994874, 0.833074973127167, 0.8344794509048751, 0.8359057999965445, 0.8371665582595954, 0.8383652472960398, 0.8393981063766289, 0.8404822150070859, 0.8414403027991211, 0.842389151352561, 0.8432636493952493, 0.8441630214772116, 0.8448771229429426, 0.8455285876455068, 0.8461050228212355, 0.8466122673192589, 0.8470533232238964, 0.8474197831598838, 0.8476201429333937, 0.8478564121083505, 0.8480154140054789, 0.8481175830913349, 0.848120291282434, 0.8480127336509893, 0.8478688920593908, 0.84764755018633, 0.8473782305463681, 0.8469987672758134, 0.8466520355544834, 0.8461080491215135, 0.8454944851971387, 0.8446582803599578, 0.8439218767594265, 0.8431303176469982, 0.8422295929595095, 0.8412504990502737, 0.840149273508923, 0.8390195950442458, 0.83788657929589, 0.8365871167788574, 0.835212651450356, 0.8337867886972794, 0.8322587132280171, 0.8306821019607123, 0.829002126593156, 0.8272488872388042, 0.825284604156527, 0.8234011473113875, 0.8215732046679052, 0.8195095489745188, 0.8173735351242629, 0.8151282272251033, 0.8128513238553773, 0.8103674549472515, 0.8079573330198934, 0.8054652312122113, 0.8028924949411064, 0.8002403655032851, 0.7975008321264992, 0.7946944410950351, 0.7918113575152629, 0.7889973187332024, 0.7859455189608593, 0.7826612913003267, 0.7794988249709168, 0.7762607678400386, 0.7730527768435257, 0.7696539609867036, 0.766181575197044, 0.7626514036649796, 0.7590550399981159, 0.755332401541124, 0.751612461936623, 0.7477875498433784, 0.7439365660102047, 0.740017149160099, 0.7360177209033363, 0.7319667470136636, 0.7278575447138652, 0.7236757533076178, 0.7194312178336382, 0.7151836466908859, 0.7108094421574166, 0.7064339350135728, 0.7019408172614512, 0.6973956923753188, 0.6928390802000983, 0.6881855933080883, 0.6834320067536367, 0.6786875691878294, 0.673891911153679, 0.6690147016492519, 0.6641230284491914, 0.6592487538928213, 0.6542489410195392, 0.6492049579711264, 0.6440881667197575, 0.6389616477338922, 0.6336669826178031, 0.6284701930829641, 0.6232251088464824, 0.6180218408134783, 0.6126754741049693, 0.6072241990554388, 0.6018133509520942, 0.5963493279204957, 0.5908650665188906, 0.5853449527175868, 0.5797871095726947, 0.5742010578155748, 0.5686555907184627, 0.5630004415925051, 0.5573217207596451, 0.5515654747686085, 0.5458496160537212, 0.5402311415743899, 0.534454493003526, 0.5286641836836332, 0.5228002925669177, 0.516992011630049, 0.5111044570104563, 0.5052752731911423, 0.49942994715569805, 0.4936820717323512, 0.48779580320282767, 0.48188122091005614, 0.47598976956280986, 0.47009415999039805, 0.46429445186251733, 0.4583814492756201, 0.452453187903041, 0.44655295271518297, 0.44065746981000864, 0.43474375325405235, 0.428863355315337, 0.4229817636890227, 0.41711579372477775, 0.4112580432163677, 0.4053384127268901, 0.39951019403876054, 0.3936866052069388, 0.3878773927448817, 0.38208011274176945, 0.3762892937512052, 0.3705223133216082, 0.36491880329614895, 0.35916885794393094, 0.353447480348678, 0.347626888139142, 0.3419803292375844, 0.3363806089970445, 0.33077883128390567, 0.3252048454826835, 0.31964543239545107, 0.3141331635968399, 0.30874002086908153, 0.303280481764116, 0.29785996136845677, 0.2924021955315814, 0.28707153011529285, 0.28175393150801115, 0.2765014709250036, 0.27128736697086503, 0.2662615416693954, 0.2611099153019035, 0.25602036706296744, 0.25096967969331724, 0.24597110368670394, 0.24087649486569282, 0.2360017302651703, 0.23125234098582836, 0.22645858125278093, 0.2217173430221543, 0.21694335607496673, 0.21232054699268257, 0.20785784128358342, 0.20332301631179286, 0.198847479496622, 0.1944408409252402, 0.19008410087442693, 0.18570248906655212, 0.1814795452601278, 0.17731391456146683, 0.1733148621370197, 0.16925365104035803, 0.165215169828665, 0.1612930164844719, 0.1574353462166188, 0.1535712538204107, 0.14985319988250828, 0.14631995514209817, 0.142711591048472, 0.13917425038661305, 0.13561808855588486, 0.13223396013508049, 0.12887907718213912, 0.1256321130274866, 0.12245043577085445, 0.11936611997469355, 0.11631377635474273, 0.11327602272292944, 0.11037014310376773, 0.10753151341692584, 0.10475357225174718, 0.1020525712053433, 0.09948820703411507, 0.09691689548442065, 0.094419263568514, 0.09198233223772069, 0.08963321008408301, 0.08732175618106978, 0.08512191393115427, 0.08299242486055947, 0.08094993806032072, 0.07895949689926335, 0.07700400965121877, 0.07516125574126079, 0.07338774188398184, 0.07183195963155209, 0.0701783982446251, 0.06858785767947327, 0.06709022801905457, 0.0656669983565441, 0.06419444781905267, 0.06293266526933325, 0.061717312544220124, 0.06058750963889724, 0.05952167055542681, 0.05866650129100047, 0.057710406668590564, 0.05668194404065109, 0.055887580248184396, 0.05515495185074205, 0.0544620873862705, 0.05385565793685458, 0.053417595373706966, 0.052918000321960534, 0.05248454329152171, 0.052013529578329686, 0.05172204076461499, 0.05144923615001955, 0.05127672145187881, 0.05115871413650852, 0.05115561385250356, 0.051138698658436295, 0.05126896202377154, 0.051354674229449615, 0.05150112384693962, 0.051666397138448575, 0.05193465763895921, 0.05228241372816292, 0.05265402841027735, 0.0530787428221173, 0.05344351730644583, 0.053984727772680506, 0.054666086866828376, 0.055280818123434355, 0.055943343331633415, 0.05654797531233781, 0.05731552154590344, 0.058152413416790054, 0.05899205450712153, 0.05987081234848817, 0.06078056366174329, 0.06173605123157673, 0.06287062504383391, 0.06387956951171243, 0.06493097041789708, 0.06589084307339171, 0.06703770130316943, 0.06821368963537403, 0.06941808615974848, 0.0706501180637928, 0.07200423024356438, 0.07327699007340974, 0.07451603516583133, 0.0758560155367349, 0.07721947388854503, 0.07857604071810914, 0.07998697779391714, 0.08154661635803989, 0.0829775178596306, 0.08443261487813708, 0.08589528985559046, 0.08739484830304078, 0.0889305121828527, 0.09046176130147449, 0.09200875855257319, 0.09347464811131698, 0.09506047989544103, 0.09660817155149477, 0.0982105811036531, 0.09981503346084651, 0.10157871421666893, 0.1031661556729168, 0.10469171000042539, 0.10630546385007636, 0.10792118523801913, 0.10947917681471628, 0.11110303853524929, 0.11286162925599806, 0.11445831959720162, 0.11605715200787857, 0.11754827299417431, 0.1191598627437788, 0.12085047096022841, 0.1224324982589441, 0.12393418515187703, 0.12551388478837194, 0.1270814731751456, 0.1287334123325129, 0.13026258359799883, 0.13180512793620539, 0.13331284234017854, 0.1348103574414391, 0.13635300383252572, 0.13781865386745834, 0.13924388204898241, 0.14068937144951785, 0.14211894500431665, 0.1434416777300199, 0.14484737904031236, 0.146382779259772, 0.14772043462225587, 0.14904208850246922, 0.1502546438677902, 0.15155151864400818, 0.15286345374950047, 0.15410435249198862, 0.15532149414553384, 0.15661311081529014, 0.15776819458029587, 0.15880054482447714, 0.1599269685280992, 0.16102493657003883, 0.16218396019612735, 0.16321291129240553, 0.16414260467698755, 0.16513182356911119, 0.16609090910449192, 0.16705086797045707, 0.16794534831998278, 0.1688037364353387, 0.16964126035402763, 0.17044894219351964, 0.17131816820988244, 0.17205397393264538, 0.17271872693570645, 0.17340895423585395, 0.1740697487142831, 0.17478511188568788, 0.17537562801476136, 0.17594078579318667, 0.17647978632747813, 0.17699195775573517, 0.17747124825703187, 0.17792889480200633, 0.17842949283717197, 0.17882089286001832, 0.17918744149155272, 0.1794625371280044, 0.17978590673019842, 0.18023854879001966, 0.18048179250387789, 0.18070440236368104, 0.1809365582829117, 0.18111126021029042, 0.1812299270698132, 0.18136587816026242, 0.18147742516362847, 0.18153333289125712, 0.18159984050315528, 0.18172083428041513, 0.1817253502161131, 0.18170920058230447, 0.18168142700304685, 0.18162254985213494, 0.18158380898545096, 0.18147962560268596, 0.1813578806377545, 0.1812625220353432, 0.1811001512862086, 0.18087350005836925, 0.1806876913146959, 0.1804842998617309, 0.18020161838875481, 0.17997273124185675, 0.1797246589512354, 0.17945862245694652, 0.17917581628858203, 0.17898183404964488, 0.1786557723395736, 0.1782507964152984, 0.17791910236264766, 0.17757655155584737, 0.17736887583616168, 0.17698932381803836, 0.17651111782156803, 0.17614445741424498, 0.17577233287768207, 0.17550373344703069, 0.17510973585276887, 0.1747062695361117, 0.1743206814101304, 0.1739380029886167, 0.17350001698883377, 0.1731318727658518, 0.17274831950246006, 0.17238551786719136, 0.17202506957113847, 0.17171400527822672, 0.17135614649267106, 0.1711314243836024, 0.17077574651871302, 0.1704372711157201, 0.17007739182721754, 0.16977792979905912, 0.16951551915178914, 0.16924398560603643, 0.1689899670607918, 0.1687191788884354, 0.16850623511716675, 0.1682758276282044, 0.16810297199129035, 0.16794751916972067, 0.16783458949106966, 0.167714817809492, 0.1675516680851758, 0.16748641790948773, 0.1674421093818082, 0.16753205558700224, 0.16752011520313792, 0.1674574283920387, 0.16751976683995862, 0.16761016490942185, 0.16778298607361292, 0.1679264532412072, 0.16802211188091387, 0.16824596075387907, 0.16850122478671206, 0.1687398329738273, 0.16906828984202554, 0.16946416696643615, 0.16985504224779296, 0.17028356733976516, 0.1707453590014747, 0.17125316281124958, 0.1718820960202677, 0.17246175811952677, 0.17308843130715498, 0.173665285996908, 0.1743990949777203, 0.1752449911143202, 0.17605608879363882, 0.17691578896270077, 0.17775858987831483, 0.17872519171939147, 0.17979668963427517, 0.18084942042526347, 0.18195364267899275, 0.1831170859473346, 0.18432457226975477, 0.18549174104886706, 0.18681761429436858, 0.1881920529087695, 0.1896619589778875, 0.1911309506382335, 0.19259365522671795, 0.19417910200131203, 0.195816243240231, 0.19749865370913977, 0.19924273105061835, 0.2011907674852643, 0.20302404089869855, 0.2049208425599358, 0.20684939410256678, 0.2088753716640377, 0.21096879946049035, 0.2131139371946946, 0.21531931950498592, 0.21743272240324057, 0.21977733828147927, 0.2221567392347625, 0.2246070970864282, 0.2271098835433118, 0.22978515011625125, 0.23238051676297822, 0.23498804836996823, 0.23771256431144958, 0.24049522082968997, 0.2432866111885512, 0.24619193136175174, 0.24907205269567456, 0.2520987137408895, 0.255176834964586, 0.2584519550892576, 0.2616169761658588, 0.2647922659280383, 0.2680861238353733, 0.27143713759665894, 0.2748578137670749, 0.2783205330840687, 0.28167153601031636, 0.28526870548727934, 0.28891219812815183, 0.29262480516218614, 0.2963604014876007, 0.3001545980500818, 0.3039880399188753, 0.3078715643043707, 0.3117591948412067, 0.3157480562692998, 0.3197671521198936, 0.3238514890290303, 0.32795575319975884, 0.33213434429833094, 0.33635668234327337, 0.34065559910071425, 0.3449607125477261, 0.34924653224070473, 0.3536486774938003, 0.35809054144074653, 0.36258829717042107, 0.36710646107116157, 0.3717171383463739, 0.3763066148109583, 0.3809369133644657, 0.385654378599519, 0.3903564395478292, 0.3950358535537157, 0.39982340889937995, 0.40464383320235464, 0.4094062904097219, 0.4143005752009409, 0.41925056415391243, 0.4241896222103096, 0.4291540619884797, 0.4342108027951317, 0.43921478518911666, 0.4441224507803801, 0.4491932413570316, 0.45428046521871174, 0.4594568709566461, 0.4645660001440135, 0.4696388244692613, 0.4747908137003554, 0.4799555730736116, 0.485049700596068, 0.49024747984815487, 0.49544485370055535, 0.5006530535217578, 0.5058650000042411, 0.5111185170586597, 0.5163310423119041, 0.5215856933349589, 0.5267994180449935, 0.5320164301346125, 0.5371984659416905, 0.5424218237266129, 0.5476342420920366, 0.5528500030536561, 0.5580591134142168, 0.5633225691612704, 0.5685066000474392, 0.5736395545710673, 0.5788130641095626, 0.5839733153361993, 0.5890346125113787, 0.5941747245236587, 0.5992742408060524, 0.6043713572444236, 0.6094435627473441, 0.6145120647614657, 0.6195292525414311, 0.6245311749731208, 0.6294932730186387, 0.6344273218913485, 0.6394144169693508, 0.6442778943236982, 0.6490149420549058, 0.6538338769324501, 0.6586157389996455, 0.6633612525502327, 0.6680653798134703, 0.6727107956141659, 0.6773352447829075, 0.6819158324895335, 0.6864917641823965, 0.6909762076515091, 0.6954303269779972, 0.6998214591263954, 0.7041654614412871, 0.7085193896725097, 0.7127570543864229, 0.716807057464494, 0.7209635375374365, 0.7250600084055324, 0.7291361415114258, 0.7331055406127266, 0.7370865704553047, 0.7409261881082231, 0.7447077731160938, 0.7483875077320261, 0.7520533866611218, 0.7555642812512657, 0.7591099498239029, 0.7625831298705132, 0.766146504264104, 0.7694529295598146, 0.7726617508566433, 0.7758412355359279, 0.7789506530132385, 0.7818787241086653, 0.7848578954623657, 0.7877532901093022, 0.7905724164761108, 0.793310605697142, 0.7959546814035294, 0.7985315177601313, 0.8011006302376275, 0.8035019404208045, 0.805823877799397, 0.8079664858983461, 0.8101391498126544, 0.8122624233548161, 0.8142544099675743, 0.8161604628312582, 0.8180588611351949, 0.8197815973336451, 0.8213077528601287, 0.8228777378510779, 0.8243562020639897, 0.825794405813744, 0.8270832004434534, 0.8283197860153048, 0.8294257147507181, 0.830443814109377, 0.8312579063748323, 0.8321127238747796, 0.8329480992091993, 0.8336007818604761, 0.8341620732539842, 0.8345363555404588, 0.8349258846293326, 0.835318486058536, 0.8355004240588789, 0.8355913181094536, 0.8355119982101484, 0.8354296408093883, 0.835250809983867, 0.8349759140690033, 0.8346053347981729, 0.8341907289369503, 0.8336233644591329, 0.8329257645057812, 0.8321796530597356, 0.8313394993398685, 0.8303671522355631, 0.8293447478279432, 0.8283022403768318, 0.8270805684073336, 0.8257691908944413, 0.8242655284322024, 0.8227878090437556, 0.8212404910483146, 0.8195700467884898, 0.8178077680743632, 0.8160331445570302, 0.8140793695134366, 0.8119230522912148, 0.8098135778736144, 0.8076124389584458, 0.805362933802116, 0.8029765791018135, 0.8005537438945627, 0.7979899524370893, 0.795344420569872, 0.7926687858701442, 0.7898543806925936, 0.7868340996833819, 0.7838807583599067, 0.7808429356439317, 0.7777989357246774, 0.774586467372447, 0.7711787362266949, 0.7678296086240948, 0.764398972328437, 0.760910527033705, 0.7573191712512413, 0.7536103511205381, 0.7498750204675549, 0.7460646811278235, 0.74219746959084, 0.7382399156215528, 0.7342826730491889, 0.7301790726082633, 0.7260127833018899, 0.7216673259560578, 0.7173928456573848, 0.7130570644912062, 0.708650166138771, 0.7041804501918026, 0.6997686908224551, 0.6951633189699898, 0.6903876784449742, 0.6856955964134565, 0.6809469538084413, 0.6762552403924283, 0.6713845177175378, 0.6664209635884304, 0.6614665899925879, 0.6564658785678513, 0.6514732258548219, 0.6463769505796461, 0.6411166173931885, 0.6359580353421308, 0.6307090649374558, 0.6254691415740332, 0.6201860838270433, 0.614856684708844, 0.6094948215742558, 0.6041254088960722, 0.59868818323592, 0.5932197974467455, 0.5878043769828729, 0.5822682727860874, 0.57658968901225, 0.5710266752322923, 0.5654372449823443, 0.5598637275417016, 0.554222373916279, 0.5485517449351163, 0.5428767242312154, 0.5371858117919602, 0.5314531046731282, 0.5257385942603289, 0.5201139149186077, 0.5143626561511937, 0.5086078415892017, 0.5028796241379289, 0.49711658355204397, 0.4912022987807391, 0.4854608974430335, 0.47971343395903476, 0.4740280211555369, 0.46826648805955384, 0.46243370412839563, 0.45669077378360046, 0.4509502533827132, 0.44533137085385305, 0.43958670734129984, 0.43387689565268966, 0.4281599039507399, 0.4224604394570733, 0.41675728260037864, 0.4110980093337591, 0.4054739954372593, 0.39985129187030993, 0.3942505295800514, 0.3886342546405807, 0.38308532341128537, 0.377562978242842, 0.3720608315346938, 0.36658459802128274, 0.3610861441927548, 0.3556719635375464, 0.3502298945608938, 0.3448784757067601, 0.33955431347053483, 0.33425571961442635, 0.32899234453014736, 0.3238000788279157, 0.31859879629785776, 0.3134355789057803, 0.3082987923129719, 0.30321685272559623, 0.2981848615007246, 0.2931845118826396, 0.2882277584190514, 0.283271635834309, 0.2784106072875461, 0.2736320854477275, 0.2688555196052708, 0.26412758841162176, 0.25940879342969303, 0.25478561825407386, 0.2502496281100218, 0.24572006972494492, 0.24124342933591755, 0.2369100971445772, 0.2325297933790742, 0.22820926275268041, 0.2239483560903299, 0.21974699689103308, 0.21548242850414578, 0.2114156995889271, 0.20739075555727324, 0.20343208548845157, 0.19952771683592976, 0.1956438726817268, 0.19185551170926174, 0.18812782620816826, 0.184450190149593, 0.18083005644185948, 0.17734334725394324, 0.17383106650265198, 0.17036253125195944, 0.16698056077862464, 0.1636612981054083, 0.16045801105564636, 0.15725784842278606, 0.15403214074120888, 0.15097532684877485, 0.14797877627263398, 0.14500447335362118, 0.1421346143168758, 0.13944310810057503, 0.1366773136351271, 0.13397853016587863, 0.13124360253463635, 0.12869016039470169, 0.1261634143141378, 0.1237338444077752, 0.12136273355388848, 0.11905971107016922, 0.11680566589653808, 0.11472162287487045, 0.11257395745731709, 0.11049269854610395, 0.10842930810964707, 0.10648421555899282, 0.10464241575107246, 0.10281391628624349, 0.10104813717213072, 0.09928569238440656, 0.09765050600139961, 0.09599559406873294, 0.0944843475286666, 0.09302550599847291, 0.09177692766566584, 0.09040377948502006, 0.08907230768423673, 0.08782408459378724, 0.08663406782426848, 0.08546829209111478, 0.0843959221075641, 0.08327260973215887, 0.08231976551591351, 0.08141324886995917, 0.080573383767375, 0.0797573720848153, 0.0791080699709219, 0.07837194701342465, 0.0776894372388146, 0.07707195914691309, 0.07649089860486193, 0.0758208982758233, 0.07535667924793615, 0.07493230043566768, 0.07459526968641131, 0.07424408064221093, 0.07392009680565584, 0.07365371208479554, 0.07342679824933103, 0.07316903674242917, 0.07302772161437417, 0.0729124265784376, 0.07283848901149687, 0.07279690007291836, 0.07280560681948325, 0.0728251926556143, 0.07298303868343063, 0.07305244207909133, 0.07315825509188174, 0.07322000676679491, 0.07340358431927917, 0.0736325905406133, 0.07386720092021985, 0.0741281865171967, 0.07442730849620771, 0.07473623344495285, 0.07512402179426883, 0.075472637609004, 0.07584592070467171, 0.07610672117960945, 0.07654179959242292, 0.07703701631501508, 0.07749077525411355, 0.07795900908473924, 0.07838956790032833, 0.0788906540159501, 0.07956192939422078, 0.08006008312363276, 0.0805752022534213, 0.08099545489497077, 0.08155277684699354, 0.08208800098964351, 0.08265883637925478, 0.08323203522228328, 0.08382353253774925, 0.08439766778363597, 0.08503375346036596, 0.08560242407635742, 0.08617434742750542, 0.08667492085101124, 0.08725869691333066, 0.08785428049252413, 0.08842601825828365, 0.08899278310638795, 0.08956111749512435, 0.09011464604566329, 0.09079863638243363, 0.09132005769014974, 0.09184054101139258, 0.0922921861937315, 0.0928134333767605, 0.09337042192331642, 0.09386474509202894, 0.0943495939045766, 0.09484382520105618, 0.09530337791965478, 0.09572713658983709, 0.09616452425632106, 0.09660639560443138, 0.09700903593138098, 0.09739546207293981, 0.09772260712970769, 0.09807920096840844, 0.09854467435087082, 0.09884201651356522, 0.09912462985179549, 0.09929396511175873, 0.09955517365277809, 0.09979590598844307, 0.10000807259311492, 0.10019571438604141, 0.10031821241633425, 0.10046096541302356, 0.10061632058534244, 0.10069861328448465, 0.10075551426834885, 0.10075004272724927, 0.10075978810740012, 0.1008693559695593, 0.10080605977330748, 0.1007215387811484, 0.10055611150699505, 0.10043349600553655, 0.1002798665192703, 0.10010274736630001, 0.09989756979885428, 0.09974476481733967, 0.0994727730331728, 0.09915297394760708, 0.09883525800094048, 0.09849081175919, 0.09823835143440618, 0.09782436178472576, 0.09740957294512109, 0.09694999058380714, 0.09646847321652566, 0.09581015372341697, 0.09530144548799027, 0.09484030211258097, 0.09425601246999986, 0.09364456298930675, 0.09306822718696024, 0.09239459423269497, 0.09175603768480634, 0.09102753417019836, 0.0902781514498813, 0.08952374372986635, 0.08872876248287509, 0.08784639818595444, 0.08701652479177119, 0.0861609067117235, 0.08525612715113719, 0.08435326429781634, 0.08359316574804418, 0.08261812341953695, 0.08162814287611715, 0.08053646214791925, 0.0795256887389853, 0.07862740403059296, 0.07755772875523279, 0.07647535561919369, 0.07530834148960244, 0.07420828699053804, 0.07321143441966124, 0.07206120468087376, 0.07090116611652215, 0.06967784792704686, 0.06850404149167626, 0.06728024335087215, 0.0660848862066117, 0.06487522484716828, 0.06372547348765789, 0.06248075507378567, 0.061252502375639846, 0.059990451933534944, 0.05872322803879573, 0.05755559612779844, 0.05626593630468924, 0.05490313409926636, 0.05362665181160196, 0.05234757436526053, 0.05115633249297314, 0.0498627634915204, 0.048603110728805424, 0.047315145328322074, 0.04603376212956718, 0.04470228218831178, 0.04344171585477898, 0.042183436122090696, 0.04093226517251899, 0.03968699984995706, 0.038602537360903556, 0.03735268038969443, 0.03611863452515977, 0.03490413295076249, 0.03370701504857066, 0.03243768388362651, 0.0312873276795471, 0.030146546499086525, 0.029024376211707337, 0.02791773009204584, 0.026853530758207244, 0.025778507499873298, 0.024729746344337163, 0.02369660473912786, 0.02268664145521668, 0.021834619443820702, 0.020857200465437254, 0.01996305290217595, 0.01904698380260215, 0.01816761648606401, 0.01719840025171103, 0.016408150231609395, 0.01575196548185049, 0.015009098062211276, 0.014304323746688018, 0.0136179247736953, 0.012993275225594562, 0.012456607524900316, 0.011903568572985638, 0.011393519226392625, 0.010822536859724822, 0.010413248125779057, 0.010020822918016722, 0.009693544596216854, 0.00940689474928291, 0.009230258447321116, 0.009021025270686359, 0.00884066015698608, 0.008732863816229178, 0.008674660935997296, 0.008776992755708075, 0.008807125076292643, 0.008782445070370301, 0.008944562902616335, 0.009159330662029319, 0.009539663634542195, 0.009849048600766745, 0.010083316588973018, 0.010534778226335756, 0.01104116164757379, 0.011765061272192926, 0.01236495919854779, 0.012955779051120673, 0.013700990443858588, 0.014509550446891837, 0.01535462796470453, 0.016295301702941137, 0.017405968735241972, 0.01846153380680741, 0.01958846445818922, 0.020647452946996766, 0.021934561159767805, 0.023382291137218916, 0.02478540269246416, 0.026259851255075562, 0.027694151055019288, 0.02932621568841838, 0.031084639207501312, 0.03284206230172929, 0.03467106581136654, 0.036627111825310206, 0.03859380138978253, 0.040526645848541855, 0.04265934707976151, 0.04486190680375492, 0.04727994346489948, 0.04960649916609338, 0.051877863521690736, 0.05438177563875918, 0.05695744960075144, 0.059717316492400516, 0.06242433856705216, 0.0651946976859712, 0.06806300001237117, 0.07100933631188874, 0.0740133126153696, 0.07711755303495563, 0.08032915335157242, 0.08358183966206695, 0.08691237683876195, 0.09032226461004939, 0.09380728793808579, 0.09730701489250042, 0.1009535765458003, 0.10467299742438699, 0.1084489741606171, 0.11231668726738715, 0.11618158542559172, 0.12020352161956717, 0.12429373201478278, 0.12855723659804746, 0.13277244276569472, 0.13698805642737552, 0.14136317200658896, 0.1458083353824847, 0.1503619867419322, 0.1549422046316757, 0.15947704739500568, 0.16421526573509537, 0.16900295477822458, 0.17387159847041075, 0.17880404121654037, 0.1837821257780361, 0.1888448364762535, 0.19398506993234713, 0.19917160115075583, 0.20442158082889508, 0.20984452019124455, 0.21520618833928395, 0.22053890504060297, 0.22604761313641913, 0.23161601122475475, 0.23726725589076234, 0.24294998351047073, 0.24876669324497755, 0.25455664584013477, 0.26040762394002226, 0.2662978093085147, 0.27226844272395123, 0.27819703549430036, 0.2842886985934293, 0.29042727120410083, 0.2966525129692765, 0.302878091255229, 0.30907401723252825, 0.31540280475785937, 0.3217723353543182, 0.3282590192840896, 0.33469860762834047, 0.34114655981314274, 0.34767546856506143, 0.35424274905206, 0.36077764361013187, 0.3674270092891822, 0.37411097655970027, 0.38082107531782905, 0.3875608627626636, 0.3943459337832207, 0.40114025863027925, 0.4080135931973304, 0.41485562751855376, 0.42172574995411233, 0.42861491273644137, 0.43553699787445765, 0.44248715275603295, 0.44945208269767734, 0.4564366865849948, 0.4633660466051686, 0.4703943609454273, 0.4773509153393356, 0.48440999354920067, 0.4914730207851187, 0.4985156992415559, 0.5055880539632451, 0.5126978201757924, 0.519766425333051, 0.5268364151492085, 0.5338754577002515, 0.5409485282879546, 0.5480651239014201, 0.555122854856593, 0.5621768716991979, 0.5691687577839817, 0.5762176427551773, 0.583262052799183, 0.590285214565684, 0.597294543099039, 0.6043198202253849, 0.6112934199101536, 0.6182415783453601, 0.6251820620542512, 0.6321023348988315, 0.6390062713282502, 0.6458805635578067, 0.6526439884210311, 0.6594779807987979, 0.6662790687803942, 0.6731708820597242, 0.6798874985005251, 0.6864340877355404, 0.6931084695586768, 0.6997417592865198, 0.706380723159995, 0.71292313312391, 0.7194810998017659, 0.7259324091656972, 0.7323427684267163, 0.7386608045007973, 0.7449898485532723, 0.7511871711303207, 0.7574267284971307, 0.7636096829678449, 0.7698397741774499, 0.7758941885550079, 0.7817691731725587, 0.7877317935448394, 0.793630884235915, 0.7995152930398569, 0.805279142527077, 0.8110241295254585, 0.8166555365649089, 0.8222241336554236, 0.8276037678572732, 0.8330578111812985, 0.8384741001528823, 0.8437742815256938, 0.8490011607468848, 0.8542143039075472, 0.8592842403109736, 0.8643254954574325, 0.8692431388537307, 0.8740877798230419, 0.8788339123178972, 0.883530580085586, 0.8881169610061243, 0.8926580370496761, 0.8971157857425295, 0.9015003047835276, 0.9057873413917077, 0.9099102555485057, 0.9140356247401556, 0.9180693863572621, 0.9220332802882478, 0.925880264632513, 0.9295993593719515, 0.9332679266141175, 0.9368420791129953, 0.9403765084698708, 0.9437540403665687, 0.9469495638077128, 0.9501531611023926, 0.9532579086882799, 0.9563169230886512, 0.9592171653051258, 0.9619847101548357, 0.9646968925260919, 0.9673098276131277, 0.9699625087608279, 0.97235861860405, 0.9745233178745144, 0.9767512943961871, 0.9788766584263477, 0.9810313219679014, 0.9829347901588775, 0.9847082155641884, 0.9864245227490631, 0.9880415840093172, 0.9895276877399897, 0.9909485665309581, 0.9922284961998405, 0.9934491784209416, 0.9945650426942007, 0.9955122337579102, 0.9964273545466449, 0.997236662523527, 0.9979370261318988, 0.9985313124536515, 0.9990054967487139, 0.9993913303585493, 0.9997709583714842, 0.9999346532601218, 1.0, 0.9998788327264968, 0.999757983978652, 0.999540704013407, 0.9992120938122014, 0.9987814767401321, 0.9982329430279585, 0.9976021231319655, 0.9969946602528383, 0.9961463495031678, 0.995205192671738, 0.99403163114882, 0.9929215237381186, 0.9917211140962411, 0.9904081506121318, 0.9889967095975165, 0.9874950705924351, 0.9858885820182156, 0.9842033124297301, 0.9824050452437076, 0.980514121619318, 0.978628350010984, 0.9765419963305144, 0.9743743018459745, 0.9721174733074601, 0.969775961422076, 0.9673371412965692, 0.9648285872294436, 0.962244696716925, 0.9595665874310929, 0.9568057576620793, 0.953819969004874, 0.9509138058472232, 0.9480656344070255, 0.9449658009880809, 0.9417895286201899, 0.9384092284190773, 0.9350983205305002, 0.9317737340320057, 0.9282932218512734, 0.9246673163325592, 0.9210491620629397, 0.9173554959323535, 0.913736524820802, 0.9098784604326136, 0.9057862826773542, 0.901826647427878, 0.8977964843192884, 0.8937088430460763, 0.8895423256585113, 0.8853851133824562, 0.8810831309783771, 0.8767247394948842, 0.8723934527418911, 0.8679150799293904, 0.8633314671803302, 0.8587638978199197, 0.8541458447608615, 0.8493869006460171, 0.8446830760965679, 0.8400225762610498, 0.8352048597533436, 0.8303445498390416