0.032167054441222115, 0.03198458972181919, 0.03182276378992278, 0.03167584529061516, 0.031543093872247435, 0.03144347038255185, 0.031330373328758994, 0.031194853137540134, 0.031104077326996937, 0.031018581375733545, 0.030967036882127628, 0.03088608063423654, 0.030788986989453086, 0.03071988754612621, 0.030653355932631715, 0.0305470357794633, 0.03049034310038363, 0.03042776790346988, 0.03037156991697784, 0.0303266675240705, 0.030269554759480247, 0.03021389151246041, 0.030178212601010862, 0.030123991697013408, 0.030032385249599294, 0.02999011904562977, 0.02994920041974348, 0.02992978443882054, 0.029890539580037366, 0.02986918969779299, 0.02983613043492268, 0.02980821072238791, 0.029791171760034714, 0.02977320238565995, 0.02972597892399567, 0.02972423684198092, 0.02972656904169729, 0.029738982635605246, 0.029749896047478745, 0.029802789729003337, 0.029820300225598673, 0.0298458431330677, 0.02979651537131801, 0.029848427377666936, 0.029966776421602694, 0.030017869140074052, 0.03007701603766385, 0.030088079912661225, 0.03017051964622251, 0.030277617835357495, 0.030368074993962282, 0.03046558643540248, 0.030576015978863495, 0.030687648491630904, 0.030818567573494618, 0.03094503702142998, 0.031080480796071855, 0.031212306320365306, 0.031367433889906704, 0.031490257480350996, 0.03166752247878819, 0.03185123228797519, 0.03208398396300062, 0.03227663790650763, 0.03244148455710112, 0.03265914959878999, 0.03288482569974119, 0.033118849509542844, 0.033361528502360904, 0.033613144253778066, 0.03387395542164892, 0.03414420045164593, 0.034394614778145184, 0.034688101723058, 0.03498436823590966, 0.035295772947241705, 0.03561605051785003, 0.03598630435042519, 0.03632029954442844, 0.03665807833895268, 0.03701751356987467, 0.03738861664499914, 0.03773353311628566, 0.038132934563147786, 0.03853924610919758, 0.03895881116511042, 0.039388647061837444, 0.039815043284663204, 0.040268155959270614, 0.04073024976560598, 0.04120467131098754, 0.04169008530730456, 0.04221347303641184, 0.04271838140746872, 0.04323941279774647, 0.04377060447821199, 0.044315290861278535, 0.04485661916007135, 0.04543042018530459, 0.04601397105026792, 0.04661339422638045, 0.04722550872454375, 0.04785046649021236, 0.048488407185580805, 0.04912822678909903, 0.04979392852503997, 0.0504723379866625, 0.05118330214956988, 0.05188519303429311, 0.052560691640566995, 0.053296360579894925, 0.05404403260903561, 0.05480402265582597, 0.05557660823370382, 0.056355012429688725, 0.0571543756401402, 0.05796657973330897, 0.058829748547823475, 0.05966345366119958, 0.060474771824587145, 0.06134414126553554, 0.06222657243571189, 0.06310818317269604, 0.06401896187758233, 0.06494522072564884, 0.06588118701083773, 0.0668303457670497, 0.06779280744353439, 0.06876865680704639, 0.06974110648157456, 0.07074602395961874, 0.0717635048802141, 0.07280491934548007, 0.07384648667119706, 0.07493104935198379, 0.07599586566762778, 0.07707574671388441, 0.07814932541103461, 0.0792610981536802, 0.08037465471026321, 0.08151379161842841, 0.08266512880941805, 0.08385111647603075, 0.0850239510127008, 0.08618768295693778, 0.08738983538540052, 0.08860360273542589, 0.08981067983457382, 0.09104981054558861, 0.09227405162647545, 0.09353719113094792, 0.0948093566948679, 0.09611600952823089, 0.09740354423771548, 0.09868789578984792, 0.09999876304662306, 0.10131937075337268, 0.10266509216868165, 0.10400298824678283, 0.10535822310805933, 0.10671560292997125, 0.10808316016593827, 0.10942125173365469, 0.11081314947150513, 0.11221484773376804, 0.1136203704479908, 0.11503299622609785, 0.11649334407461974, 0.11791470393124034, 0.11933524651952249, 0.12077536918043906, 0.12222296690495335, 0.12365097696881228, 0.1251157468054498, 0.1265769302869555, 0.12805228539430408, 0.12953167098735896, 0.13106128878121398, 0.13254245307349244, 0.13400449870673004, 0.13550058731660475, 0.1370002777000862, 0.13847937245601027, 0.13998829409973357, 0.1414886497190507, 0.14300118796619354, 0.14451410711411353, 0.1460539584165471, 0.14756385572670727, 0.14906392464580737, 0.1505776193775674, 0.15209122783647092, 0.15357492762623878, 0.15509106999373592, 0.15661706723932592, 0.1581259210851286, 0.15963241046368531, 0.1611699333497196, 0.16266651766924223, 0.16413219496979034, 0.1656290464028598, 0.1671216077757116, 0.1685926902182058, 0.17007776900053712, 0.171601486076752, 0.17306806346088172, 0.17453037034089472, 0.1759568705845887, 0.177412625656591, 0.1788534864350096, 0.18029404891258347, 0.1817256663304265, 0.18319718094843906, 0.1846037787621695, 0.18595269516436955, 0.18735067268291716, 0.18873723407528623, 0.19011071140564653, 0.1914738063354206, 0.19283157675450402, 0.19416878762296563, 0.19550465071069473, 0.19681488798151736, 0.19811238427063194, 0.19941068726726377, 0.20067945534099782, 0.20193621837881978, 0.2031774069018632, 0.20440411813788048, 0.20555401809809218, 0.20675793802074005, 0.20797459478382668, 0.20913531127284224, 0.210278221667555, 0.21145491983079753, 0.21255457565439506, 0.21360315603444058, 0.2146745153283736, 0.21572640680325944, 0.2167415717228839, 0.2177554337998766, 0.21875188263934697, 0.21972170452986947, 0.2206696126939702, 0.22157002272715862, 0.22247636068577661, 0.22336544145397658, 0.2242222191253076, 0.22505485120825616, 0.2258743459088896, 0.22665658045061304, 0.2274370538075745, 0.22816764721944205, 0.22887458191982107, 0.2295531246205815, 0.23021173831209532, 0.2307916191552922, 0.23140581033974691, 0.23199082427758586, 0.23258321907121868, 0.23310538374160245, 0.23363136050854838, 0.23409512672604849, 0.23453288406350625, 0.23488509896879722, 0.23527664742055485, 0.23563731184944497, 0.23596712088251498, 0.23626607797636906, 0.2365159119521583, 0.23675539876024831, 0.23698115277544124, 0.23715444051966622, 0.23729689748415908, 0.23742946313856794, 0.2375072282239808, 0.2375423355228478, 0.23756135982736779, 0.23754908381452694, 0.23749552791707543, 0.23742144817621183, 0.2373319354370641, 0.23719111458047779, 0.23701886202935385, 0.23681218676660945, 0.23657689580523464, 0.23628986537762534, 0.23599278823538167, 0.23566232701891784, 0.23534489554802585, 0.2349420420594788, 0.23445387119626349, 0.23399651827421886, 0.2335049690192861, 0.2330257798890347, 0.2324606319209498, 0.23183221853915628, 0.23120902066958085, 0.2305526986551236, 0.22988445730971557, 0.22915965689862772, 0.22840194579530199, 0.22761428993589267, 0.22679503392277542, 0.2259273687110528, 0.22504718231721704, 0.22409952878432415, 0.22315928311490263, 0.2221851707662927, 0.2211917510896225, 0.220149653979044, 0.21913912378693579, 0.2180261276690668, 0.21688569686838802, 0.2156600664890438, 0.21447150874661, 0.21323922752282726, 0.21199052270787194, 0.2107108691147407, 0.20941341404409236, 0.20807177771540009, 0.20673507494650434, 0.20533200868829082, 0.20390278713987747, 0.20246434908165797, 0.20098099334163452, 0.1994671886411828, 0.1979349341033326, 0.19637769102979327, 0.19476897286154796, 0.19316573074882848, 0.19158581448500225, 0.18992522490979485, 0.18824257348474224, 0.18653655998726157, 0.18481032407665027, 0.18306802153659577, 0.18129796301888668, 0.17950708019819692, 0.17768582342078662, 0.17585540723974427, 0.17404246675487733, 0.17216684720676595, 0.1702738540660041, 0.16835946192212484, 0.16643286707211985, 0.16450341600102777, 0.1625416163867687, 0.16056447086162476, 0.15859476173013065, 0.15658507853576076, 0.15455957715360455, 0.1525244805348941, 0.150476772795099, 0.14849826462150845, 0.1464162048685384, 0.144320327472156, 0.14222539086497965, 0.14012303369571177, 0.13801616026658434, 0.1358989775393426, 0.1338045431693883, 0.1316704535486476, 0.1295319327220027, 0.12740319483470416, 0.12525463478861457, 0.1231354702131836, 0.12097730068248222, 0.11881865270560477, 0.11671723169524624, 0.11455085172752236, 0.1124033349031015, 0.11024174649022239, 0.10808437551722065, 0.10593965183527156, 0.10378977565400933, 0.1016744049045979, 0.09953106936473977, 0.09739494894853751, 0.09531252637191846, 0.09318551878210236, 0.09110414672511624, 0.08899379692302113, 0.08689611714532795, 0.08484195072088396, 0.08276568910153047, 0.08072791261651721, 0.07867789507470714, 0.076644006784493, 0.07465718979959536, 0.07265192532451856, 0.07063552073346943, 0.06867077706042245, 0.06672303533163167, 0.06488269460380441, 0.06295926591864039, 0.0610779029324599, 0.059199744587673506, 0.057346449268747705, 0.055491373465017986, 0.05369138975288715, 0.05194748794804447, 0.05019154245749445, 0.04846233423138941, 0.046791125833216325, 0.04511267270285181, 0.0434724240137074, 0.04185276290167175, 0.040264020704116124, 0.038740258580125767, 0.03721024718246234, 0.03571291100301809, 0.034251489899581974, 0.03282464984869702, 0.03146227622264448, 0.030102123299910032, 0.028802021471590254, 0.027514499020345005, 0.02626648166848847, 0.02510172706226738, 0.023927980006605714, 0.022790050244802903, 0.021702924889043303, 0.0206584474594791, 0.019663915672330144, 0.018704737463665296, 0.017805045905616733, 0.016932372072589044, 0.01614751823419464, 0.0153612441755218, 0.01462373625165464, 0.0138901400920025, 0.013256146174237905, 0.012685685908591739, 0.01214356357314508, 0.01165033874205257, 0.011251441088306828, 0.010851844689477296, 0.01049818672166253, 0.010205566971662191, 0.009965904297049613, 0.00981742756443393, 0.009679872742107647, 0.00956755277058733, 0.009546238019059586, 0.00957953918588988, 0.009691757877087856, 0.009832578737200148, 0.010039097846976461, 0.010293656908639174, 0.010606497194052116, 0.010949767788060899, 0.01138343487327189, 0.011905452275177726, 0.012450648592275392, 0.013056047961929497, 0.013712052117345433, 0.014439803621043568, 0.015258821842352053, 0.016103761282879187, 0.01701148314045943, 0.017963812098292245, 0.018999661186582202, 0.020098967422347902, 0.02125902415334798, 0.02248176351279196, 0.023751992765353763, 0.025102797425074135, 0.02653159188472108, 0.02800588165426149, 0.029544251597375157, 0.031173549283677916, 0.03283720820810819, 0.034552884962497324, 0.036350360075776376, 0.0382129684978306, 0.04014638951870341, 0.04213873827536455, 0.04419249519675638, 0.04631661541574473, 0.04850611289554144, 0.05073573896978385, 0.0530592492997172, 0.05546501302207055, 0.05791441160513893, 0.060429187357917684, 0.06300931550480383, 0.06565475583059847, 0.06834860386978077, 0.07112661579714097, 0.07396877979627034, 0.076903209373945, 0.07987019160880042, 0.0828818421796729, 0.08598265947804025, 0.08914745160409399, 0.09239435292491255, 0.09568440807570595, 0.09899129907762345, 0.1024162036836621, 0.10590233166299265, 0.10945814919468971, 0.11306573114686015, 0.11676867649240681, 0.12049515571619472, 0.12428480951939352, 0.12810764134180597, 0.1320258415589343, 0.13599561162912158, 0.14003459648368458, 0.144132534583651, 0.14828214538041767, 0.1524980612008517, 0.15676463061272575, 0.16109647761912335, 0.1654849596478623, 0.16995783955921245, 0.17445504759885666, 0.1790009740593095, 0.1836128806618715, 0.188280149883174, 0.19301061478597606, 0.1977857575726138, 0.20254612524225518, 0.20743731736659884, 0.21237727468178386, 0.21736584479526347, 0.22240280137901494, 0.22750891117381258, 0.23263903341330036, 0.23781766072710697, 0.243048370881373, 0.24832154590231537, 0.2536232284281088, 0.25899148918576775, 0.2644039835405665, 0.26987552708013457, 0.2753726155250982, 0.280921244603815, 0.2865026555203692, 0.29212595519346124, 0.2977677457661424, 0.303474863436512, 0.30919172544615936, 0.31497728753225, 0.32079756022181105, 0.3266589845639896, 0.33254600375681886, 0.3384283363695513, 0.3443858230223705, 0.35037283100634814, 0.3564127032723556, 0.3624540943466821, 0.36850913868494567, 0.37460978670900097, 0.38073685900424215, 0.38688252272647433, 0.39306085863630663, 0.39928234269173923, 0.40550432504000383, 0.4117491674832859, 0.4179821017549231, 0.42427370531865116, 0.43058444906347726, 0.4369105285823525, 0.4432527469296785, 0.44961722104962915, 0.45598808959972853, 0.46232355250654517, 0.46872706651141804, 0.4751394630375233, 0.48156428082430086, 0.487991828878388, 0.4943940063588286, 0.5008386113251678, 0.5072865436345092, 0.513746944300534, 0.520198162680634, 0.5266425888365316, 0.5330971984104361, 0.5395510554335788, 0.5459611008283778, 0.5524159302578414, 0.5588492823308137, 0.5652933041442559, 0.5717289700120017, 0.5781836644503728, 0.5845969102099415, 0.5909982820716311, 0.5973926477112594, 0.603775563961821, 0.6101122178516705, 0.6164731332058869, 0.6228046797544852, 0.6291328437018092, 0.6354417549826146, 0.641701066431718, 0.6479725697088069, 0.6542316833824869, 0.6604537793613737, 0.6666513388976931, 0.6728093776502309, 0.6789567741685312, 0.6850576648060073, 0.6911499436274884, 0.6972110714473745, 0.7032472309422386, 0.7092426125837189, 0.7151596691850652, 0.7210929327601695, 0.7269882418511673, 0.7328659719323055, 0.7386805944881407, 0.7444435836101522, 0.7501808012881025, 0.7558762781424585, 0.7615009949497454, 0.7671137032368734, 0.7726816191935221, 0.778200987288268, 0.7836726580696914, 0.7890817356829145, 0.7944571936834937, 0.7997688860214494, 0.8050428718055461, 0.8102633670569335, 0.8154787507524053, 0.8205837304887476, 0.8256173449519512, 0.8306171685832049, 0.835532327731875, 0.8404215046183775, 0.8452504723682324, 0.8500072171008107, 0.8547148274263197, 0.8593648284073759, 0.8639445511421087, 0.8684598939400593, 0.8729044390303943, 0.8772893231533824, 0.8816056931374575, 0.8858557726280495, 0.8900371361557473, 0.8941377967335946, 0.898180884937776, 0.9021565774691797, 0.9060552592571719, 0.9098812478000843, 0.9136464793039409, 0.9173233865651844, 0.9208981409995792, 0.924429670079157, 0.9278840020919884, 0.9312311345957193, 0.9345332418533357, 0.9377675641079328, 0.9409069376544903, 0.9439659841831005, 0.9469849743248081, 0.9498768711151033, 0.952648650934685, 0.9553861121310153, 0.9580403606436716, 0.9606334859679614, 0.9631173406882091, 0.9654858209838502, 0.9678070421557282, 0.9700422882704274, 0.9722081671946338, 0.9742686047975738, 0.976210982971673, 0.9781035862255262, 0.9799078593847902, 0.9816307350486494, 0.9832571847935919, 0.9847645119595132, 0.9862182289076112, 0.9875816395713403, 0.9888660629067085, 0.990047677294298, 0.9911061134747579, 0.9921129672886962, 0.9930283309347522, 0.9938608441099542, 0.9945927801773263, 0.995234265731567, 0.9957853793438947, 0.9962461943636658, 0.9966139740020912, 0.9968947617316927, 0.9971119896168043, 0.997209034856993, 0.9972175543803116, 0.997093925277645, 0.9969306411913262, 0.9966972652420536, 0.9963493711141692, 0.9959122129580057, 0.9953663068032057, 0.994753642140339, 0.9940582030189793, 0.9932654475327383, 0.9923840640696402, 0.9914368502710952, 0.990376380585721, 0.9892029018614809, 0.9879733327978231, 0.9866563554247418, 0.9852468334979957, 0.9837571980029305, 0.9821869219342869, 0.9805246172802728, 0.9787774867322285, 0.9769614991482121, 0.9750443519700098, 0.9730294201132258, 0.9709499932914383, 0.968788287379941, 0.9665393215887007, 0.9642156886995881, 0.9617763112298922, 0.9592965562604153, 0.9567356506608865, 0.9540861995712758, 0.9513671229677417, 0.9485638291637473, 0.9456892995512338, 0.9427379106873757, 0.9397626590632782, 0.9366541037002007, 0.9334452060700051, 0.9301992479977531, 0.9268819881488501, 0.9235055635289304, 0.9200470029852108, 0.9165261299885432, 0.9129318469148763, 0.9092716630363002, 0.9055394029247695, 0.9017508668678857, 0.897867761857669, 0.8939567513368741, 0.88998230309223, 0.8859597184748568, 0.88186038712569, 0.8776726614911037, 0.8734603510773787, 0.8691897052344937, 0.8648634890607642, 0.8604800557411156, 0.8560199205435804, 0.8515321460211297, 0.8469914462868691, 0.8424217370947571, 0.8377766688475673, 0.833117899432739, 0.828374965015547, 0.823588909511905, 0.8187129230188986, 0.8138494834455979, 0.8089192704749165, 0.8039744578110578, 0.7989882193505161, 0.794004253837676, 0.788934532407512, 0.783781232112648, 0.7786499904464228, 0.7734838507231734, 0.7682998245531059, 0.7630666023464594, 0.7577871012541211, 0.7524984990829695, 0.747182212541199, 0.741850943170764, 0.736482251706227, 0.7310936545112046, 0.7256804969718719, 0.7202474115319667, 0.7147886627963399, 0.709320463030395, 0.7038315816507676, 0.698332315023566, 0.6928190140685009, 0.6872481080818919, 0.6817164860107138, 0.6761934153342454, 0.6706358023536707, 0.6650701904168942, 0.6595260807510557, 0.6539451579152272, 0.6483128639766662, 0.6427348277959868, 0.6371540778632284, 0.6316044531027146, 0.626018788058801, 0.6203861916617077, 0.6148153186111798, 0.6092475669816941, 0.6037266359042066, 0.5981644821775712, 0.5925857188502175, 0.5870481698834629, 0.5815213870535176, 0.5760038768496993, 0.5705028988165493, 0.5650079714538137, 0.5595382715524417, 0.5540850750898816, 0.5486426444376488, 0.5432271599541988, 0.5378020580721642, 0.5324312900875255, 0.5270812083264772, 0.5217602597330796, 0.5164548845419423, 0.5112069926631783, 0.5059491231381763, 0.500720634573628, 0.4954929158891922, 0.4903295378917843, 0.485192290087301, 0.4800912322214192, 0.47502245178703484, 0.47000807986288345, 0.46500436741584533, 0.4600077377031121, 0.45508169148536864, 0.45019215454497863, 0.44538367414550356, 0.4405646778281191, 0.4357286122702932, 0.43100143456017426, 0.42631959523780605, 0.4216722032628009, 0.41706689765851435, 0.4125312573282349, 0.4080094152317456, 0.40349161746945406, 0.3990680018431012, 0.39468931653574496, 0.39035504556518347, 0.3860690096969491, 0.3818191015021703, 0.3776299559765928, 0.37348899445415373, 0.369446110718393, 0.36539750768387846, 0.361379485689176, 0.35744002658822904, 0.35355278229985876, 0.34970832696034226, 0.34592794193408016, 0.3422017700181958, 0.3385272455694306, 0.3349064188401171, 0.33129611346082743, 0.32778920657220156, 0.3243415426443553, 0.3209388134344364, 0.3175898720626276, 0.3143372710900319, 0.31109181975130445, 0.3078882140288998, 0.30475924047823244, 0.3016865780997844, 0.29866467503494376, 0.2957055183852293, 0.29281512803621523, 0.2899666837808185, 0.28717515459748244, 0.2843955102632906, 0.28172317943359765, 0.27912175479029505, 0.2765556331998735, 0.2740449055909586, 0.2716007810687753, 0.26919931723623725, 0.2668537075183688, 0.26456374120306947, 0.26232918933574356, 0.260099258755274, 0.2579811671512452, 0.25598225233751465, 0.2539593090241146, 0.25199207289912273, 0.2500575120611253, 0.24820283878121893, 0.24638829930561093, 0.24464039841453974, 0.2429438070570531, 0.24129120162766277, 0.2396971755406703, 0.23814885011316636, 0.236654845730283, 0.23520981079154088, 0.23383162952793263, 0.23248108595628722, 0.231152653183549, 0.22990244674851218, 0.22869829774499512, 0.22756646582629975, 0.22644976973054126, 0.22534416694471582, 0.22432356384379806, 0.22334571328610994, 0.22242419668629607, 0.22152865942863476, 0.22068219129043432, 0.21986918366927052, 0.21909724138070102, 0.2183501506266058, 0.21765997650008287, 0.21699503380683446, 0.2163815254872551, 0.21580381767489734, 0.2153048263709328, 0.21479135528906193, 0.21426646770642224, 0.21383062829961672, 0.21342635622317613, 0.21308110538621328, 0.21273450341021363, 0.21241345260700142, 0.21212895407817087, 0.21187342869551537, 0.21162211843953607, 0.21142488751111035, 0.21126946415574466, 0.2111193165232856, 0.21099363938891202, 0.21085644307803245, 0.21078147632607847, 0.210719313707081, 0.21068426693876327, 0.2106673802017619, 0.21067083056906744, 0.21068797880479775, 0.2107144245297361, 0.21076434332696625, 0.2108286577485488, 0.21094734635616907, 0.21103306242271155, 0.21114019312953863, 0.21125268103732367, 0.21137772427660578, 0.21149452987657302, 0.2116437902305375, 0.21179275683936435, 0.2119584485783557, 0.21213001289503428, 0.21230803639594062, 0.2124887131308359, 0.21267709370886836, 0.21286338752035183, 0.2130517440160953, 0.21323147211551274, 0.21342261644501104, 0.21360849551061303, 0.21379730704042266, 0.21398330970662519, 0.21418824238346373, 0.21436360617897743, 0.21450575213468634, 0.2146764684378961, 0.21484000077245716, 0.21499291452570404, 0.21514054702668844, 0.2152578772818472, 0.2153890694476058, 0.2155085927422895, 0.21564126162397745, 0.2157328541183478, 0.21581556647074232, 0.2158827107939655, 0.2159369048043678, 0.2159521638227842, 0.21598153474635373, 0.21606325218202915, 0.21605056316109447, 0.21602436205034006, 0.2158951709903214, 0.2158501284985335, 0.21581322015718468, 0.21572161959135974, 0.21561003147284416, 0.21552295514013003, 0.21536442369148717, 0.21514923865901608, 0.2149572367085052, 0.2147428646356979, 0.2145338346637627, 0.21427007371802378, 0.21398022643702821, 0.2136726836355944, 0.2133419372375403, 0.21294540951570629, 0.2125722444431627, 0.21221014454193454, 0.2117784689057092, 0.21132200440810883, 0.21079405742361806, 0.21029282306672675, 0.20976882175933384, 0.2092102066815435, 0.208623694523351, 0.20807528917192294, 0.20742467119034, 0.20670354496774776, 0.20600990371481237, 0.20528848708464376, 0.20454628046371723, 0.20376833094148894, 0.20296011843174047, 0.20212755536810464, 0.20126728114549441, 0.20033436738342308, 0.19942437150343195, 0.19853895224647425, 0.19756207935126557, 0.19655888835247645, 0.19547594115059233, 0.19442664196262072, 0.1934054449589779, 0.19229038094187684, 0.19114994370748814, 0.18997985679000573, 0.18878905389100664, 0.18751640697838542, 0.18628142698478073, 0.1850178139369667, 0.18377109252312593, 0.1824462881060435, 0.18105214376674955, 0.17968435817471523, 0.1782899842283982, 0.1768738057580975, 0.17542741699667022, 0.17396896947921442, 0.1724720782121832, 0.1709311040776153, 0.16939120292573362, 0.1678278492524154, 0.16628653170139543, 0.16467225749177053, 0.16300219203365374, 0.16135413265092874, 0.15968511995839998, 0.1580518572385782, 0.15633545832415216, 0.15459726111281974, 0.15284929637950487, 0.15108506845907535, 0.14930060915191107, 0.14750516238564002, 0.14568986141961154, 0.14386405989179848, 0.14202320246483147, 0.14018322012402695, 0.13831177752908586, 0.13640239113341096, 0.1345092205861103, 0.13260282812835406, 0.13070916704526697, 0.1287751763786398, 0.1268426562506492, 0.12488819961547759, 0.12292559312286706, 0.1209384244687125, 0.1189629895721612, 0.11699811353807929, 0.11500564111557232, 0.11300782143384659, 0.11102062188755274, 0.10901174591653644, 0.10705056944851261, 0.10503006916174522, 0.10301050976588534, 0.100982175603968, 0.0989661540326658, 0.09700864400590346, 0.09498762897995437, 0.09297162311467995, 0.0909564290582625, 0.08895111016710157, 0.08698457089909947, 0.08498545084271318, 0.08299395434404794, 0.08102847173269259, 0.07905040758491932, 0.07707461542800134, 0.07511622812973752, 0.0731672214067905, 0.07126169079065815, 0.06932842827445336, 0.06746674326182701, 0.06555149477345129, 0.06365273951981654, 0.06176336077272743, 0.05989829833800103, 0.058076034561908706, 0.056240090066746753, 0.05442232653242511, 0.052667831813626616, 0.05088130023082518, 0.04912880209293526, 0.04738346521797807, 0.045660326309871956, 0.043970692569152876, 0.042290838612432054, 0.04070448421474493, 0.03906255556250186, 0.03744834648920485, 0.03585179678833703, 0.03429369334348721, 0.03280171941324832, 0.031292440373248964, 0.029812580349560597, 0.02837054165602921, 0.026948479223663155, 0.025581776097926275, 0.02421683914449261, 0.02288377055634796, 0.021619145523417913, 0.020345481287885873, 0.019151085336044028, 0.017940386495341673, 0.016766569112049743, 0.015625184005857416, 0.014525057760504322, 0.013497677686528197, 0.012465495229700283, 0.011471824286977064, 0.010517975969984992, 0.009600955895230748, 0.008746357567665737, 0.007903540729995733, 0.007100902297895213, 0.00636233630227174, 0.005637174653095464, 0.00496501758462444, 0.004321974834859949, 0.0037213860299659127, 0.0032025839082071733, 0.0026820458111877056, 0.002235870554415486, 0.0018012071369674747, 0.0014128438046099652, 0.0010943958896891253, 0.0007949375515384253, 0.0005229411727200671, 0.0003199793577936936, 0.00016265809322013456, 6.790259220265528e-05, 0.0, 2.2547213888607807e-05, 4.302665013399475e-05, 0.00011298491144946373, 0.00025183520397792705, 0.00041760424681814754, 0.000624998643287361, 0.0008917114446420995, 0.001207623199426329, 0.0015909520703990521, 0.0020028888281547587, 0.002435569581111937, 0.0029516089531807324, 0.0035160948517003843, 0.004155930578126493, 0.004814613583438905, 0.0055491848861274765, 0.006305903782208693, 0.007114677324998909, 0.007987974655610082, 0.008898794934520346, 0.009864791313803252, 0.010879819293772356, 0.01194706122404166, 0.013087446557035996, 0.01425608701854238, 0.01545393877210527, 0.016731526831684256, 0.018060430235476252, 0.019472970663035445, 0.02090050933519284, 0.022364417724218082, 0.02390029411320107, 0.025488014001155666, 0.027135962173835584, 0.02882618941575479, 0.030540543620858604, 0.032338636899897244, 0.034187168141395774, 0.03610593130379918, 0.03805323973637132, 0.040042598801355335, 0.04209481559895637, 0.04419817288523335, 0.04636950062345681, 0.04857293876026115, 0.050843810722425324, 0.053149080330722125, 0.05550682176862151, 0.05790829944799794, 0.06037113306022271, 0.0628836767063493, 0.06544871643630193, 0.06806439406469518, 0.07075720091861872, 0.07347022263451242, 0.07618988713755184, 0.07901132801223135, 0.08188102934488833, 0.0848214533934159, 0.08778479974612181, 0.09081723540100009, 0.09387670112322737, 0.09698618209843399, 0.10013402725428737, 0.1033437215518973, 0.10659036535074613, 0.10989756359430797, 0.11325175352639079, 0.11664993724001343, 0.12009788395163877, 0.12358503874082176, 0.1271261270938486, 0.13071263062736022, 0.1343724573603542, 0.13804570208714534, 0.1417667660182422, 0.14553221062810162, 0.14934325580161262, 0.15316014680946705, 0.15706605074888058, 0.16102247933413236, 0.1650114200339413, 0.16904270321093717, 0.17308380528000653, 0.17720314569550885, 0.18140719682395934, 0.18560039198380476, 0.18977541444918664, 0.1940601670376736, 0.19838277837472326, 0.20275589890879375, 0.2071526146377634, 0.2116046224212375, 0.2160758506466436, 0.22058594976604137, 0.22511482608751077, 0.22970383357019356, 0.23431944609457378, 0.23898226182727522, 0.24368033083524715, 0.2483867040897837, 0.25315780536029076, 0.25796877584453004, 0.26280454401284115, 0.2676732183493058, 0.27258714026377295, 0.2775191100694029, 0.2824780954940197, 0.28747555056648894, 0.2925043330947635, 0.29756538071394084, 0.30265522600440287, 0.30777643781009906, 0.3129255111961076, 0.31810357746776435, 0.3232890265670447, 0.32852608719942267, 0.33377665519236116, 0.3390672029515911, 0.3443823624937139, 0.34973301946363156, 0.35509490776398933, 0.36045562541899456, 0.3658683835104458, 0.37130275050361244, 0.37673029063419494, 0.382210324854921, 0.3877555540058041, 0.3932672219584414, 0.398799835795875, 0.40430775782614936, 0.40988582156417236, 0.4154717644977838, 0.4210831562859692, 0.42670964627520336, 0.43237053063682185, 0.43802360536947, 0.4436593772693549, 0.44934587654158203, 0.45504426188073993, 0.4607541284858591, 0.46647502876509234, 0.4722289414905588, 0.4779675756789484, 0.48371694551995187, 0.489414512053704, 0.4951908799766394, 0.5009960956382846, 0.5067791316237634, 0.5125678792927397, 0.5183154204513463, 0.5241196687955997, 0.529912557662514, 0.5357206697997084, 0.5415287071091142, 0.5473405685462325, 0.553146917322935, 0.5589073648857348, 0.5647169239366415, 0.5705218903734616, 0.5763318421793397, 0.5821255493649335, 0.5879198484372081, 0.5937022511721983, 0.5994788058033954, 0.6052614681489134, 0.6110226549791657, 0.6167653368118209, 0.6225125322346724, 0.6282500829076055, 0.633937882931909, 0.6396587206417057, 0.6453835336747925, 0.6510729873739708, 0.6567480950833116, 0.6623406989004258, 0.6679933243554812, 0.6736605703386964, 0.6792675165472287, 0.6848553114200987, 0.6904218345907067, 0.695969325077144, 0.701457439698085, 0.7069660053068699, 0.7124493844849559, 0.7179267126343067, 0.7233556153536859, 0.728727825158106, 0.7341082018879318, 0.7394593749159143, 0.7447624819983306, 0.7500556829335636, 0.7553124882314123, 0.7605412748801333, 0.7657364336094117, 0.7709113681665755, 0.7760355437955552, 0.7811150210671552, 0.7861698399531798, 0.7911875047102723, 0.7961475532949339, 0.8010909605995988, 0.8059641561586199, 0.8108291430373762, 0.8156503273191608, 0.8204370218872162, 0.8251677595300013, 0.8298338923453003, 0.8344764861381592, 0.8390715370818919, 0.8436380798736302, 0.8481336558097978, 0.8525780097148616, 0.856976234514774, 0.8613241269254127, 0.8656250369129611, 0.8698691420481625, 0.8740212428075733, 0.8781640360891158, 0.8822501358665078, 0.8862831813229787, 0.8902536105718761, 0.8941756007306001, 0.898027562782936, 0.9018204145605851, 0.9055351072578859, 0.9092096583854014, 0.9128006281695015, 0.9163521570306655, 0.9198386812965271, 0.923277954106331, 0.926630633388477, 0.9298980938023815, 0.9331214134643177, 0.9362766275599193, 0.9393463288314612, 0.9423657711420494, 0.9452975954630618, 0.9481771699979875, 0.9509840875526931, 0.9537432548956941, 0.9564005323026495, 0.9589839774544239, 0.9614959256101084, 0.9639340733545373, 0.9662711206189908, 0.9685631801347522, 0.9708005651320922, 0.9729351265081816, 0.9749930370923409, 0.9769329945916819, 0.97884101256032, 0.9806669814099265, 0.9824136755912183, 0.9840791995997413, 0.9856885832224417, 0.9871878251490732, 0.9886037316353341, 0.9899417893409626, 0.9911982123670791, 0.9923459010417941, 0.9934411774667946, 0.9944914212930926, 0.9954128813408952, 0.99625188790841, 0.9969883039595197, 0.9976634862320877, 0.9982594002326916, 0.9987638916102377, 0.9991834050059432, 0.9995191182758745, 0.9997678418089597, 0.9999212260088963, 1.0, 0.9999923948221814, 0.9998801143943717, 0.9997019427315311, 0.9994152196690802, 0.9990648777368467, 0.9986261573308363, 0.9981092027755589, 0.9974934123475104, 0.9967555908804994, 0.9959705734325878, 0.9950970473144527, 0.9941734058921854, 0.9931194927680262, 0.9919468738633117, 0.9907273147594685, 0.9894211006906964, 0.9880623586200347, 0.9865798539924934, 0.9849801539283075, 0.9833350559867546, 0.9815978671658478, 0.979783996307058, 0.9778856212946443, 0.9759103003750077, 0.9738436404682826, 0.9717043069862765, 0.9694718817667666, 0.967158480726524, 0.9647547030990695, 0.9622819003830139, 0.9597373508576508, 0.9571037209647596, 0.9543915681859733, 0.9516196886867256, 0.948749837834169, 0.9457662847958342, 0.9427501137429448, 0.9396570092475567, 0.9365074885228499, 0.933260614341462, 0.9299011833039674, 0.9265135049710725, 0.9230518263308887, 0.9195312669309851, 0.9159230350537552, 0.9122686571648422, 0.9085183104038611, 0.9047011631099078, 0.9007884901110095, 0.8968437844982368, 0.892796500602203, 0.8887253612956395, 0.8845882936812056, 0.8804260040027199, 0.8761562544095653, 0.8717763215987874, 0.8673946810106796, 0.8629525708906481, 0.8584865300410518, 0.8539233235111117, 0.8493254968863121, 0.8446523259976181, 0.8399281473601102, 0.8351160010770619, 0.8302974848943726, 0.8254372122550581, 0.8205186252685378, 0.8155530343956601, 0.810519249339216, 0.8054663191047264, 0.8003563247314156, 0.7952176064827008, 0.7900366738350612, 0.7848277036821164, 0.7795653413040972, 0.7742295195195611, 0.7688992399295183, 0.7635327045671297, 0.7581736985058085, 0.7527342787150108, 0.7472546173908223, 0.741759825478568, 0.7362378624974554, 0.7306830568225895, 0.7251116890205354, 0.7194985607075229, 0.7138839017756315, 0.7082475408014792, 0.7026120964132136, 0.6969343217408596, 0.691197116461733, 0.6854943696827868, 0.6797759504717157, 0.6740758487667072, 0.6683270535801304, 0.6625721861690026, 0.6568066091584035, 0.6510349814213595, 0.645243177575825, 0.6394653648102756, 0.6336495077083489, 0.6278717055737031, 0.6220918949978234, 0.6163454899435469, 0.6105625057065444, 0.6047816117778483, 0.5990100984793411, 0.593245962243783, 0.5874413984528295, 0.5817022359757337, 0.576003980282834, 0.5702796757843179, 0.5645691696403552, 0.5588527486172495, 0.5531765297947863, 0.5475169253324197, 0.5418754080552742, 0.5362534157554963, 0.5306116357076244, 0.5250380253336406, 0.5195419406314506, 0.514005600593505, 0.5084969982804458, 0.5029820972889275, 0.4975366027566081, 0.4921144510849358, 0.4867289257848551, 0.48137468685014867, 0.47606427625328807, 0.47077507776707983, 0.4655510903171913, 0.46033071999554015, 0.45514991651717673, 0.4499744010786175, 0.44487964493966814, 0.439802509177032, 0.4347918843503033, 0.4298222902567677, 0.42487951551397296, 0.4199975809279484, 0.4151579458097813, 0.41036479914608953, 0.4056176228269924, 0.4009020685789578, 0.3962520196712249, 0.39169372726080687, 0.38713570176936657, 0.38263041908556944, 0.37815460746841484, 0.3737596099264895, 0.3694093518042141, 0.36512250294140136, 0.3608898204020528, 0.35673030879759665, 0.35260586449507825, 0.3485359337795742, 0.34452697230354573, 0.34057612513417557, 0.3366684171535678, 0.33283713782831387, 0.3290798929492319, 0.32536436781941774, 0.32170931629717625, 0.3180869865080879, 0.3145574007633985, 0.311110105855649, 0.30769782635758613, 0.3043475744020709, 0.30104552859449357, 0.2978217427277374, 0.2946513641123072, 0.2915525726955602, 0.28851563595271595, 0.2855211593360441, 0.28261116143864545, 0.27973730273949304, 0.27695362224546516, 0.2742304732383729, 0.2716075584919591, 0.2690015932153834, 0.26643122912586853, 0.263956039177057, 0.2615426535511986, 0.25919532572330306, 0.25690509015109986, 0.2546487911643234, 0.25248600756058964, 0.25038335998129646, 0.24834227043669246, 0.24635970894876955, 0.2444807593896798, 0.24261269958237258, 0.24080678514996048, 0.23903713155992523, 0.23735686955282911, 0.2357677941357951, 0.23420082524566285, 0.23269371271380848, 0.23123309434499495, 0.2298451213196789, 0.2284986900631519, 0.2272260307076633, 0.22600825491808263, 0.22482098101479608, 0.22371442364576744, 0.2226485553920967, 0.22164685846315274, 0.22069559794502497, 0.2198322761779903, 0.21897582015304146, 0.21817335789133022, 0.21741805726012822, 0.2167123735878091, 0.21605260567872014, 0.21544382899111414, 0.2148186408679019, 0.21431051392240816, 0.2138438422163593, 0.21348703559051196, 0.21309333794895466, 0.21272813863601747, 0.2124231428957312, 0.212165984694389, 0.2119407505953245, 0.21175475290554394, 0.2116237899382965, 0.2115109863610004, 0.2113804627906692, 0.21134747918660435, 0.21134611825960814, 0.21136865263813268, 0.21142926216800473, 0.21154694013848185, 0.21166121010990877, 0.2118044780226492, 0.2119770862651447, 0.2121749846068114, 0.2123524323661152, 0.21260687479371282, 0.21288243795567857, 0.2131868368000737, 0.21350140177399154, 0.21385495470596724, 0.21420479468546202, 0.21457324056571125, 0.2149900757396303, 0.21538851140570808, 0.2157997607981261, 0.2162314321157932, 0.21667722944856505, 0.21709378164172805, 0.2175694333259253, 0.21807844496098097, 0.21856623436077227, 0.21906182629278, 0.21956554120990562, 0.22007331940846006, 0.2205941811930821, 0.22110914682934776, 0.22162712403398338, 0.22210207201011237, 0.22262843979330665, 0.22314500233486462, 0.22366599434010184, 0.22418239300420195, 0.2246991264860322, 0.22520353715375585, 0.22574224615627433, 0.226227867737212, 0.22670774065759547, 0.22714842474072153, 0.2276174784079536, 0.2280728274451282, 0.22851965760497364, 0.22895386125845704, 0.22940275578499364, 0.22980586421106292, 0.230143681168507, 0.2305256896595729, 0.2308895025257028, 0.2312711209222585, 0.23159239232456685, 0.2319113877533377, 0.23219441455817671, 0.23245891239557606, 0.23271097865467497, 0.23293480308805167, 0.2331350364447274, 0.23331678788654098, 0.23347591734615586, 0.23360043631721825, 0.23371350977487762, 0.2337801080710972, 0.233844453212019, 0.2338810973551809, 0.23387143517757716, 0.23385392655152012, 0.23380523019251517, 0.23372812909731241, 0.23362074668085533, 0.23347584749941014, 0.23330813599715633, 0.2331175052556323, 0.23288586563801494, 0.23262299624966304, 0.23235110677881035, 0.23202217866086874, 0.23166955848870532, 0.23127790792029154, 0.2308551526907984, 0.2303657918061122, 0.2298841056756302, 0.22937247391200966, 0.2288219346778851, 0.22823746385557295, 0.22761902415460375, 0.22696658626769448, 0.22628574648270544, 0.2255645529355532, 0.22480964958661862, 0.22401819838308198, 0.22319615991060762, 0.22232618161977338, 0.22143817085594164, 0.2205155917305191, 0.21958672348935346, 0.2185920552294345, 0.21759308300184083, 0.2165300827287674, 0.2154362871317391, 0.2142553682143992, 0.21310664700977733, 0.2119587623852157, 0.21073753076803362, 0.2094849128458706, 0.20817158846133887, 0.2068604539006876, 0.20550423372668716, 0.20413029425951507, 0.2027241863241682, 0.2013131829993531, 0.19984114218371488, 0.198333167319587, 0.19680454242375547, 0.19524734377552846, 0.1936704519115148, 0.1920564230731419, 0.19041570345420844, 0.1887487230453741, 0.18705593392353734, 0.1853392133620135, 0.18359606917131488, 0.1817893608714905, 0.18000320608271045, 0.1781916527580906, 0.17635416923916827, 0.1744945912646478, 0.17262893790914507, 0.1707222069720425, 0.16879513291403528, 0.16684416484622366, 0.16487892666411186, 0.1629414441278007, 0.16093390444537153, 0.1589118157988005, 0.1568699081491069, 0.1548205198025629, 0.15277289505292976, 0.15069471981248928, 0.1486048186025796, 0.14644609081462712, 0.1443414554292962, 0.14223461522936717, 0.14010272802985593, 0.13796009327612407, 0.13585815913239058, 0.13369033429568328, 0.13152569898659452, 0.12934680678880106, 0.12716413002725438, 0.1250188671601462, 0.1228249585659057, 0.1206409462186763, 0.11844620059913172, 0.11625268578372341, 0.11403545514200733, 0.11184864335084653, 0.1097021298868735, 0.10751302562224055, 0.10532855146218145, 0.10317300906597714, 0.10099613002054607, 0.09884773736714504, 0.09668343285184555, 0.09452856928346952, 0.09237645770478797, 0.09024242539551357, 0.08816075089123096, 0.08604243246784586, 0.0839378873896386, 0.0818895376942312, 0.07980818466011358, 0.07773705124491989, 0.07569121245436392, 0.07366260147365294, 0.07170213350641379, 0.0697027557641456, 0.06776263454622966, 0.06580128006410224, 0.06386373427476398, 0.06197104331695482, 0.06007851395981709, 0.058214044552113244, 0.0563717605537361, 0.054555171218863094, 0.052772946783246254, 0.05100749135449736, 0.049336541997287764, 0.04761715366068024, 0.045929443606121126, 0.04427895069815897, 0.042653760070924, 0.04110556259889838, 0.03953897216694683, 0.03805227970686641, 0.03654987700175263, 0.035084928127943435, 0.033675443491593585, 0.03228248743460522, 0.03091639501021074, 0.029600978427103766, 0.028322978746523026, 0.027114887649330805, 0.025908294896604546, 0.024790842222675673, 0.02365812686469451, 0.022568424288009068, 0.021513134899387318, 0.02051009469221769, 0.019591469753075883, 0.01866783814987948, 0.01778921231525779, 0.016958307941575507, 0.01616914052865833, 0.01546720740483122, 0.014763029831995695, 0.014106561444583252, 0.013529942715059022, 0.012964429108946806, 0.0124145041763674, 0.011951612960521291, 0.011535776441370655, 0.011202306191076141, 0.010876797022646743, 0.010631903310127921, 0.010401929340184666, 0.010223437066889825, 0.010093441560447535, 0.010017799240634968, 0.0100099761618365, 0.010034150284266442, 0.010110286600644546, 0.010243934905872562, 0.01042312595197492, 0.010689609122037777, 0.010968732044479148, 0.01130202036461933, 0.01169625070978053, 0.012136303841450148, 0.012630335597433531, 0.013178181602330878, 0.013779716391596373, 0.014425018739448616, 0.015134922261884462, 0.015930053732485013, 0.016741796144189212, 0.017608394658728134, 0.018540879806547537, 0.019515195726299783, 0.020530440169746412, 0.021616255930963158, 0.02275585410063811, 0.023984287578733686, 0.025226872449805027, 0.02650542153415511, 0.027861412659367053, 0.029271313390091473, 0.03079258993226164, 0.03230273601971581, 0.03386131066046643, 0.035485673811813015, 0.037165366115576276, 0.03888315924472776, 0.04067453608893961, 0.04253189373102276, 0.04442820738337061, 0.046378270970890825, 0.048380431926327794, 0.05043744075200986, 0.05258953431281448, 0.05474693862954896, 0.056959265058094524, 0.05919649282653799, 0.06152082810793971, 0.06393064597108908, 0.0663541067691806, 0.06883087441025355, 0.07134785427654597, 0.07393148947720274, 0.07651167694008779, 0.07920457890375153, 0.08194516904330215, 0.08478697440389332, 0.08761666180402429, 0.09044825676537165, 0.09338585642356399, 0.09637095939314413, 0.09943447188305038, 0.10251068615743612, 0.10568240335980782, 0.10885075383191156, 0.11207018589518708, 0.11532172921068679, 0.11864352430443215, 0.12199229259883553, 0.12541236807591566, 0.1288784076857829, 0.13237892216849603, 0.1359375283181377, 0.139526623147536, 0.14317586326956647, 0.14686842368204553, 0.1506196207576583, 0.15439645180528444, 0.15825068806330395, 0.16211033280036488, 0.1660148845265406, 0.16988649006857454, 0.1738887548619025, 0.17794381655147595, 0.18202187746071843, 0.18613954084677706, 0.1902868110640839, 0.194484385418977, 0.19874989263589576, 0.20302045089624732, 0.20733070911643123, 0.21167456288437556, 0.21606346700665807, 0.22050012112762332, 0.2249631842617198, 0.22946383255608954, 0.23398609142430657, 0.23856227871545108, 0.24317220727778496, 0.24781847269743063, 0.2524990133925104, 0.25718956033156576, 0.2619404586200272, 0.26672446540617195, 0.27153835759993505, 0.2763835262841745, 0.2812765107915609, 0.28618114959457586, 0.29107629357482523, 0.2960480147310109, 0.30104764924836624, 0.3060567576451268, 0.3111139247267211, 0.3161888749872732, 0.32129936863984715, 0.32643524085723674, 0.33160333300321065, 0.33678848994098604, 0.34202120842750483, 0.34725335320898687, 0.35251109784671275, 0.35779103673595064, 0.3630985443924641, 0.3683805622475288, 0.37374101538825344, 0.3791212165751071, 0.38456451126908187, 0.389978114474704, 0.395380929525746, 0.40084096074737874, 0.40631936122149603, 0.4118031024780413, 0.4173186372720688, 0.4228702376629491, 0.42841574410501077, 0.4339780100581593, 0.43953118460018475, 0.44512842570667815, 0.45068871198198895, 0.45631913642851346, 0.46195950606533076, 0.46763926655500604, 0.47329560576873114, 0.47896461512092975, 0.48464283119299034, 0.4903314119174483, 0.49600174041701595, 0.5017129754537032, 0.5074453797884324, 0.5131687381593248, 0.5188992547618773, 0.5245830263728516, 0.5303329392019704, 0.5361386680847356, 0.5418865878181819, 0.5476395555013563, 0.5533378748527611, 0.5591062161776993, 0.5648670964472273, 0.5706351909076003, 0.576401885969209, 0.5821303679223169, 0.5878979003818283, 0.5936679215560074, 0.5994253402593129, 0.6051782193839094, 0.6109233870999446, 0.6166663967342239, 0.6224090773387624, 0.6281389993059944, 0.6338622758615201, 0.6395670644635377, 0.6452766132097664, 0.6509264322068474, 0.6566234128097179, 0.6623324330385447, 0.6679995100361455, 0.6736542156487171, 0.6793071983260237, 0.6849339553341223, 0.6904839397434306, 0.6960907411711752, 0.7016788663585807, 0.7072634812387789, 0.7128113933536829, 0.7182913101535012, 0.7238071325273013, 0.7293001147696745, 0.7347896444243411, 0.7402335763272219, 0.7456238514975005, 0.7510255195327445, 0.7564013826292918, 0.7617453726214874, 0.7670689224213163, 0.7723606174879921, 0.777628853713722, 0.7828680434016179, 0.7880621290843716, 0.7932433004761433, 0.7983827780714938, 0.8035008682772823, 0.8085853136852756, 0.8136341178815335, 0.8186496323689929, 0.8236899005630576, 0.8286258490317996, 0.8335281544182265, 0.838304323320956, 0.8431472312978171, 0.8479758800192959, 0.8527301690998133, 0.8574428588112865, 0.8620963744228952, 0.8667257985754545, 0.8713244861541425