0.05051585311602568, 0.04984464567208659, 0.049196306086241655, 0.04856078396988127, 0.047893514929224855, 0.047290563686679665, 0.04669546484513914, 0.04610272072792173, 0.04552038952233312, 0.0449553751720094, 0.044379714458404815, 0.04377808881369549, 0.04321360391679294, 0.04265042998655733, 0.04213636846958365, 0.04156954436664207, 0.040949309895576415, 0.04039718529453301, 0.03984516718907409, 0.03933545379145871, 0.038779232402455455, 0.03822294136011544, 0.03767382206114862, 0.037127837002609264, 0.03658847758724107, 0.03604856622629246, 0.03547036064472174, 0.03494308119155705, 0.0344172978798875, 0.033924277109090385, 0.033398997100746244, 0.03287999641199445, 0.032363782225735396, 0.03185252668806283, 0.03130531778759926, 0.030809591202588665, 0.030346880183375013, 0.02985401082550882, 0.029366817649242098, 0.028859802945734463, 0.028387679848739373, 0.027954467917169813, 0.027487776677742506, 0.02702838479333236, 0.026527566496564906, 0.026089014171048593, 0.025654265913490886, 0.02522558094583064, 0.024802346912915302, 0.024426838599979676, 0.024010278605183576, 0.023545226083786043, 0.02315346548332577, 0.022767190831795937, 0.022425319203836388, 0.022046402767109848, 0.021629266071440407, 0.021273939657298645, 0.020924814241736835, 0.020601961663093356, 0.020263916249603574, 0.0199419634633624, 0.019619873752031197, 0.019306879356702205, 0.019018436134047995, 0.01872187350479251, 0.018401253722101708, 0.0181292670601981, 0.017865423925967048, 0.01758774531875792, 0.017343753552314708, 0.017156979330000245, 0.016922331242260332, 0.016698821181689805, 0.016439334760645026, 0.01624384028318592, 0.01607549353268823, 0.01589464762038099, 0.01572388493814777, 0.015589872187536356, 0.01543638229319105, 0.015311162198199378, 0.015179587257730671, 0.015060825679805413, 0.014941036961270847, 0.014849197629821153, 0.014775879023616193, 0.01470658279228017, 0.014649462867483417, 0.014558355836044635, 0.014531501644925695, 0.014548546236608952, 0.014537179983027053, 0.014538256931556325, 0.014559567009600087, 0.014584840812613246, 0.014585652631216715, 0.014642064608638015, 0.014709630928967765, 0.014761349566772029, 0.014855750958061598, 0.014957358093038371, 0.015073947280240875, 0.015201924124744073, 0.015351983643020302, 0.015502689319880792, 0.01568875886297001, 0.015863134054467744, 0.016052311945980054, 0.016266556746669603, 0.016484049432892507, 0.016670750278730568, 0.016924789445547435, 0.017191490869059096, 0.017519921902734967, 0.017806704717034945, 0.01805756653299621, 0.018383268143777484, 0.01872196340767351, 0.019098738842633245, 0.019461104300739895, 0.019841171819230386, 0.020233473604428814, 0.020641029656721894, 0.021033869979289375, 0.021475608957831738, 0.021969297836042907, 0.02243330356631732, 0.02291331107908524, 0.023426261737543155, 0.023935633581304395, 0.02444868715824504, 0.024992436082275842, 0.025551470609119473, 0.026140216681790042, 0.02672765286893461, 0.027281270037370256, 0.027906336406143296, 0.028544001000019206, 0.029192776209141767, 0.029856486479602682, 0.030518724516983498, 0.031210544274464673, 0.031914860638428307, 0.032687461338956836, 0.03341029560482304, 0.03411244905712411, 0.034871763659815896, 0.0356444183245528, 0.03641928057143004, 0.03721996089015657, 0.03807859203934365, 0.03889881647126509, 0.03973424022584096, 0.04059046714470351, 0.041454409065908734, 0.04232767827595456, 0.043220822005318654, 0.04412743099656737, 0.045050646919587184, 0.04598292909710437, 0.046875043356862364, 0.04783946937369729, 0.048813240311818794, 0.04984784335780262, 0.05083429089100878, 0.05183762795998679, 0.052848398591271314, 0.053871313332645034, 0.05489403294570604, 0.05594166883187303, 0.05698604403431006, 0.058056031003341044, 0.059135221834947356, 0.06022863033389714, 0.06132521176524708, 0.062399242878269666, 0.06351780885238235, 0.06464327828878622, 0.06578851526519872, 0.06692623733235184, 0.06804933962581719, 0.06920493054944331, 0.0703665223103082, 0.0715896756188438, 0.07275611563143303, 0.07388016778005208, 0.07507037168930204, 0.076265497230339, 0.07749964289434566, 0.07869992534971411, 0.07988610813588296, 0.08110137362946324, 0.08232099779091812, 0.08357463878442882, 0.08479836047379694, 0.08603325271189889, 0.08726604183533748, 0.08850328612202997, 0.08973759432974765, 0.09098298977877906, 0.09220265481651915, 0.09345617314394504, 0.09470974982916966, 0.09598885758513882, 0.09723873382866705, 0.09844758970442154, 0.09970408974805073, 0.10095824017250088, 0.10225271109964196, 0.10349644706546404, 0.10474157029019446, 0.10598391561299708, 0.10722499526881231, 0.10842068388333802, 0.10966323723508471, 0.11090914955832441, 0.1121401195283111, 0.11340887499564568, 0.11462424099350312, 0.11583652312085332, 0.11702628432024904, 0.1182329403714012, 0.11940630631668031, 0.12060418433216094, 0.12179382013662039, 0.12297333461029197, 0.12414617085002025, 0.12529897103139256, 0.12645515290685896, 0.1276013244497407, 0.12873816779253175, 0.1298636639775446, 0.13097603395715587, 0.1320804802647729, 0.13317369719968616, 0.13428535081658155, 0.13535150654664388, 0.13638075182184703, 0.13742891202288032, 0.13846410282203875, 0.13949200966400935, 0.14049959137510137, 0.14150472624961175, 0.1424833982469795, 0.1434483811969457, 0.1443821081317759, 0.14532050120482135, 0.14626085514475828, 0.1471646903583497, 0.1480529502810285, 0.14895683410154315, 0.14980862349805904, 0.1506162443094056, 0.151440870662871, 0.15224750171951526, 0.15302467869327155, 0.15379571023900726, 0.15457534561465303, 0.15530334200517698, 0.1560128413462856, 0.15665548762320264, 0.15733268511378065, 0.15799166018283792, 0.15862331321630033, 0.15923266690755858, 0.15982133888791836, 0.16038558196845104, 0.1609615033817279, 0.16147620806322682, 0.16196999053109165, 0.16241760686610512, 0.16287138260773126, 0.1633298235646851, 0.16373275275136873, 0.16411338034430278, 0.16443368379790071, 0.16477331735577389, 0.16509000889405348, 0.1653782916068641, 0.16564117377401852, 0.16591622661542438, 0.16612336485761656, 0.1662702401585057, 0.166434671536839, 0.16657282357062672, 0.16672145153775325, 0.16680232870973813, 0.1668469377258496, 0.16688040640478172, 0.16688827682538904, 0.16684301023409853, 0.16680264756692248, 0.16671416159460914, 0.1666212959104144, 0.16649986228787703, 0.16635779650741703, 0.16617894048451778, 0.16601277611042992, 0.16577392901488228, 0.16551002180675684, 0.16520541674614797, 0.16489263804249177, 0.16458066897472912, 0.1642112875408616, 0.16381684243098402, 0.1633894134502603, 0.1629451837905482, 0.16248773159819033, 0.16198972524054564, 0.16146630600901252, 0.16091650847785607, 0.16034207457909863, 0.1596957646819685, 0.1590757728020042, 0.15842750055842186, 0.15775905505648094, 0.15705445476593946, 0.15632487703940734, 0.15556696890654603, 0.1547830289527449, 0.1539698915286691, 0.1531350825908876, 0.15227737136509362, 0.15139157698878025, 0.15048100447986967, 0.14958096595011164, 0.14861714747074095, 0.14760988450161874, 0.14660461302959432, 0.14557605804234236, 0.14453897458824586, 0.14346267385103253, 0.14237656055191225, 0.14125530640363332, 0.14011322742566376, 0.13900001106372353, 0.13781029633052955, 0.1366405215201725, 0.1354104477000789, 0.13416443063920405, 0.13287472581070417, 0.13159925201041558, 0.13033966989535284, 0.12902335315637142, 0.12769092139425747, 0.1263328999983673, 0.12496929915397402, 0.12362156380748952, 0.1222207929107544, 0.12080566754476754, 0.11944890975695484, 0.11799603362292489, 0.11655625208525344, 0.11508008925158562, 0.11359459971935457, 0.11209261310450765, 0.11058847071230789, 0.10913898046915162, 0.10760598240466253, 0.1060664737762284, 0.10451415059666141, 0.10296155383946544, 0.10143402816117783, 0.09986254251488949, 0.09828568932193817, 0.09671627175278705, 0.09512708437751956, 0.09359161482214903, 0.09198633450498304, 0.09038023372382842, 0.08878852889339177, 0.08717842887905118, 0.08561009626031016, 0.08399444350812005, 0.08238115131796293, 0.08080858088383569, 0.07919489101973402, 0.0775711562673032, 0.07596817969221467, 0.07436877620551932, 0.07286297759227915, 0.0712601439256103, 0.06967711463307576, 0.06809179001332372, 0.0665161730351606, 0.06498780522482739, 0.06342670244516758, 0.061896322686802514, 0.06035659310115756, 0.05882982167035762, 0.0573023388467645, 0.055803369543510145, 0.054360575810101654, 0.052881633556960385, 0.05141860943613245, 0.05001616624537257, 0.04858001750142663, 0.04716140297392368, 0.04576403039284487, 0.044386051361320684, 0.0430200480568279, 0.04168274519012166, 0.04044414726039151, 0.03913748954620395, 0.03785640704131595, 0.036577802349749465, 0.03535088066053829, 0.034139982037083495, 0.03296376158175161, 0.03181262539972425, 0.03073937443768428, 0.02963373419609589, 0.02854183153818588, 0.027498502269185644, 0.026484879500858774, 0.025543407231358586, 0.024585545828690655, 0.02366059719733783, 0.02277066728914274, 0.02195528935795168, 0.02112939832984187, 0.020340982804500383, 0.019547451667640412, 0.018839978585476026, 0.01819652594959904, 0.01755778742366315, 0.016957851108284683, 0.016375825523708896, 0.01585769376752605, 0.015403515687810036, 0.014961285728224935, 0.014561061817754326, 0.014225602359185447, 0.013908163065803288, 0.013622763665783744, 0.013397067637043231, 0.013216318902533037, 0.01309303345128261, 0.013002301952525037, 0.012972524073290335, 0.012975066474052782, 0.013026588736444154, 0.01313260065023777, 0.013282590609864635, 0.01347449229148948, 0.013726882685497823, 0.01403005562117849, 0.014367395758771323, 0.014775765919877675, 0.015219179881809188, 0.015732816775444716, 0.016298065677988346, 0.01692077304112859, 0.01759070590569078, 0.018298327083584108, 0.019078759885596503, 0.019913332216533325, 0.020843744582058045, 0.021783313402518656, 0.02274438048955223, 0.02380535149973401, 0.024922951246597696, 0.02614216630890468, 0.027368911100819772, 0.028637411806013858, 0.02998774116712409, 0.03139772926002501, 0.03287275233570855, 0.03440213579331016, 0.03596309831995885, 0.03761765017116926, 0.039331578157840434, 0.0411275193938493, 0.04295855568338715, 0.04483848556174067, 0.04679470886066308, 0.048812167769720256, 0.05088593771090626, 0.05302711472059365, 0.05523406950847587, 0.05749789192043127, 0.059823795895371325, 0.06221444515890706, 0.06466446237861063, 0.06719062468634283, 0.06976385446368379, 0.07240033762292017, 0.07510251819284598, 0.07786481659821651, 0.08066704839759982, 0.08355816311616053, 0.08651069795444787, 0.08953494061053749, 0.09260906390876357, 0.09573234393084136, 0.09893191860363854, 0.10219246082971566, 0.10551219085100581, 0.10889464790541702, 0.11234538088532708, 0.11584788422983831, 0.11941109485138945, 0.12298601106232032, 0.12667602182820745, 0.130420624971908, 0.1342253616933858, 0.1380872171546124, 0.1420018937116125, 0.14597840338168044, 0.1500654329659342, 0.15414825817568437, 0.15829039083971982, 0.16249542246291904, 0.16675358507925386, 0.1710675577247959, 0.17544028169320353, 0.17986904665273407, 0.18434548789842262, 0.18888530784138685, 0.19348130600105568, 0.1981274241478731, 0.20282608454371392, 0.20754243550502446, 0.21234857068108104, 0.21720936331284701, 0.2221116900950138, 0.22706219359689445, 0.23207488670731888, 0.2371182948602363, 0.24217908918110478, 0.24732018599639052, 0.25250544018543103, 0.25772406932155423, 0.2629973343131077, 0.26835696903130923, 0.27370785024537103, 0.2791019683445107, 0.28448358945265056, 0.289968111104465, 0.2954821208856253, 0.30104144122164633, 0.3066363722167668, 0.3122637638745079, 0.31792843530173737, 0.3236189704996703, 0.3293510284480736, 0.33511475532617035, 0.34096672257632465, 0.34678431131760096, 0.3526259179644486, 0.35850841914703563, 0.36442041603278374, 0.3703008472975673, 0.37627583008677645, 0.382273393067522, 0.38829284890502247, 0.39433345675057435, 0.4003867298239866, 0.40646820128892613, 0.4125730255044977, 0.4186894411033431, 0.42482262532267334, 0.43099127906993306, 0.4371525766116124, 0.4432928357518928, 0.4494872324094404, 0.4556920826937719, 0.46194238724324516, 0.46816080908190594, 0.47434265395597486, 0.48058481872941067, 0.48683139141420523, 0.49309257120459243, 0.49934375921632734, 0.5056236239804852, 0.5118746776011621, 0.5181271448486454, 0.524367697759674, 0.5306204561063146, 0.5368382897199432, 0.5430872676671378, 0.5493287498505619, 0.5556045324476157, 0.5618226889364277, 0.5679677654132055, 0.5741765825691638, 0.5803709048222826, 0.5865918083135742, 0.5927493047393515, 0.5988415734859907, 0.6049746192694255, 0.6110874880526168, 0.6171707582305339, 0.6232417048389395, 0.6292807140845217, 0.6353050603531186, 0.641303681452215, 0.6472671128174227, 0.6532125914350284, 0.6591187597964563, 0.6650065009177963, 0.670862705881743, 0.6767044165864541, 0.6824924904833847, 0.6882574478089999, 0.6939763150861447, 0.6996600755440813, 0.7052980851096085, 0.7109091229155076, 0.7164586140806855, 0.7219927159907513, 0.7274840101413893, 0.7328845186879367, 0.7382933076504383, 0.7436820042365115, 0.7489899916158969, 0.7542499868626739, 0.7594388214098305, 0.7646028330808974, 0.7697190468368579, 0.7747775855164866, 0.7797399334153525, 0.7846961529359335, 0.7895947945564541, 0.7944395862603943, 0.7992208368407674, 0.8039190152877321, 0.8085843299110829, 0.8131877234306042, 0.8177423111782309, 0.8222183861103205, 0.8265947108618007, 0.8309487021009427, 0.8352360782187448, 0.8394358097349571, 0.8435909991154157, 0.8476853485527346, 0.8517002319981343, 0.8556452803302617, 0.8594814207455045, 0.8632898817014659, 0.8670202509448615, 0.8706812941252076, 0.8742675808038286, 0.8778061003116261, 0.8812382430779595, 0.8845480354497496, 0.8878366307688654, 0.8910467132337414, 0.8941668811318171, 0.8972204575827715, 0.90020335520239, 0.9030952888152373, 0.9059070743034419, 0.9086400147872727, 0.9112900578330627, 0.9138211766589522, 0.9163129559618162, 0.9187204663588558, 0.9210435877254175, 0.9232821716162182, 0.9254711116402533, 0.9275356572037624, 0.9295170738040865, 0.9313703990885078, 0.9331897406170372, 0.9349220787128042, 0.9365673727196846, 0.9381255682609875, 0.9395948909580312, 0.9409789083443242, 0.9422755257063269, 0.9434846855690373, 0.9446063322985575, 0.9456387042977186, 0.9465853945180609, 0.9474084251687827, 0.9481841665744203, 0.948870141353591, 0.9494572427617347, 0.9499657540363756, 0.9503831009627616, 0.9507132444896768, 0.9509544670783638, 0.9511216125476679, 0.9511840579125713, 0.9511943463219308, 0.9510780796917611, 0.95087690191799, 0.9505796061912625, 0.9502097967404033, 0.9497543372139189, 0.9492133750546083, 0.9485870912584083, 0.9478346482441364, 0.9470435839150986, 0.9461476688011348, 0.945185728954324, 0.944137149144898, 0.9430540022373213, 0.9418279075369577, 0.9404775010598907, 0.9390940007647719, 0.937627165917776, 0.9360965204156478, 0.9344627573463715, 0.9327325756255104, 0.9309410742067601, 0.9290696021377938, 0.9271573599562737, 0.9251232292926286, 0.9230160108691607, 0.9208306698846314, 0.9185707077226063, 0.9162434566375257, 0.9138349021008318, 0.9113520001479063, 0.9087989475558464, 0.9061743247606292, 0.9034728028739774, 0.9007078063791726, 0.8978584453813349, 0.8949564449581453, 0.8919854451134597, 0.8889541160152795, 0.8858470707738034, 0.8826701237502456, 0.8794333023847835, 0.8761325002923537, 0.8727789805253005, 0.8693519308794732, 0.8658439837156031, 0.862299734968337, 0.8586958820747391, 0.854998514971392, 0.8512833483720555, 0.8475382899505514, 0.8437047582798795, 0.8398175261108817, 0.8358991148337512, 0.8319052016801208, 0.8278057697895678, 0.8237218219146072, 0.8195876078132331, 0.8154456548426227, 0.8112101115292654, 0.8068881719416928, 0.8025718189416656, 0.7982115541541304, 0.7938490028553653, 0.7894000926632707, 0.7848761047574141, 0.7803580902479517, 0.7758026031524816, 0.7712375318190975, 0.7666078566338386, 0.7619308756739203, 0.7572404357495143, 0.7525194577481014, 0.7477845974628804, 0.7430043779605748, 0.7381631938568669, 0.7333367357738431, 0.7284846788348788, 0.7236443774049851, 0.7187408607053924, 0.7137615489854955, 0.7088275493604641, 0.7038732090870002, 0.6989471326215482, 0.6939508215892932, 0.6888900731965956, 0.6838750765454683, 0.6788462381337769, 0.6738444127356246, 0.6687874195599355, 0.6636624985351186, 0.6585998596847727, 0.6535287947331819, 0.6484936595035524, 0.6434050642223855, 0.6382757270975856, 0.6331904055453016, 0.6281036800657583, 0.6230469038620201, 0.6179578069135716, 0.6128748423782288, 0.607795444441593, 0.602722706639768, 0.5976431459045191, 0.5925887341888683, 0.5875672797709734, 0.5825290321327689, 0.5775034628970824, 0.5724812541769728, 0.5674851824053714, 0.5624895319932963, 0.557526265990131, 0.5525792308673915, 0.547635036319373, 0.5427257242120471, 0.5378429020626542, 0.5329714015961131, 0.5281214890217151, 0.5232574581771852, 0.5184585537624595, 0.5137250708121316, 0.5089673748848507, 0.5042372715477088, 0.4994851418745437, 0.49481911535456935, 0.4901948843832526, 0.48558275317519983, 0.4810010752894053, 0.4764260367473234, 0.4719113272261837, 0.46743366359560423, 0.4629832151957052, 0.4585670747312399, 0.4541947254096613, 0.4498488685003432, 0.4455490164223097, 0.4412777227174086, 0.43704581319947244, 0.4328239720484637, 0.42867645096856655, 0.4245684365788361, 0.4205007374111906, 0.41650404901997296, 0.4125154397727875, 0.408570986290246, 0.40466595757960006, 0.40081165976188843, 0.3969545192898094, 0.39319679867802715, 0.38948226869249564, 0.38582795652125745, 0.3822000242624827, 0.37859439877498047, 0.3750624736190537, 0.37157636918660464, 0.3681255659147538, 0.3647342491372897, 0.36141798625163263, 0.35811729769627415, 0.3548660371025274, 0.35168407513287014, 0.3485297646631639, 0.3453692279008142, 0.34232429543408727, 0.33932719155901453, 0.33639888753963504, 0.3334961236512202, 0.33062297879153485, 0.3278232150656676, 0.32507264842810557, 0.322371506642846, 0.31971997223725024, 0.317167789090715, 0.3146095796466352, 0.3121040674569089, 0.30958503103339546, 0.30719215087940815, 0.3048480697376834, 0.30255117200093967, 0.300302615075629, 0.2980964986197135, 0.295945590809451, 0.2938333975724635, 0.29177992272766773, 0.2897739954636986, 0.2878233007967712, 0.2859114109539145, 0.28409350576345765, 0.2822711728977559, 0.28049878757586594, 0.2787252531607056, 0.27705724850025115, 0.27542936994368816, 0.2738523467590457, 0.2723198896847172, 0.2708463217944226, 0.269400472411052, 0.26798213970533447, 0.2666272551464805, 0.26531513453809036, 0.26402491710800574, 0.26279988188190434, 0.26161535895020926, 0.2604710883205334, 0.2593667637156889, 0.2583542056637908, 0.25732209228258823, 0.2562932083738198, 0.25534851614347487, 0.25444165173706307, 0.25359603812897386, 0.25276021002646115, 0.2519191599536754, 0.2511630432519417, 0.25044052427769387, 0.2497879602460456, 0.2491266961202389, 0.24844328551661762, 0.24785693927059177, 0.24730009871451378, 0.246777547070412, 0.24627797421452166, 0.24580101742521807, 0.24535887990345415, 0.24494392270519527, 0.2445855384649227, 0.24421950353368965, 0.24385153604563964, 0.24354260010934733, 0.24325744775232813, 0.24301256194855086, 0.2427709260091835, 0.24257091712709697, 0.24237170542650524, 0.24219472137338774, 0.24204241671234536, 0.24190656851316983, 0.24173726828170874, 0.24164632953927465, 0.24157012768367844, 0.2415201599454377, 0.24147045354766572, 0.2414106761153321, 0.24139107819952368, 0.24138265762299924, 0.24139517369349622, 0.2414062656972921, 0.24143862040643577, 0.24146791956213717, 0.24150662163016368, 0.24157360773562325, 0.24162626337382712, 0.24168792161029837, 0.24175582615385918, 0.24183007483432153, 0.24184819319335749, 0.24194024472573614, 0.2420872915152391, 0.24217260337499852, 0.24226052511319313, 0.2423356579826865, 0.24242808013377026, 0.24253859626719146, 0.24262651670965865, 0.24271341548994046, 0.24275656416156094, 0.24284427636435701, 0.24291253691832249, 0.24299002727034463, 0.24306012830477586, 0.24317038768935087, 0.24321858986543934, 0.2432524201040809, 0.2432892597560545, 0.2433182207441108, 0.2432830357754691, 0.24330125499144362, 0.24335353679655713, 0.24333968185384533, 0.24331510046336352, 0.24325949636377658, 0.24321408971796243, 0.2431952255790846, 0.2431170162744237, 0.24302658037127178, 0.24285647081809578, 0.24274784046836215, 0.2426639054089368, 0.24251364895545335, 0.24234752016828354, 0.24212739820203213, 0.24193282964191443, 0.24171372985441597, 0.24148087769739754, 0.24122805249097307, 0.2409842045228195, 0.24068735552219728, 0.24034436347588567, 0.24001301694803012, 0.2396605655547084, 0.23933732083259482, 0.23893583050452732, 0.2385087628262315, 0.23807009766356446, 0.23761122447367938, 0.23707613459291843, 0.23658265463573916, 0.236121998632712, 0.2355724518924935, 0.23500188259605512, 0.23438340414421266, 0.23377305857692277, 0.2331332099830573, 0.23247653984093353, 0.23179592663545742, 0.23106829258711323, 0.23034275527698253, 0.2296065653303978, 0.22882901471498915, 0.22802748672136006, 0.22718750070595883, 0.22634003347226744, 0.2255047310179554, 0.22460357930656155, 0.22368024380093532, 0.22269696894690005, 0.22173367978528882, 0.22078173317812114, 0.2197650163102491, 0.21872626455386243, 0.21762011202543274, 0.21654293564362573, 0.21545911236415047, 0.21433086179722521, 0.2131798126537623, 0.2119856680267911, 0.21079230652239606, 0.20958253387783302, 0.2083422078918075, 0.20707981121824676, 0.20583928526133127, 0.20452820308112296, 0.20317793866289, 0.20183210762390832, 0.20047500325546908, 0.19908865943243997, 0.19768342739673614, 0.19623041502450034, 0.19479166503437, 0.1933193406922745, 0.19184302800285868, 0.19034702455815283, 0.18887980531658838, 0.18734009111426525, 0.18575855140322892, 0.1841917084603839, 0.1826083909639538, 0.1810304062425967, 0.17941271942759845, 0.1777511152992816, 0.17610951066718114, 0.17445279897468663, 0.17277982473260511, 0.1710947716267098, 0.16943635210382824, 0.16771963894804864, 0.16599270634214208, 0.16419504399681362, 0.16245601862481981, 0.16075883650953454, 0.15898790270113225, 0.15720870573071358, 0.1554343649324157, 0.15363791941951385, 0.15182461973172065, 0.15001655133985284, 0.14820187335791885, 0.14637158611331294, 0.14454611875565054, 0.14268656302702426, 0.14085346079381664, 0.1390139673376205, 0.13717568321070805, 0.13532479128876265, 0.1334794969734039, 0.13162042503621302, 0.1297593159825702, 0.12786932947539573, 0.12600918526095378, 0.12417526448284862, 0.12230829292401164, 0.12044235525029533, 0.11858047279931358, 0.11671764873328094, 0.11486079977909745, 0.1130030948395401, 0.11114902690560478, 0.10926138919908482, 0.10742062949228678, 0.10562202295019334, 0.10378265502380467, 0.10194975508400343, 0.10010401177885137, 0.09828762214763954, 0.0965170436832374, 0.09470916468482271, 0.0929110384104147, 0.09111345916305169, 0.08933666075617944, 0.08756806108860904, 0.08581164744153123, 0.08406575613279187, 0.08232563585704124, 0.08060258234673669, 0.07887723061744688, 0.07717910797269137, 0.07549245770133775, 0.07378188989645884, 0.07212429611862452, 0.07048538807681706, 0.06884956116982828, 0.06722662759688927, 0.0656257391001309, 0.06402927200519161, 0.06243503942578223, 0.06087074776344835, 0.05932163304354312, 0.05777279095716776, 0.056257414791147355, 0.054761150394904, 0.05327724958932945, 0.05181024364095704, 0.050381934573356456, 0.04894724796825357, 0.047547224399979535, 0.04614929358707865, 0.04477182190480367, 0.04341313409878555, 0.042076914749952614, 0.04074409422723576, 0.039451124641151344, 0.03817786424127339, 0.03691855342793762, 0.03568613517570937, 0.03448826799836952, 0.03329426977328979, 0.03212154903616921, 0.030941963875067008, 0.02981560636005757, 0.0287220052669874, 0.027634180088663623, 0.026567567430304254, 0.025518024122422153, 0.024494760933911352, 0.02347999573486821, 0.0225011309808642, 0.021543101890105422, 0.02065912481919539, 0.01973660995380605, 0.018834977579486028, 0.01796118797732732, 0.017110911545787245, 0.01627365520964953, 0.015471031499196333, 0.014641961967347133, 0.013890009533015741, 0.013157430870874018, 0.012453074851675879, 0.011759002769416979, 0.011126581312974712, 0.010468609180044641, 0.009833693315986778, 0.009230945222920037, 0.008640079632949896, 0.008020640066963739, 0.007481410384676945, 0.006961395376102403, 0.006494919386902433, 0.006009316125919428, 0.005503176748697009, 0.005065348591857574, 0.004646015320737754, 0.004242691797652154, 0.003860874865802348, 0.0035001008345107915, 0.0031549058121954645, 0.002828282520905197, 0.002523559390352683, 0.0022333441207909987, 0.0019700932921893617, 0.0017154308971531087, 0.0014792644163637008, 0.0013083420480811232, 0.001102346466714138, 0.0009063409465014115, 0.000741467542481778, 0.0005949517815144255, 0.00042351498889216005, 0.0003175942742247681, 0.0002612147912410956, 0.0001797056259127971, 0.00011439857909516487, 3.919716073106056e-05, 8.233062811948892e-06, 6.144986088510254e-06, 0.0, 7.787806099624415e-06, 8.987612624368829e-05, 0.00011679221513325477, 0.00011295397145356786, 0.0001775460269277882, 0.00025416625405186776, 0.0003467466686392855, 0.00044585257061722, 0.0005613323422590351, 0.0006819016001819351, 0.0008132609802424187, 0.0009652689931509816, 0.0011157071516698061, 0.001328493694849309, 0.0014922315388979524, 0.00166816791130059, 0.0018434793262754351, 0.0020428413724916444, 0.0022633424263529545, 0.002478945640017934, 0.0027032693826217636, 0.002963931444451715, 0.0032003538642120222, 0.0034684751856243223, 0.003718471455443789, 0.003976985128253794, 0.004319333718813615, 0.004582933454272485, 0.004822920429480323, 0.005110817069516379, 0.005405073535702034, 0.005722942809810427, 0.006025595178974568, 0.006404675039488595, 0.006708570075231868, 0.0070206210173068655, 0.007364515955502009, 0.007686525579927655, 0.008045033672364919, 0.008375410661921049, 0.008712189448000533, 0.009097983459183293, 0.009439161777656978, 0.009770280339715857, 0.010124864395683164, 0.010529837325504257, 0.010884524198435849, 0.011243985127237937, 0.011635577332530263, 0.011998537193726242, 0.012420327857480443, 0.01278377743594832, 0.013152941444079119, 0.013536213725083453, 0.013912717627525835, 0.014343291384178723, 0.014719929560963962, 0.015101704361088781, 0.015485144081064432, 0.01587493554745813, 0.01632982996413188, 0.01671655255132753, 0.01710850997703284, 0.017519400175480215, 0.01791760215878497, 0.018302621020724785, 0.018710236384350834, 0.019119738904985712, 0.019575353992557776, 0.019982337630560197, 0.020406848937051046, 0.020819371388067578, 0.02123575944386353, 0.021688155980034964, 0.022107184105167443, 0.022541344430186534, 0.022968426129386633, 0.02340027004500936, 0.023845987724033724, 0.024285361640961362, 0.02479352023071843, 0.02523391980123235, 0.02568233153752829, 0.026146771449602153, 0.026608634671324804, 0.027077721046648462, 0.027553741954166072, 0.028036501053473648, 0.028520752864575873, 0.02901736807467456, 0.029567340485113534, 0.030070770470298287, 0.03058345245855906, 0.03112574429105762, 0.03165391486325522, 0.03215117504759737, 0.032704707863229245, 0.03326593728713604, 0.03385148260839798, 0.034427182204317695, 0.035028912050005453, 0.03562241517283254, 0.036227234130144406, 0.03688378769995031, 0.037506864542450044, 0.03808614116351954, 0.03874528885911257, 0.03941560944379784, 0.04013448063357959, 0.04082430186046454, 0.04155737991962087, 0.04227399739434138, 0.04300785870919654, 0.04372146582918268, 0.04449502375886037, 0.045303083196066345, 0.04610621675698109, 0.046927257829761614, 0.04776578443707068, 0.048624067805298245, 0.04950584253016786, 0.05040250747214485, 0.05131962383318023, 0.05223116036744053, 0.053193988331724715, 0.054235418150718216, 0.05523251586017313, 0.05625476790613766, 0.05728187947264955, 0.05835777132368267, 0.05945506335084778, 0.06058154342655356, 0.06173369028200337, 0.06289410488169955, 0.06410154297511864, 0.06532592692968463, 0.06658797668286477, 0.06787726633501324, 0.06919712103075326, 0.0705428207149771, 0.07196344069527766, 0.0733632684388356, 0.07479656338392104, 0.07619775057396465, 0.07770717112966627, 0.07925840469717985, 0.08082869955716013, 0.08243204897678744, 0.08407429962832015, 0.0857452286667665, 0.0874438712962138, 0.08918719487301621, 0.0909666808724512, 0.09281118230660737, 0.09466129371019665, 0.09650650559984197, 0.09844172645610864, 0.10041471659713262, 0.10247836200070766, 0.10452240728697931, 0.10655873108742538, 0.10869482317202109, 0.11087122742487744, 0.11310910809659615, 0.11536542322977182, 0.1176615970419662, 0.12000528150908889, 0.12239280121913546, 0.12485191334980912, 0.12732480103607494, 0.12985445757618672, 0.13241919537138255, 0.13503130227275245, 0.13764296735937784, 0.1403561348759452, 0.14310231512873056, 0.14590748720739294, 0.1487579738943837, 0.15170392192464668, 0.15464035093662654, 0.1575724964923298, 0.16061494802700843, 0.16370401938650972, 0.16683419587411372, 0.17001863247096727, 0.17328740522379776, 0.17656270162573567, 0.17988835250910332, 0.1832848879825731, 0.1867086633839414, 0.19017112056837066, 0.19369936593291964, 0.1972780705805646, 0.20086357330275292, 0.2045485735331825, 0.20826860800281372, 0.21205124342099557, 0.21588154479040153, 0.2198068393694075, 0.22372733484009652, 0.2277065289480823, 0.23172780070720195, 0.23579999778808894, 0.23992365644459643, 0.2440966428338909, 0.24826663020602094, 0.2525460505604371, 0.25687187674879913, 0.2612544717469939, 0.2656720547239266, 0.2701778014624931, 0.2746842744417251, 0.27923983711832806, 0.2838234167309631, 0.28847811981551824, 0.29313723228644856, 0.2978894979331819, 0.30268497232547703, 0.3075800300191429, 0.3124545112095033, 0.31732366219984637, 0.3222959019068035, 0.3273098577338784, 0.3323592685262088, 0.3374565405432198, 0.3426284333612655, 0.34780183766037037, 0.3530167959642837, 0.35823323699702286, 0.3635340788640739, 0.36890540792441934, 0.37427586175763133, 0.379684398313569, 0.385113969999956, 0.3905983233244554, 0.39611143968388957, 0.4016653540752839, 0.4072522654112173, 0.4128441075926427, 0.4184983469332824, 0.4241861385398717, 0.4298978247854391, 0.4356378447622035, 0.44141404956073754, 0.4472075107313667, 0.4530617705212727, 0.45890320017444824, 0.46476108226468105, 0.4706560330393647, 0.476574721875588, 0.48250920572295114, 0.4884729306301296, 0.49443104363691387, 0.5004370495147394, 0.5064595436400389, 0.5124942370846377, 0.5185475002854846, 0.5246211923686086, 0.5306998238868521, 0.5367905130745647, 0.5428425991217248, 0.5489604826937309, 0.5550998015585169, 0.5612271042368783, 0.5673598123004542, 0.5734952483267574, 0.5796360431586582, 0.5857457777819618, 0.5918943164235082, 0.5980411234923759, 0.6042358050771086, 0.6103701526014259, 0.6164224804061385, 0.6225623192077746, 0.6286931907403924, 0.6348340082768726, 0.6409421134057374, 0.64701592418508, 0.6531052472011541, 0.6591806167547825, 0.6652769681328597, 0.6713168861251109, 0.6772819035782991, 0.68329791657172, 0.689292725404265, 0.6953175785386582, 0.7012605643598058, 0.707147284484981, 0.7130508112490581, 0.7189282021723893, 0.7247782760277338, 0.7305998301202196, 0.736359144738843, 0.7421240905489845, 0.7478549872545595, 0.7535311672639317, 0.7591934210230503, 0.7648216912377432, 0.7704059409652686, 0.7759502379794937, 0.7814270075300638, 0.7868915341982418, 0.7923481240177515, 0.7977176532106218, 0.8030426434152866, 0.8083106773192843, 0.8135441029646847, 0.8186908557270932, 0.8238297650035827, 0.8289151404273661, 0.8339332662591694, 0.8389104993788863, 0.8437999294491074, 0.8486661531060729, 0.8534718556594476, 0.8581992469588768, 0.8628839603750765, 0.8675383386307095, 0.8720907712960992, 0.8765799672934091, 0.8809578448143138, 0.8853233810398597, 0.8896036570776077, 0.8938325636854326, 0.897990181710285, 0.9020690627384712, 0.9060831050758974, 0.910049187671771, 0.9139120904879331, 0.9177014616362519, 0.9214180881303916, 0.9250574161145572, 0.9285897726749307, 0.9320797180303592, 0.935489949285894, 0.9388241134358415, 0.9420724763661963, 0.9451915530585193, 0.9482824979813997, 0.9512879916961313, 0.9542274131052855, 0.9570586045624812, 0.9598027556007538, 0.9624629588784517, 0.9650366474634704, 0.9675241498417894, 0.9699231257323325, 0.9722280861634118, 0.9744512513379544, 0.9765850455392896, 0.9785691701494376, 0.9805305061076053, 0.9824012714966507, 0.9841742810379042, 0.9858536267051741, 0.9874196219033882, 0.9889140529541651, 0.9903683326455275, 0.9916661541457175, 0.9928722995312036, 0.9939239293680828, 0.9949534316537377, 0.9958977628319533, 0.996733488194031, 0.9974739373828543, 0.9981217493045773, 0.9986715383692331, 0.9991495008952205, 0.9995065892137109, 0.999770174377394, 0.9999213321536082, 1.0, 0.9999582362986522, 0.9998507521866185, 0.9996473773951957, 0.9993929797531229, 0.9989933825564588, 0.998451961817394, 0.9978742288043978, 0.9972016056260784, 0.9964380399019221, 0.9955767796757125, 0.9946121290344424, 0.9935664069969545, 0.9924279810064677, 0.9912359328917617, 0.9899090238780941, 0.9884796841770049, 0.986977311472924, 0.9853860714054896, 0.9837235715720949, 0.9819539731169986, 0.9800535940739576, 0.9781174562279012, 0.9760934692534767, 0.9740090471300678, 0.9718087125925893, 0.9695076124876162, 0.9671428070982446, 0.9646947880528788, 0.9621892432674619, 0.9595743315974776, 0.9568349663243529, 0.9540682584536543, 0.9512213699335231, 0.9483253994404633, 0.9453178517162647, 0.9422489568215588, 0.9390905207472796, 0.9358596565028308, 0.9325118846623045, 0.9291444781682667, 0.9256910753435044, 0.9221820972305381, 0.9186026731603327, 0.914980726702633, 0.9112612716274424, 0.9074795986011768, 0.9036313969834399, 0.8997208607902145, 0.8957508545193777, 0.8917189121937821, 0.8876017322817955, 0.8834568817644424, 0.8792542162617621, 0.8749857659128195, 0.870672962600991, 0.8663394542754604, 0.8619158034470068, 0.8574429266658637, 0.8528955048420415, 0.8483311306754944, 0.8437042954119494, 0.8390492046609156, 0.834349116982251, 0.8296560715306045, 0.8248643309580798, 0.820026555362005, 0.8151620515089341, 0.8102618632121021, 0.8052836332387789, 0.8003213915866724, 0.7953419647639639, 0.7903106507632012, 0.7852493195806118, 0.7801278081666401, 0.7750148797885777, 0.7698985306417265, 0.7647295597460702, 0.7595319824319133, 0.7543199874911133, 0.7490879480738499, 0.7438767001671169, 0.7386040724002026, 0.7333095089523819, 0.7280123437466338, 0.7227036411936753, 0.7173735567387521, 0.7120470205864255, 0.7066642931199527, 0.7013286168466272, 0.6959847538680195, 0.6906900743903246, 0.6853280979888076, 0.6799679545909895, 0.6746071971554265, 0.6692490533908847, 0.6638793327336829, 0.6585319853563693, 0.6531977286919229, 0.6478615512656146, 0.6425339011843266, 0.6371998024990095, 0.6318950787593224, 0.6265521761836105, 0.6212779638261564, 0.6160151497812065, 0.610823633094888, 0.6055814208823824, 0.6003152745703153, 0.5951190194196477, 0.589942153571065, 0.584802353902754, 0.579666448729963, 0.5745720973332143, 0.5694840955154642, 0.5644238164705561, 0.5593229733631254, 0.554329855484783, 0.5493746377050712, 0.5444352053597853, 0.5395261560647627, 0.5346804223968852, 0.5298319499137771, 0.525005657359654, 0.5202315216355602, 0.5154942264183875, 0.5107579578730267, 0.5061018484535023, 0.5015286421332215, 0.49694312745712593, 0.49240001844450876, 0.4878769130268686, 0.4834235933042853, 0.4789732262101557, 0.47461212982041046, 0.4702935787803684, 0.4660434727710726, 0.46181009778210097, 0.45759466319815567, 0.4534596967804898, 0.4493714735201585, 0.4453419738237554, 0.4413483579527674, 0.437440439157837, 0.4335424401940899, 0.4296974041402695, 0.42589873020917535, 0.4221612097860837, 0.41842739060258277, 0.4148030460708969, 0.41122980086650324, 0.407730561527043, 0.40425865277882883, 0.4008109869614483, 0.3974515317095895, 0.3941451768811035, 0.39093432884672025, 0.3877303191771999, 0.3845309248820329, 0.3814470828328443, 0.3784170968401943, 0.37544992874503674, 0.3725277421311302, 0.36968489077292016, 0.36687062659311376, 0.3641134001214173, 0.3613626543963294, 0.3587255761323275, 0.3561928302753212, 0.3536573885868705, 0.35117912674038243, 0.34871758920919815, 0.3463579856054821, 0.3440602084260581, 0.3418079357592364, 0.3396102672679346, 0.33746794869548585, 0.3353790174223904, 0.33336739942923604, 0.3313837781549749, 0.32945521758479956, 0.3275256720764507, 0.325712892021361, 0.32397291228515795, 0.3222584284269261, 0.32059565356773123, 0.3190030849917915, 0.3174403653695298, 0.3159233813240211, 0.31446430815079346, 0.3130555047520619, 0.3116545441073368, 0.31035000324516104, 0.30911315845164256, 0.30789832061601224, 0.3067304948755275, 0.305580957245502, 0.3045091948485183, 0.30348299279097474, 0.30249836801499325, 0.3015569482852223, 0.30069419965001226, 0.29983324777559445, 0.2990023567981094, 0.2982297730627995, 0.2974984690156658, 0.2967538337003718, 0.2961096973398624, 0.2955289604185908, 0.29495310066896896, 0.29441409229359516, 0.2939343606966329, 0.29346411399500616, 0.2930136982137954, 0.29261675018833416, 0.29225314282477066, 0.29191696895782576, 0.2916183525720835, 0.2913581243347191, 0.291119150331363, 0.29090975269683306, 0.29073249824069386, 0.29057925537369067, 0.29044722316238225, 0.2903482424621978, 0.29027434619215436, 0.29020673690687915, 0.29018276356621764, 0.2901546855462988, 0.29017635726422436, 0.2902167141028989, 0.2902914700954205, 0.29036549522416455, 0.29046252339767575, 0.290570866503327, 0.29069580372567577, 0.29083649434425357, 0.29099209410468097, 0.2911788611011131, 0.2913595756660202, 0.291553617270747, 0.29173691021972453, 0.2919575909872608, 0.29219253636415876, 0.29243008964166883, 0.2926755672421665, 0.2928931065349068, 0.2931564733628675, 0.29342340738647027, 0.2936933989666123, 0.2939659072245174, 0.2942514821873271, 0.2945258907810749, 0.29477344690712354, 0.2950534471148118, 0.2953317965493358, 0.2956422104659755, 0.29591142332911735, 0.29614256960112584, 0.2964130092857914, 0.2966784318969018, 0.2969297764594938, 0.29718470111671225, 0.29744708760764327, 0.29768553234640693, 0.29791672289702004, 0.2981554163183386, 0.2983682437831877, 0.2985334395905205, 0.2987339117936481, 0.29892241255402296, 0.29912763278096854, 0.2992873355390157, 0.2994397646475205, 0.2995751638460238, 0.2996979477214626, 0.2997826587581191, 0.29988140537358604, 0.2999531332519349, 0.3000211002575788, 0.30007177294157217, 0.3001099863673957, 0.3001245232696131, 0.30015962498089266, 0.3001330969066017, 0.300063583704133, 0.30000680282125997, 0.299930787316016, 0.2998163623048413, 0.29970319018044217, 0.2995609904426166, 0.2994059619209778, 0.29922882894589836, 0.29908848836322527, 0.29885933441355517, 0.29860503632588303, 0.29833771843621143, 0.2980497529274734, 0.29769793166482283, 0.2973727820597419, 0.29703107178303106, 0.2966564545291836, 0.29625804730555594, 0.295839219566123, 0.29539265058215286, 0.29489925419336777, 0.29440807148377973, 0.29389174545176705, 0.2933983157731575, 0.292826076239549, 0.2921813308579501, 0.2915711117023488, 0.2909355262178169, 0.2903167045602837, 0.28962574672905533, 0.2888747806476631, 0.2881436814966527, 0.2873878423057176, 0.2866109133906564, 0.2858058441247982, 0.2849589399520672, 0.284108581477806, 0.28323372261096535, 0.28235779499652713, 0.2814320233455104, 0.28048403037419306, 0.27951393778028116, 0.2785218837572272, 0.2775413767815775, 0.27650166188003883, 0.2753987512693553, 0.2743253264290714, 0.2732297887797892, 0.27209626466322634, 0.27095968054601244, 0.2697994815735348, 0.26861980641655275, 0.2674191178509513, 0.266220992833802, 0.2649768018202142, 0.26368865627065496, 0.26241138107989986, 0.2611149179324301, 0.25985279505210407, 0.2585127520541481, 0.2571537008152593, 0.2557847842460348, 0.2544010424186, 0.25296074328564927, 0.2515532076909675, 0.25011714733280843, 0.24867863057760295, 0.24722409142895918, 0.24581236194057624, 0.24432043037695686, 0.24275783535651643, 0.24125202509530697, 0.2397323921321958, 0.2381936567706816, 0.23664923075459254, 0.2351132189335663, 0.23354266154462455, 0.2319624937806078, 0.23035950785477624, 0.22876327844606603, 0.2271811934321186, 0.22556474045175992, 0.22394180391008378, 0.22232388302512207, 0.22068773064945693, 0.2190674270297594, 0.21741965466723576, 0.21576903647605478, 0.2140670286245272, 0.21241753322799056, 0.21079653244548197, 0.20913379878218538, 0.20746945161995, 0.20575855180864608, 0.20409788795199194, 0.20247275906392662, 0.2008021195499116, 0.19913223655295514, 0.19742418323772526, 0.19576203732937902, 0.19409885009903996, 0.19243719127878706, 0.19077676599786672, 0.1891704350326783, 0.1875079255304368, 0.18585242005563837, 0.1842022897305988, 0.18255876454623265, 0.18090497726757201, 0.17927756076248103, 0.1776796606096636, 0.17606261175022855, 0.17445415666965278, 0.1728211893471619, 0.17123490350952006, 0.16962791919161319, 0.16806081887055652, 0.16650077540258762, 0.16498702911236093, 0.163438451043977, 0.1619097696430064, 0.1603831146393406, 0.15886891712423284, 0.15732380974197788, 0.155840798868908, 0.15440021320605743, 0.15293538506945742, 0.1514843157744117, 0.15001907257279953, 0.1485999567173636, 0.1471938777062727, 0.14580134324247376, 0.14442282875674423, 0.14310581755969265, 0.14175070457305966, 0.1403664690047243, 0.13905312363935396, 0.1377550577642462, 0.13651202568822884, 0.13524075712615125, 0.13397359464021089, 0.13274147239410625, 0.13152723143728054, 0.1303412995455686, 0.1291620158155078, 0.12797601858846697, 0.12683793839207416, 0.12571751272887866, 0.12458253163056902, 0.12350236793493202, 0.12248245133498971, 0.12143051890568869, 0.12039858422035683, 0.11938582822103526, 0.11839410569795017, 0.11738566571602306, 0.11643874877762068, 0.11550990399932107, 0.1146199867118076, 0.11372563967015963, 0.11285908435566776, 0.11200400560854043, 0.1111695466108288, 0.11037705645155502, 0.10958103585263625, 0.10880502119659123, 0.10805243741310872, 0.10732106735528821, 0.1066167324959073, 0.10592654916828143, 0.10524376955942885, 0.1045973076447369, 0.10397081059820841, 0.10338047741923934, 0.10279169952623579, 0.10220225165356395, 0.1016574023570927, 0.10113168164756371, 0.10059344046011263, 0.10010994702961022, 0.09965058899137773, 0.0992010247327658, 0.0987695079374905, 0.09840656440974745, 0.09800493351338663, 0.09759863737321005, 0.09724181133224608, 0.0969037185397371, 0.09654998351488198, 0.09625317915017365, 0.09599576627153747, 0.09572873685157662, 0.0954794528303327, 0.09527426039506544, 0.09505660760900095, 0.0948166113831007, 0.09464115888101811, 0.0944813177633641, 0.0943413237387622, 0.09421201703215765, 0.09409494264909697, 0.09399722770527451, 0.0939480177584359, 0.0938762375799121, 0.0938211640069711, 0.09373873082341405, 0.09372125677702581, 0.09372359203719531, 0.093731141949089, 0.09375192213344834, 0.09381998499529044, 0.09386241251562964, 0.09388440504541905, 0.09396004646903706, 0.0940474136931525, 0.09418056008220504, 0.09428656847754391, 0.0944219540936004, 0.09455168606871252, 0.09469452461576768, 0.09483108817538881, 0.09500085367584475, 0.0952084373529543, 0.09539532217063887, 0.09559355651963736, 0.09580175602822878, 0.09602124292264663, 0.09623343437692876, 0.09647426902627262, 0.09672310935180436, 0.09693608632478488, 0.09720569757683724, 0.09747754793649417, 0.09775719440358906, 0.09804166096799953, 0.09833269772958855, 0.09862666927184989, 0.09893069739335468, 0.09923379380915698, 0.09954192429345662, 0.09984636994814734, 0.10016513493112747, 0.10054093492939786, 0.10086087908295863, 0.10118751588597122, 0.10149715596774336, 0.10183834245490259, 0.10220462622318088, 0.10255023774903216, 0.10290016380519314, 0.10320091775458788, 0.10357935733015873, 0.10394145310869991, 0.1042668087793507, 0.10463533494357785, 0.1050024100734999, 0.10533228300179036, 0.10570145505327996, 0.10605897342891508, 0.10642335073180956, 0.1067847295194639, 0.1070954785509442, 0.1074576360977305, 0.10782667784904493, 0.10817761555179799, 0.10852498699723295, 0.10885787327594416, 0.10920005305256845, 0.10951879014126144, 0.10985603511152776, 0.11018859591949531, 0.11050895590856943, 0.11083360227563388, 0.11115435451086607, 0.11146947579779018, 0.11178001107611964, 0.11206627471744292, 0.11237004369776638, 0.11267481727920756, 0.11296609761564497, 0.11325198514197721, 0.11351785961900707, 0.11379453195966574, 0.11408093310319667, 0.1143424847118131, 0.1145983498555777, 0.11485430812359407, 0.11509741869952951, 0.11533454874465514, 0.11556543761587414, 0.11578983188050865, 0.11600235452166767, 0.11621367978591328, 0.116431194537426, 0.1166256227274347, 0.1168129717242592, 0.11696559425843048, 0.11714142429761913, 0.11732153845872814, 0.11747683240090802, 0.11762346972766055, 0.11778183822599385, 0.11790815942843956, 0.11803855303070618, 0.11814727336133667, 0.11824822066131566, 0.11833165673528699, 0.11841728999349806, 0.11851254594685744, 0.11857725530509713, 0.11863352491303758, 0.11867594458136817, 0.118715180104123, 0.11872100087822622, 0.11874417996482327, 0.11875627071947582, 0.11875820962676921, 0.11874825095708505, 0.11875483876320884, 0.11871982939189447, 0.11867563258532668, 0.11859726788541952, 0.11853731875226597, 0.11847658314750885, 0.1183933204729432, 0.11829974161006955, 0.1181966864844232, 0.11808232473681961, 0.11797818475836516, 0.11784060769097364, 0.11769385726329211, 0.11754631506665922, 0.11737964780614954, 0.11718759353048351, 0.11700452975835761, 0.11681109041386736, 0.11663208080650785, 0.1164147698139603, 0.11620218308573932, 0.11596503987051791, 0.11570055174367559, 0.11544848802423842, 0.11518639522087752, 0.11491596418552019, 0.11463354867153003, 0.11433775075586318, 0.11403583958486245, 0.11372377338905193, 0.11339645981110495, 0.11306485296565963, 0.11275457383342102, 0.11239842373881083, 0.11203390978508906, 0.11164375705575118, 0.1112641963493964, 0.11087488543095468, 0.11047587033404614, 0.11006720115164936, 0.109657483840803, 0.1092285891407247, 0.10878641392482247, 0.10834004418047073, 0.10788442663468287, 0.10743927903514648, 0.10696282531082472, 0.1064835137553751, 0.10599033371979061, 0.1054892770846606, 0.10496228693817371, 0.10444748036724727, 0.10395777581510104, 0.10342054062803097, 0.10287633994711155, 0.10228908895467297, 0.10173503702474859, 0.10119213070752608, 0.10061693749697562, 0.1000339323130217, 0.09943972078449889, 0.09884161454982247, 0.0982544300942367, 0.0976382411616713, 0.09701538491961484, 0.09639862963756511, 0.09576065830972322, 0.09511491287621197, 0.09446492737285024, 0.09380860485441245, 0.09311255672931834, 0.09244769528350785, 0.09179510907632214, 0.09111144307145418, 0.090421243271085, 0.08974598236005443, 0.08904029276277316, 0.08832785035541493, 0.08761222708347086, 0.0868913601100478, 0.08617721896063253, 0.08544435817743187, 0.08468473239220788, 0.08394557538473628, 0.08320056709997765, 0.08245501554393811, 0.08169818367366562, 0.080945719700226, 0.08017774822883104, 0.07940552654428805, 0.0786111540647918, 0.0778328922084134, 0.07707181955406825, 0.07628088723927098, 0.07548661565869504, 0.07470101542926218, 0.07389867763959425, 0.07306731325965721, 0.07226327796696236, 0.07145522061659376, 0.07064594079925872, 0.06983020780813536, 0.0690215355207375, 0.06819828973011006, 0.06737279155615951, 0.06657763832530182, 0.0657438286619027, 0.06490220885612709, 0.06406900232429477, 0.06323500034348538, 0.06240275788359033, 0.06156683126811582, 0.060732852935103304, 0.05989539754033851, 0.0590575486696537, 0.05822277316980084, 0.057383860337144016, 0.05652783048368236, 0.05569112161823792, 0.0548535883424787, 0.05401460877210793, 0.05317623017444151, 0.05235990145216967, 0.05151856594889109, 0.05067874119249143, 0.04983191372558521, 0.04899632634582212, 0.04816022782918446, 0.04732741130884073, 0.046496014225340894, 0.045665358891709126, 0.044837442843217085, 0.044005448095989816, 0.04318229250203151, 0.04236108387072062, 0.04154804386723065, 0.04073067085744015, 0.03990771462176368, 0.039097530060951756, 0.03829017333716459, 0.03752436922484341, 0.03671851232605268, 0.03588498435055753, 0.03509461929934854, 0.03430791518710425, 0.03356530656994944, 0.03278155125511081, 0.03197960735937423, 0.03121211135104764, 0.03044966576275967, 0.029718090488718867, 0.028962994176077922, 0.028204624712860827, 0.027464771599942227, 0.026731292722435716, 0.025997447981120313, 0.025277900073772758, 0.02455014374722737, 0.023845284112235403, 0.023146318246950584, 0.022462961699836196, 0.02177550390990892, 0.021109034756962502, 0.020434650421100962, 0.01976872500701186, 0.01909508990487617, 0.018448391360995367, 0.017832608378059875, 0.01719888256867618, 0.016574756731562775, 0.015939748448120343, 0.015337563477116352, 0.014749134340729442, 0.014163801047213542, 0.01358787418520176, 0.013059176661011552, 0.012497880125798987, 0.011932422474246097, 0.011397239383442408, 0.010873032243145035, 0.01034534130627323, 0.009845173690510054, 0.009353726935076906, 0.008874865105236114, 0.00840678542278954, 0.007968530078358507, 0.007520308961872996, 0.007074320714980061, 0.006652441515274444, 0.006242599894683709, 0.00584067743987075, 0.005455923644750204, 0.005116790815994246, 0.0047525414412235316, 0.004402800474039518, 0.004044384558817892, 0.0037263314060612895, 0.003452082771363708, 0.0031563367833485814, 0.0028756665118766823, 0.002574064924488042, 0.0023278525925923407, 0.002098791466356877, 0.0018780610113992167, 0.001670972795067257, 0.0014897038808803964, 0.0013089864506484906, 0.001162831845478971, 0.001009487919622747, 0.000872294035562451, 0.0007366328479511572, 0.0006333627691102665, 0.0005332777047236191, 0.00046193095850888667, 0.00040525548130818583, 0.0003779770816414719, 0.00034935265059518887, 0.0003606819443965347, 0.00036107521884860225, 0.0003788846257845985, 0.00040540155650236595, 0.00045868104344774774, 0.0005113961511814735, 0.0005998984159366717, 0.0007090799543792817, 0.0008281615442541911, 0.0009633322216227448, 0.0011197919214691225, 0.0012866920495099923, 0.0014804209367125253, 0.0016791658301811038, 0.0018950728793992709, 0.002128923452688975, 0.0023788336561153924, 0.0026449014465238906, 0.002928886173048817, 0.0032297226655826775, 0.00353539496597945, 0.003871323010152343, 0.004232716193565157, 0.004599627635618771, 0.004983227903226808, 0.005386896271501377, 0.00580331493486635, 0.006247601755611845, 0.006696039261491439, 0.007161699945026774, 0.007633300992203603, 0.008134329643367624, 0.008648926551444265, 0.009182498037219414, 0.009731955178321247, 0.010302389642567461, 0.010882841914930054, 0.011476758491410635, 0.012089490018975108, 0.012717894594747233, 0.013385828559875391, 0.014042275205031983, 0.014707753850050718, 0.015398331867722544, 0.01610462506463531, 0.016813600627194503, 0.0175523391049033, 0.018331988574508656, 0.01909608561332858, 0.01987588555967794, 0.020656529779667667, 0.02146863183831059, 0.02229642123820601, 0.023136102592071103, 0.023989536809553184, 0.024876214799398576, 0.025754126997971014, 0.02662325891943689, 0.027532366950152196, 0.0284538147147366, 0.029411418802864724, 0.03035411766788185, 0.03127672415883456, 0.03224980982541692, 0.03323359191577222, 0.034250247229506633, 0.03525241027015569, 0.03629107531467335, 0.03731320206697479, 0.038347823455218255, 0.039373066261631, 0.040433930535800126, 0.04149956029527839, 0.04258062001060618, 0.04367079202698338, 0.044782693988923705, 0.04588882815881623, 0.04698361300859168, 0.04811035804105495, 0.04924445940315992, 0.05039174230748179, 0.051539298592586325, 0.05270171161212338, 0.05386235845917575, 0.05503007881933399, 0.056191713118444515, 0.05737421066377247, 0.058580032313400504, 0.059770762841526846, 0.06096740398402544, 0.062180681365630604, 0.06338656855190677, 0.06458842794077779, 0.06580580310844523, 0.06702712456023185, 0.06826914288144623, 0.06949513597557118, 0.07070616928006082, 0.07194177072958909, 0.07317922871125507, 0.07442252656642444, 0.0756622754775554, 0.07690152312729331, 0.07814357100505663, 0.0793860624464594, 0.08063808637199911, 0.08187931924171263, 0.08311971155630642, 0.08436068677937682, 0.08560084757876162, 0.08683725746759913, 0.08807500812905968, 0.08929531321094829, 0.09053057547132803, 0.09176226074157835, 0.09301667755335598, 0.09423723248001606, 0.0954593252850773, 0.09667341080727916, 0.09788411093133209, 0.09907215701120585, 0.10027712335064909, 0.10149601252587684, 0.10268674584581564, 0.10387232928635033, 0.10506945026388766, 0.10624133607665927, 0.10738901327698655, 0.1085519818570462, 0.10970751248809535, 0.11085444895752955, 0.1119943148154097, 0.11313436152703689, 0.1142561257175249, 0.11536944772473255, 0.1164739894679349, 0.11756942522121196, 0.11866912443804574, 0.11974368594583346, 0.12080899790026356, 0.12187663925626875, 0.12292077777139575, 0.1239577869768577, 0.12498178256592754, 0.12599539951843952, 0.12699482403875192, 0.12798696475894586, 0.12897171138364874, 0.12993968003126544, 0.1308956538962159, 0.13183591989595259, 0.13276747907566752, 0.13369971360991048, 0.13460331319450622, 0.13549425810506513, 0.13638251004558846, 0.13724596814017423, 0.1381341428091557, 0.13896669695532085, 0.13978784036541822, 0.1405824676382698, 0.14138098998210064, 0.1421854354690148, 0.1429536948097894, 0.14370877934793194, 0.14448965040896794, 0.14521231894133582, 0.1459084767573257, 0.14660846962280163, 0.14729460737392863, 0.14800933795532936, 0.14866146341944073, 0.14930218038861162, 0.14992913711751432, 0.15054288813727715, 0.15119007649830926, 0.1517703477098697, 0.15235188062468646, 0.15290679499512402, 0.1534497531549048, 0.15399818773807822, 0.15451346930709584, 0.15501305614115263, 0.1555037901988033, 0.1559812754197754, 0.15648032663958206, 0.15692619401400443, 0.1573704746911131, 0.1577909819670253, 0.15819956804209948, 0.15862929147529606, 0.1590090053268656, 0.15940023334834003, 0.1597553276030062, 0.16010030516932092, 0.16045958776715863, 0.16078014710873348, 0.16110222334405935, 0.1614018408243717, 0.1616919031052816, 0.1620072214140445, 0.16227306261999808, 0.1625222434612814, 0.1627726369559905, 0.16301390980247665, 0.1632784932035373, 0.1634972785209347, 0.1637190167948369, 0.16392173180965158, 0.16411834021663455, 0.16430693551397815, 0.16448851313101176, 0.16469133692227345, 0.16485549196808616, 0.16501450310557988, 0.16516833843404907, 0.1653170338907967, 0.16547436941882196, 0.16561139712978928, 0.16577613947263267, 0.16590143724358247, 0.16602489036710483, 0.16614390308030869, 0.16626397219573016, 0.16640868019173413, 0.16652183184501054, 0.16663500816081978, 0.1667551086125805, 0.1668677054608409, 0.1669690937657171, 0.16708490626940364, 0.16720120721666124, 0.16735086011695535, 0.16746515083374056, 0.16755556058872595, 0.16768046116799065, 0.16780771603711706, 0.16795064540503116, 0.16808247421193054, 0.1682462544625525, 0.16838421050317667, 0.1685291451715399, 0.16866846634876456, 0.16882973140019714, 0.16900749309165813, 0.16918219854799563, 0.16936544070781534, 0.1695653229566539, 0.16976590549959117, 0.16996476345941522, 0.1701877574644063, 0.1704211500998405, 0.1706706092953253, 0.17092576418414895, 0.17119322675036408, 0.1714735016611445, 0.1717670999345578, 0.17208394524847292, 0.17240455313109515, 0.17274912401168527, 0.17309992153100418, 0.1734675196485716, 0.17384718762297668, 0.17425025378006215, 0.1746796329007474, 0.17511762278448456, 0.1755748258076098, 0.17602771921228688, 0.17652765863594277, 0.17706644046662703, 0.17760288128544874, 0.17816086906657752, 0.17875282885169877, 0.17935375582602364, 0.17995688645815863, 0.18060804924512794, 0.18128233619077688, 0.18199997608150842, 0.18271968695448337, 0.18343447525499051, 0.18421017381807273, 0.1850107446579161, 0.18582826005696593, 0.1866815043978527, 0.18755837208615647, 0.18846493813159898, 0.18939875717342305, 0.19037751477810977, 0.19136539079898135, 0.1923780057790706, 0.19342663315015834, 0.19450555988526294, 0.19561175454774563, 0.19675286879124232, 0.1979166701284293, 0.19912172556758564, 0.20035828751323517, 0.20162335528495168, 0.20292460088537959, 0.20429170916161268, 0.20565413829642656, 0.207051692372026, 0.2084553649385214, 0.20992707269434455, 0.21145903651962267, 0.212995217178012, 0.21456728189605664, 0.21617189032308762, 0.21781640347458023, 0.21948147259006914, 0.22119995338708123, 0.22295375989814578, 0.22472346054111564, 0.22655110188788571, 0.22843072664728434, 0.23032630146764918, 0.23225835418288485, 0.23421674937623035, 0.23622342103715024, 0.23826376162464996, 0.2403433878654908, 0.24245940051401774, 0.24464100809794115, 0.24682648266262133, 0.24902206726236087, 0.2512875974187737, 0.25358952603661405, 0.2559347539001429, 0.2583087654734989, 0.26072137084289415, 0.26316886305291093, 0.26565317936164135, 0.2681613765369988, 0.2707206051340162, 0.2733283811033347, 0.27595737282113675, 0.2786226716303738, 0.281316373012318, 0.284054625622135, 0.2868161236674341, 0.2896261473459711, 0.292470337749807, 0.2953699530615218, 0.29827937530693815, 0.3012151545098002, 0.3041950959143322, 0.3072087007180379, 0.3102676205536272, 0.313346059028806, 0.31643302322219313, 0.3195807918672726, 0.3227595727625216, 0.32598705939078376, 0.32922476610093476, 0.33249617503501616, 0.33579533826164726, 0.3391247913955527, 0.34246433812757415, 0.3458552754526848, 0.3492797924082326, 0.35272477458272133, 0.3561968910637933, 0.3596948032530494, 0.36321982888716575, 0.3667849778865473, 0.3703588071368018, 0.3739579664759471, 0.3775501363177642, 0.38120192804131703, 0.38489149223933716, 0.388583849076304, 0.3922977533399947, 0.39602060786802307, 0.3997772353863082, 0.40356650968419305, 0.40735876590211406, 0.41116959444994516, 0.414982022028046, 0.41882987073805583, 0.4227034488975508, 0.4265803181346295, 0.4304719762927488, 0.43436399699779493, 0.4382847252774231, 0.44220780974660145, 0.4461525938630771, 0.45010726917088545, 0.4540669310145962, 0.4580400154527189, 0.46201308558030524, 0.4660018362848615, 0.4699964667133373, 0.4740057239427819, 0.4780089136479694, 0.4820267073781392, 0.48603646619159196, 0.49004949851058205, 0.4940477783262791, 0.49806675665906974, 0.5020861410000953, 0.5061033302616201, 0.51011853684245, 0.5141412029759495, 0.5181486726949754, 0.5221505282925697, 0.5261494713880582, 0.5301425456338373, 0.534095479101342, 0.5380782796048849, 0.5420488765728179, 0.5460102591156002, 0.5499597241804215, 0.5539094049371515, 0.5578312999001963, 0.5617466748465574, 0.5656401102795598, 0.5694948742511623, 0.5733609517283905, 0.5772090922338474, 0.5810556644300751, 0.5848635407365561, 0.5886205321872484, 0.5923930022034003, 0.5961426102978895, 0.5998704062530357, 0.603572066056948, 0.6072386401078922, 0.610891208714598, 0.6145168776681013, 0.6181286428703203, 0.6216966985951659, 0.6252356460792743, 0.6287464543149154, 0.6322272643493418, 0.6356652653123696, 0.6390850831960928, 0.6424443612583586, 0.645800565651254, 0.6491205976061369, 0.6523988062498516, 0.6556455538513439, 0.6588601839706562, 0.6620294111406031, 0.6651597364906967, 0.6682265676206646, 0.6712801694363938, 0.6742958367279064, 0.677264000774252, 0.6801892159783902, 0.6830803307802059, 0.6859167673984624, 0.6886714364650657, 0.6914236884805737, 0.6941283595690734, 0.6967936460079286, 0.6994009750301836, 0.7019437981956725, 0.7044561660588279, 0.7069183510885938, 0.7093496367100433, 0.7117077888409059, 0.7140019633787252, 0.7162606662893019, 0.718467135301622, 0.7206080836564754, 0.7227103315663647, 0.7247411468230105, 0.7267365509547361, 0.7286759587950264, 0.730544606289786, 0.7323731653231016, 0.7341416175304983, 0.7358552644796238, 0.7375108950816966, 0.7391194526581958, 0.7406571039186788, 0.7421196875192462, 0.7435432722984359, 0.7449073328247363, 0.7462074390258606, 0.7474525213588163, 0.7486305131120883, 0.7497558267260387, 0.7508202305692273, 0.7518244924844165, 0.7527667004790484, 0.7536383618324619, 0.7544593771835281, 0.7552185202492115, 0.7559140595584352, 0.7565496084086893, 0.7571085808384355, 0.7576218843489979, 0.7580723192938807, 0.7584582897669481, 0.7587835389933525, 0.7590649599148672, 0.7592626549736295, 0.7593989838576816, 0.7594576561099903, 0.7594732054219736, 0.7594238519614193, 0.7593152053407871, 0.7591443905153591, 0.7589167252969959, 0.7586214900701099, 0.7582478473152404, 0.7578323349363447, 0.7573549060716452, 0.7568107621307428, 0.7562111457782776, 0.75557854290516, 0.7548533145988029, 0.754069209408257, 0.7531981520658048, 0.7523003342259074, 0.7513417328793728, 0.7503246287879595, 0.7492484716391543, 0.7481154404118684, 0.7469223676929081, 0.7456879981690927, 0.7443782413763983, 0.7430127831189017, 0.7415851287220727, 0.7401101989935966, 0.7385760227908359, 0.7369921670191499, 0.7353540640931376, 0.7336400166709613, 0.7318978576072613, 0.7301283637959971, 0.7282759085574702, 0.7263725830098552, 0.7244000890430085, 0.7223989724768793, 0.7203449731613638, 0.7182442717696366, 0.7160945577354811, 0.7139017063935511, 0.7116555483645818, 0.7093731562852692, 0.707033407929097, 0.7046491471885341, 0.7022304136071087, 0.6997578520479467, 0.6972210175393986, 0.694667799931139, 0.6920725345140202, 0.689454868664006, 0.6867756246246759, 0.6840510418028054, 0.6812963495556258, 0.6785041573766608, 0.6756786600627125, 0.6728133674793797, 0.6698968697470921, 0.6669644960898155, 0.6639978186081366, 0.6610105957030358, 0.6579764726565946, 0.6549046974791529, 0.651810631174868, 0.6486870043919458, 0.6455030586521381, 0.6423269682325047, 0.6391572644420797, 0.6359205274032588, 0.6326593352247495, 0.6293419920439097, 0.6260384177903618, 0.622715279308963, 0.6193645756727996, 0.6159924308980541, 0.6126143942969149, 0.6092005440308939, 0.6057545141428998, 0.6023080706197693, 0.5988448726624738, 0.5953812859351882, 0.5918855346087171, 0.5883545346233782, 0.584836382683575, 0.5813056020880046, 0.577758063684107, 0.5742056631539191, 0.5706578386745734, 0.567084667353389, 0.5635043163318968, 0.5599210459039949, 0.5563284191759693, 0.5527133571388853, 0.5491148559564937, 0.5455124834341767, 0.5419131772134448, 0.5383051398832207, 0.5346929457789351, 0.5310847209055078, 0.5274772623351413, 0.5238842597634796, 0.520279283436451, 0.5166809072427482, 0.5130843989974769, 0.5094935185310226, 0.5059081169204581, 0.5023307219219187, 0.49873281033942796, 0.4951751141870437, 0.4916249754200222, 0.48808761174316334, 0.4845548405173216, 0.4810377310957242, 0.4775261912642449, 0.47402708708321956, 0.4705308919616974, 0.4670601508905672, 0.46360343528508935, 0.460161521659197, 0.4567377285121754, 0.45332733036281, 0.4499340702308418, 0.44652953807273693, 0.44317621701673576, 0.4398873928196889, 0.43656389469006035, 0.4332621552965335, 0.4299628927507544, 0.4267083318955188, 0.4234790361114446, 0.42026829784371816, 0.417080713064679, 0.413898828944381, 0.4107613308248382, 0.40763292353223896, 0.40454513749262455, 0.4014813632837129, 0.3984491145204278, 0.39543447235727336, 0.3924409872299538, 0.38948007021393105, 0.3865461253356377, 0.38365845539672844, 0.3807775094481442, 0.3779165604024783, 0.3750958659564372, 0.37230454828643755, 0.3695275294842603, 0.366797844173535, 0.36410697924751856, 0.3614353221357937, 0.35879435926218095, 0.35619204479337335, 0.35361225073564884, 0.3510489074620238, 0.34853489358333806, 0.34605213996704304, 0.34360260744461874, 0.34118288477790476, 0.3387815137142434, 0.3364277586835671, 0.3341055853028117, 0.33182891604188947, 0.32956886050836964, 0.32732467342632715, 0.3251327665170653, 0.3229729397331008, 0.3208538977371456, 0.3187575776675182, 0.31670787263957434, 0.31467568647527644, 0.31267718684158524, 0.31068828812979604, 0.3087597711436405, 0.30687514932722937, 0.305009010650069, 0.30317553548087567, 0.301358374046234, 0.29959196738933136, 0.29785098891193523, 0.29614816377969855, 0.29447637987666225, 0.29285358688511554, 0.291241554021524, 0.28964862328946944, 0.2881018352046768, 0.28658577457878465, 0.28508660963687166, 0.28363327056209553, 0.28220596903292555, 0.28081188669694174, 0.27944685555291754, 0.27812272626701745, 0.27681388703494963, 0.2755334637056836, 0.2742829761626474, 0.27306110370682674, 0.27186838909352323, 0.27070269093972443, 0.2695475834295779, 0.26843908988887166, 0.2673566265135525, 0.2663204923168632, 0.2652867902239479, 0.2642470212069559, 0.263269833721215, 0.26231633941428345, 0.2613846337141045, 0.26047812813699195, 0.2596013873676191, 0.25873959574325467, 0.25790055180158783, 0.25707533272439653, 0.25628173984507, 0.2555058411182124, 0.25475457056616113, 0.25402352333900885, 0.2533157713121457, 0.2526236722067158, 0.2519500314488853, 0.251296240210692, 0.2506608496030976, 0.25003401245924833, 0.24943528498368553, 0.24887104600809432, 0.24830271785367838, 0.24775113690375486, 0.24721916414862263, 0.24669897143860606, 0.24618464881817254, 0.24569563116544008, 0.2452202325979833, 0.2447519894577345, 0.24430315324983193, 0.24387386165322458, 0.24344731477475579, 0.24303217605726976, 0.24262280805462075, 0.2422296194922822, 0.24183663500256167, 0.24146340404857994, 0.24109834472613628, 0.24073594309084365, 0.2403867180618247, 0.24006044951795416, 0.2397222166227209, 0.23939085656819495, 0.23905473240662298, 0.23873697505116773, 0.23844018321989477, 0.23812939766214014, 0.23782342490896777, 0.23751317013135934, 0.23721629133555547, 0.23688795128958023, 0.23660046122584333, 0.23631293755048674, 0.23603549276039867, 0.23574612332513398, 0.23546702154287966, 0.23517605170007702, 0.23488502767766464, 0.23458926019190332, 0.23429743281415494, 0.23402546436928653, 0.23372752386081613, 0.23342853028557972, 0.23311683047385995, 0.23281555487597058, 0.23251021161923985, 0.23220224083894073, 0.23189026152255238, 0.23155595976431637, 0.23123717993449053, 0.23089951656196617, 0.2305700624354713, 0.23023345085425984, 0.22991523739026284, 0.22956074334789425, 0.22919161998159, 0.22882569573864459, 0.2284525133613242, 0.22806839057438572, 0.22768034510083923, 0.22727039625614207, 0.2268674231776236, 0.22645502818663452, 0.2260485028619282, 0.22561500014165417, 0.2251837225611436, 0.22473077866830396, 0.2242690775657826, 0.22379060521923827, 0.22331143414203064, 0.22283074047313758, 0.22233014609044116, 0.2218195837578108, 0.221289407415275, 0.22075940259050428, 0.22022508555863993, 0.21967180010173837, 0.2191075370122741, 0.21851589918503195, 0.2179313065987891, 0.21735323881791213, 0.21674171085205385, 0.21611899339975593, 0.2154755460487858, 0.21483125794552316, 0.2141552347825798, 0.21348929653145432, 0.21281017942038838, 0.2121274522217284, 0.21142125766915243, 0.21068062014035038, 0.20995287295393808, 0.20921177144604428, 0.2084814933044367, 0.20771132910825627, 0.2069220941227757, 0.20613014279813663, 0.20532637140183596, 0.2044963125402612, 0.2036709571150814, 0.20282463796435074, 0.20197574023126, 0.20111262878483394, 0.20023919002334895, 0.1993536349412895, 0.1984561977600707, 0.1975470997837126, 0.1966351037568046, 0.1957022250835052, 0.19475877141909173, 0.19380144126093193, 0.19283763244127777, 0.19185658545932924, 0.1908730090732898, 0.1898789738501837, 0.188883250620211, 0.1878678676088904, 0.1868756483356961, 0.18583762627774325, 0.18479238077295645, 0.18371414843776934, 0.18265742032363724, 0.18156873351498878, 0.18049739863369152, 0.17941632187329296, 0.178325906158729, 0.17722653554921602, 0.17612541917895586, 0.175008360654618, 0.1738837901208127, 0.17277421633956175, 0.17163262524447226, 0.17046761927475318, 0.16931747508977474, 0.1681610607320517, 0.16702173735357662, 0.16585067205649123, 0.1646446521096964, 0.1634692300199606, 0.16228810255273707, 0.1611101960439247, 0.1599176865745024, 0.158721039055571, 0.15752052630607352, 0.15631642090309233, 0.1551166923211601, 0.15390524539581396, 0.15268119164956723, 0.151466564233191, 0.1502494441812049, 0.1490250065753114, 0.147804465082676, 0.14659573323632172, 0.14537004889759123, 0.14414392063715026, 0.14290643923328952, 0.14168146153331923, 0.14045948131328212, 0.13923353887657, 0.13800798738389738, 0.1367993499646494, 0.1355733443216097, 0.1343323501525159, 0.13311287464885385, 0.13189483934435625, 0.13068196340904745, 0.12946726413662152, 0.12823369155793113, 0.12702696244397096, 0.12582204206400777, 0.12464329554322313, 0.1234401967810215, 0.12223288428072711, 0.1210397040444997, 0.1198507078090887, 0.11867212084254544, 0.11749144685731067, 0.11630316616993831, 0.11513473433944697, 0.1139711589793139, 0.11281956407202189, 0.11166567064871233, 0.11051184128982082, 0.10937099870133539, 0.1082362525408617, 0.10711809954433192, 0.10599494109810105, 0.10488426068066933, 0.10377527160310607, 0.10267416927764682, 0.1015665024456487, 0.10048328118755404, 0.09941425328056532, 0.09834509010430742, 0.09728409157522619, 0.09622798022865153, 0.09518417072963846, 0.09414276789674893, 0.09311666276395479, 0.09209892952251587, 0.0911102887201351, 0.09010727634911211, 0.08909723095358371, 0.08811651881610968, 0.08714491688530886, 0.08619967999281923, 0.08524457653450379, 0.08428029441486762, 0.08334864594204959, 0.08242636277493744, 0.08150334034462688, 0.08060154631978815, 0.07973890909229547, 0.07885197975270863, 0.07797633647657026, 0.0770973602922352, 0.0762458987863465, 0.07542351526550885, 0.07459026737548644, 0.07376846475329246, 0.07295715370378925, 0.07215806647211664, 0.07134616928267046, 0.07057232276621221, 0.06980815529419347, 0.0690794683573523, 0.06833182915190128, 0.06757516011592231, 0.066852991748999, 0.0661409454428729, 0.06545362778975297, 0.06476017710139324, 0.06406585543632269, 0.06339603687231811, 0.0627364796432317, 0.062104304838447255, 0.06146314724641726, 0.06081783755559169, 0.0602009620314183, 0.059594176519634494, 0.05898378903619058, 0.058398880017447946, 0.05785916194795063, 0.05728833040480733, 0.056728918376971124, 0.05617297662855782, 0.055636638646580396, 0.05510032170279809, 0.054585707533251725, 0.05408052333158755, 0.05359669260423295, 0.05310869852190356, 0.05261096698957654, 0.05214516062868012, 0.05168785910770377, 0.05123735634482446, 0.05079727877815035, 0.050357881868465945, 0.049935509157257495, 0.04952102098228532, 0.049117850316291685, 0.04871871576109504, 0.0483515850026251, 0.047965469909799954, 0.04758861058981518, 0.04719849082017068, 0.04684212911421129, 0.046521201384490486, 0.04617563372430498, 0.045838730035754546, 0.04549991976491442, 0.04518073757519136, 0.044849105597721685, 0.04454667850366337, 0.04425002561567144, 0.04396683610883391, 0.04368071799607372, 0.04341185186879851, 0.04313648077457324, 0.042867632682034654, 0.04260081824588674, 0.04234492474564554, 0.04208870983142687, 0.041844745342938576, 0.04160579476299837, 0.04136918481266748, 0.04114025893532498, 0.04092014261067903, 0.0406996431282906, 0.040483711740205125, 0.04027647952220416, 0.040068708145706344, 0.0398576119037745, 0.039659378433387356, 0.03946473017243405, 0.039264150277973975, 0.03907753023353081, 0.03891671996241654, 0.03873257382544917, 0.03855234350098734, 0.03835952854637157, 0.03818844521597486, 0.03803761319823119, 0.03786876005469442, 0.03767909067258861, 0.037519289550810235, 0.03736081613157508, 0.03719424559951709, 0.037039552982491016, 0.03691379551189864, 0.0367569850295698, 0.03660250434240878, 0.036433014024704384, 0.03628466544020685, 0.03614129999104059, 0.03599376677444394, 0.035847058846443076, 0.03569166548498121, 0.03554748806997281, 0.035403298636857525, 0.03525907029823054, 0.035114767485573344, 0.034998569805340204, 0.034850414061484807, 0.03467967383334103, 0.034536983562910906, 0.03439376311113103, 0.034259372842516025, 0.03411375757739713, 0.033971409866163094, 0.03382492413986816, 0.03367822238962606, 0.03350550390906539, 0.03336119307261732, 0.03324390278061999, 0.03309189162722078, 0.032939619564162075, 0.032804871052817666, 0.032649295623091455, 0.032464908389523706, 0.03231326489942751, 0.032159732035422196, 0.032012876375228295, 0.0318545220503886, 0.031687092117642465, 0.0315268886455951, 0.03136474994304538, 0.03122120955909848, 0.031052626647258063, 0.03084051570964777, 0.03067564330579621, 0.0305072968905774, 0.030337403454073174, 0.030162515350756845, 0.02998311013798941, 0.029802954811621714, 0.029620138707419523, 0.029445889897512956, 0.029256661014444123, 0.029066535615525548, 0.02887367422641623, 0.028679067828361195, 0.028470716693921823, 0.02827405660450031, 0.02808260300425474, 0.027880064334302523, 0.027675609016391826, 0.027476930033103787, 0.027267656323214803, 0.027063729083566353, 0.02685053576015303, 0.026636112425256122, 0.02643147569158226, 0.02621289711499127, 0.025954965807246603, 0.02573936854031329, 0.02552046619957423, 0.025337801398642428, 0.025107900748910367, 0.02485778097428886, 0.024629102103653943, 0.024398460059279134, 0.024191549954538736, 0.023953853102651707, 0.023688383300473966, 0.02345317085022577, 0.0232157138424743, 0.023004340669438725, 0.02275913780562544, 0.022505023162370522, 0.022260046677497668, 0.02201398279346348, 0.021789901423070697, 0.02153869025688668, 0.02129962932558557, 0.021047081787289854, 0.020795061518034993, 0.020544210485242676, 0.020292534095710836, 0.02004432214865393, 0.01979218092707347, 0.01954006428260332, 0.019309258712944553, 0.019054230462521707, 0.01879594136197508, 0.018543286634764004, 0.01829105083488309, 0.01804940743607666, 0.017796470802646104, 0.01755374619148618, 0.01730112890113394, 0.017049672522177043, 0.016833464830898346, 0.016579672329170854, 0.016332109278886675, 0.016083190273739927, 0.015836706012853963, 0.01563176525546076, 0.015384528863404478, 0.015126839962013663, 0.014889196043323862, 0.014654058183000793, 0.01445974808725241, 0.014224308651675965, 0.01399145907566814, 0.013764479478514821, 0.013541058157693246, 0.013367163101822632, 0.013144427652679296, 0.012954716776194553, 0.012739388972341044, 0.012530443546696718, 0.012332500738708275, 0.01213423005517391, 0.011951625743225863, 0.011762559667807548, 0.011578932989904941, 0.011411607733526279, 0.011236750703726234, 0.01108961122036157, 0.010922732017632027, 0.01076228975417493, 0.010625995059287166, 0.010475472488106248, 0.01034637150638642, 0.010207553380539636, 0.010076050286483361, 0.009991834578522546, 0.00986927076263916, 0.009763483450861801, 0.009657723824790996, 0.009560794931811905, 0.009487802759407513, 0.00940579643763874, 0.009343946107956101, 0.009278389921688512, 0.009222120044992083, 0.00918435592909089, 0.009144965801789856, 0.009122698100102826, 0.009101083064246477, 0.009089170834916557, 0.00912366641516327, 0.009126346146416013, 0.009132162607312307, 0.00915905747227521, 0.00919673970511785, 0.009254567290759809, 0.0093125295831467, 0.00939632244330301, 0.009475019023969525, 0.009565839751597941, 0.009675569916537174, 0.009789647282472681, 0.00993414697373729, 0.010070880773479713, 0.010221125153166153, 0.010403619727608254, 0.01057832470523628, 0.0107734855721487, 0.01097626445008352, 0.011193682233638586, 0.011432517309009816, 0.011678201469755936, 0.011932858324077169, 0.012209216357276625, 0.012500230777341201, 0.012811147745209498, 0.013131192271663313, 0.013464877393955688, 0.013815970331901852, 0.014182596958388532, 0.014584605877147709, 0.014980359425544543, 0.015401871285777868, 0.015831005595659517, 0.01627795241241309, 0.016747873888846545, 0.01722991786659669, 0.017731092393428342, 0.018249644336058926, 0.018786674874377834, 0.01931406551395373, 0.019891953422512713, 0.020488814130672557, 0.021101391573168055, 0.02175259922384158, 0.02239912708400603, 0.023065571734884396, 0.02375806689923718, 0.02446403881093275, 0.02516678483791213, 0.0259173485770019, 0.026687546153771453, 0.027486266494721072, 0.028295644758987243, 0.029132087934123835, 0.029983090403872644, 0.03085595231032361, 0.031728606105671936, 0.03264850579881703, 0.03361347434033702, 0.034572942537612554, 0.03555555848152849, 0.036535782753656966, 0.03756829639301408, 0.03862801766228756, 0.03970437281316364, 0.0408037454269438, 0.04191527100891828, 0.04306283099566482, 0.04424291205440472, 0.04543581391733055, 0.046652943800210754, 0.04787909387880079, 0.049147176076697476, 0.05044000965306443, 0.05175606025159414, 0.05309660057469444, 0.054477258339745906, 0.05586551403646875, 0.057289178311714345, 0.05872830614026956, 0.060194083430208004, 0.06167110228187223, 0.06319209372150414, 0.06472602963873578, 0.06630032505283458, 0.06789993646567194, 0.06952423001470487, 0.07117522456263807, 0.0728589313522361, 0.07456097114666163, 0.07628958678693083, 0.07802689895641604, 0.07981117032062675, 0.08165372513008812, 0.08348565734876785, 0.08534557418356484, 0.08721284095059971, 0.08913100575804853, 0.0910637336634003, 0.09303656882642987, 0.09503542190118386, 0.09707498451224769, 0.09912446861946003, 0.10119262041999241, 0.10329759321426676, 0.10542923546191796, 0.10758757266734836, 0.10977261638324741, 0.11198350969922584, 0.11422205695220927, 0.11648722051471518, 0.11879692943246271, 0.12111295051861225, 0.123458178984371, 0.1258287686305256, 0.1282265407263416, 0.13062306349827468, 0.13307814803109141, 0.13556078741496394, 0.1380655587829873, 0.14059550353372494, 0.14315486054914908, 0.14573447966439632, 0.14834532840837453, 0.15097454863147083, 0.15362907946238136, 0.15629760234069484, 0.15900355285367776, 0.16174383402551684, 0.16449649394675356, 0.16727352293768263, 0.17005072952588396, 0.17287878405934268, 0.17573766458964443, 0.17860911554375572, 0.18150315091947383, 0.18441957443482643, 0.18735817237856062, 0.19030160988729636, 0.19328601304627901, 0.19629089382344392, 0.19934091653487926, 0.20238317394509253, 0.20541772158372518, 0.20850597019900985, 0.21161311230728072, 0.21475863062596737, 0.2179004800000648, 0.22104884838980612, 0.22423058632831933, 0.22743009099177156, 0.23065558133111147, 0.23388852095050994, 0.2371275390846287, 0.24039582741946772, 0.24367978258879483, 0.24698245367344937, 0.2502961777820937, 0.2536109125443555, 0.25695530927830273, 0.2603127295510425, 0.2637067633777839, 0.2670861105198512, 0.27045046570686554, 0.2738592297354545, 0.2772784202736222, 0.28069654333462507, 0.2841368401896242, 0.2875960027584609, 0.2910518531808269, 0.29451614277253835, 0.2979909419218122, 0.3014702843404941, 0.3049498377402765, 0.30844359280331607, 0.31194289108819323, 0.31544977696025345, 0.3189582582848926, 0.322469963783625, 0.32598612861696946, 0.3295051488839, 0.3330093258234143, 0.3365344285773029, 0.3400861312471347, 0.34360757655106844, 0.3471296121848808, 0.35062840757411723, 0.35415233232480625, 0.3576707873783753, 0.3611886928449824, 0.36470246057770334, 0.36818759387714023, 0.371694445474361, 0.37519325775221285, 0.37868544286024963, 0.3821695458202296, 0.3856613458072748, 0.38912578825133404, 0.39255846875854905, 0.39600780493819226, 0.39944579937581576, 0.40288220465282637, 0.40629465999803466, 0.4096733589362301, 0.41306310019539855, 0.41643792447152894, 0.41978876832529544, 0.42313327874402584, 0.42646334408193626, 0.4297729917601955, 0.4330647114227267, 0.43632679558417187, 0.4395822777079143, 0.44284731860824106, 0.4460577181820219, 0.44924830212562983, 0.4523814629862296, 0.4555345807029535, 0.4586642143502315, 0.46176804518024744, 0.46484655919402906, 0.4678795317858985, 0.4709082182021409, 0.4739147555678077, 0.47688597040346864, 0.47982846832061044, 0.48273571393610915, 0.4856198715401809, 0.4884561765861841, 0.49128045678550797, 0.4940719248880232, 0.49683356621819663, 0.4995576430628894, 0.502244292789385, 0.5049002548595376, 0.5075209352736579, 0.5100921182566354, 0.5126423572890247, 0.5151514960063078, 0.5176263579006273, 0.5200624278070938, 0.5224489851174585, 0.5248073791104604, 0.5271207102901669, 0.5293976568198235, 0.5316327289952629, 0.5338220925829811, 0.5359725926188409, 0.5380831623268646, 0.5401461025420843, 0.542136800415712, 0.5441147983581371, 0.5460462476851202, 0.5479129411044911, 0.5497527947503934, 0.5515391414061378, 0.55328272092571, 0.5549772601599462, 0.5566276985468714, 0.5582229037803691, 0.5597627126068677, 0.5612595493405412, 0.5627060177418522, 0.5641163804253913, 0.5654594339570351, 0.566723853696066, 0.5679692362598104, 0.569161801402094, 0.5703056595579796, 0.5713915373281857, 0.5724183132012352, 0.5733984830835471, 0.5743247319983931, 0.5752011497612919, 0.5760184539611211, 0.5767618408429289, 0.5774729148075362, 0.578128198485926, 0.5787404710511785, 0.5792823943606362, 0.5797673622980892, 0.5801988385861645, 0.5805746379483435, 0.5808937681955766, 0.5811579219222888, 0.5813608421858778, 0.5815133458421873, 0.5816092823702043, 0.5816298085682112, 0.5816149139367003, 0.5815252335328341, 0.5813972904042077, 0.5812110005153435, 0.5809854543465599, 0.5806808980298154, 0.5803266624084107, 0.5799082736244149, 0.5794339065552806, 0.5788941926662311, 0.5783091932903106, 0.5776738446584279, 0.5769755847103124, 0.5762216696902723, 0.5753934225225242, 0.5745310065869244, 0.5736123423877602, 0.5726377679659089, 0.5716076189591877, 0.5705273618398528, 0.569386421207215, 0.5681723888916866, 0.5669255754634507, 0.5656240425242995, 0.5642819473688969, 0.5628706585296851, 0.5614153710714858, 0.5598982468807332, 0.5583297598985947, 0.5566802813027382, 0.5550137878292971, 0.5533140435524861, 0.5515416468402866, 0.5497194450789613, 0.5478299167578332, 0.5459117038531586, 0.5439671235880382, 0.5419476959742705, 0.5398813453629769, 0.5377531066382168, 0.5355961653056485, 0.5333808150919446, 0.5311331315325234, 0.528839574458519, 0.5265290862217729, 0.52414236606957, 0.521706655184661, 0.5192369802414124, 0.5167257544405294, 0.514141062708739, 0.5115526119013776, 0.5089456773168402, 0.5062720488882867, 0.5035599075617976, 0.5007885456699562, 0.4980041112049855, 0.4952033937012566, 0.4923418024694601, 0.4894454839990949, 0.486520250315634, 0.4835558835614523, 0.4805497506354162, 0.4775225331457809, 0.4744637996920786, 0.47138801875893693, 0.4682668827761784, 0.4650857251289391, 0.46191252421755824, 0.458710568462228, 0.45547827245099215, 0.4522220564352658, 0.44892871869052964, 0.4456228595159742, 0.44229227610531013, 0.4389525296460652, 0.4355737045126605, 0.4321679884503511, 0.4287489587721444, 0.4253103822484954, 0.42187880982883785, 0.41840057143210013, 0.41490175911993676, 0.41139395623394204, 0.40787178792301093, 0.40430350943353016, 0.4007589940127498, 0.3972117055315083, 0.3936390509623867, 0.3900552031222106, 0.38644653718757455, 0.382844874767206, 0.3792595770484006, 0.37563709283877356, 0.3720087482911628, 0.36836418474572846, 0.36472781084549044, 0.36109152836315794, 0.35744711247005906, 0.35380048159016725, 0.3501396280776469, 0.346492649712629, 0.34285545528406813, 0.339207138478441, 0.33556073671472547, 0.33190251470453574, 0.3282641883758694, 0.32461567635209326, 0.32098698398173825, 0.3173628178101467, 0.3137604072831696, 0.31014614813569313, 0.30652734816437344, 0.3029320494126866, 0.29934583580305857, 0.2957704113971887, 0.2922047850189296, 0.28864820958962734, 0.28510692223123496, 0.2815786529747233, 0.27807443296949175, 0.27457318919541773, 0.2710766728165157, 0.26760915939119423, 0.2641581293263312, 0.26071317599950405, 0.25729863498994704, 0.25389775927962344, 0.25052039172306084, 0.24716219843935314, 0.24384272649160013, 0.24052267049016046, 0.2372206815550484, 0.23394635381215337, 0.23069512678553727, 0.2274487106466825, 0.22424762954342226, 0.22107526941855005, 0.21792136382985788, 0.21479259657342936, 0.21167583041303845, 0.20860068810569243, 0.20557629437351246, 0.20255050506953023, 0.19955321245366933, 0.19657363139875056, 0.19363573258582498, 0.1907266924153073, 0.187846918833317, 0.18499680246779726, 0.1821818484586602, 0.1793915024703527, 0.1766056615257944, 0.1738809860130518, 0.17118639688757517, 0.16851125145709625, 0.1658796291188855, 0.1633035861565954, 0.1607308416593082, 0.15819114131722867, 0.15566584743103887, 0.153195134504349, 0.1507577610357592, 0.1483522007877137, 0.1459934103343598, 0.14365251769201043, 0.14134590376038214, 0.13905909362510546, 0.13682305735002417, 0.1345975540354708, 0.13243183568297662, 0.130298720109458, 0.12820704588515003, 0.1261388674643186, 0.12413015346434014, 0.12212643592051092, 0.12015811780279377, 0.11822417363367488, 0.11632625286553146, 0.11442297906655823, 0.1125996630438056, 0.11080860458138168, 0.10906962734744494, 0.10734101257733378, 0.10565635240647779, 0.10399369563022993, 0.10236503508336758, 0.10075045954967199, 0.09919155185207072, 0.09765539358529712, 0.09616189290548621, 0.0946998033511438, 0.09330155447152019, 0.09189793896098064, 0.09047337929804936, 0.08914202918199671, 0.08783976187623602, 0.08658114419990176, 0.08533523852956569, 0.0841277236727381, 0.08294018864341483, 0.08178249857295118, 0.08063549935386385, 0.07953884950944912, 0.078511843886754, 0.07746515061561761, 0.0764480775806786, 0.07541896188538519, 0.07446450236772488, 0.0735338649831166, 0.07263045247179285, 0.07175197869378078, 0.07093237676359808, 0.07009860062507912, 0.06927367430516168, 0.06849334729764081, 0.06773678418234672, 0.06698727753687542, 0.06627891684670621, 0.06559629293042687, 0.06492996868756001, 0.06428463565233074, 0.06363592830875453, 0.06303433497253015, 0.06245451369196031, 0.06188892661125847, 0.06134132163897774, 0.06084213136309235, 0.06032550623821409, 0.05981975650699349, 0.05934058094202029, 0.05887822205418587, 0.05842440171609599, 0.05799490994394298, 0.057555268828754745, 0.057157708958000805, 0.056772387487227544, 0.05641438071908243, 0.05605060800205898, 0.05569804775373345, 0.05535800172990022, 0.05502893739583788, 0.05470092940225928, 0.054393460957956524, 0.05408633057277981, 0.05379727358486887, 0.053515714929038755, 0.053278027735086816, 0.05300559424275363, 0.052720090225514, 0.052466241047907806, 0.05221804954433158, 0.05196559149523149, 0.05172835632212506, 0.05147931162538503, 0.051250756894754924, 0.051024045648910686, 0.05082109036585593, 0.05059426447358122, 0.05037549022296138, 0.05015148454664889, 0.04992878417505067, 0.04969740057206077, 0.04947677313475582, 0.04927233147622113, 0.04904724374989493, 0.048821281959178925, 0.04857589849135902, 0.04834871856450883, 0.04813078775911015, 0.04789444702371453, 0.04765448757291035, 0.04737108787828547, 0.04712743749559659, 0.046872285768520115, 0.04661460361384969, 0.04634918588203876, 0.046096421295880936, 0.04581250261305326, 0.045536915142963603, 0.04523655992860667, 0.04492928296124688, 0.04459750351140824, 0.04427713948000831, 0.04394838573207127, 0.043609148013926, 0.04326016405424811, 0.04290286666762533, 0.04253334548534962, 0.04214907898622112, 0.04175888396942463, 0.041357435278607795, 0.04094536231922724, 0.040520624815577416, 0.04010283241469896, 0.03965175774682877, 0.03918943951977649, 0.03870697026148349, 0.038222207288724656, 0.037719601881492586, 0.0372098542395889, 0.03668669854294443, 0.036161965058222896, 0.03561005841346426, 0.03503816902168574, 0.03446063098392913, 0.03386915915572806, 0.03324225283883211, 0.032625268632575505, 0.03199710154549774, 0.031348744399509694, 0.030685329343432793, 0.03000432304664656, 0.029311211060085118, 0.028614105651617528, 0.027889413672765286, 0.02715032957934668, 0.026366876807645417, 0.02560267411220477, 0.02482657882053956, 0.02402972826545328, 0.023217390440881322, 0.02239229145903919, 0.021549126325487184, 0.02068508555696646, 0.01981301572668296, 0.01892595173955605, 0.018057409513210908, 0.017136620020087215, 0.01618179790303062, 0.015238289707223442, 0.0142807248056846, 0.013310928678626986, 0.012325385564975002, 0.011315983464204593, 0.010304666658954234, 0.009279428518459362, 0.008231937460368906, 0.007180598401503711, 0.00614544892253546, 0.005063124908381251, 0.003969303142233111