0.02631552540726971, 0.02599664862385405, 0.025732432783205462, 0.02558372219446978, 0.02534076930589436, 0.025116455466449708, 0.024830096508960387, 0.024644988421714187, 0.024486418699200763, 0.02431184664894248, 0.024143383595191022, 0.02402557426312838, 0.02386103534064687, 0.023705100962995624, 0.02355235987962526, 0.023404727575672555, 0.023136154970265273, 0.023013193805249903, 0.022893613916898467, 0.022764442697315184, 0.02263415330238303, 0.022579201518552184, 0.02243917485890181, 0.022325937884974754, 0.02219346536156525, 0.02206739542626544, 0.021865389532324475, 0.021762298796614798, 0.021626239365046422, 0.021531555841532192, 0.021437953934788895, 0.021458870226856556, 0.02135579293417071, 0.021154337577052474, 0.021084392836422237, 0.02101780531537723, 0.02103755703797931, 0.020969426243504626, 0.020787911603144475, 0.020755237958276187, 0.020725433862209187, 0.020809819680669337, 0.020774513128238224, 0.020772441692081776, 0.020757364174955287, 0.020748202955740192, 0.020758446588652453, 0.02078015142871698, 0.020698441620484048, 0.0207571159189528, 0.020883194276439265, 0.020944066404663366, 0.02101472954040332, 0.02104559281140629, 0.021142692621364055, 0.021249499999529367, 0.021361981744930307, 0.021483212031744293, 0.02160065314999368, 0.02174232638215136, 0.02197549084967868, 0.022125698368797117, 0.02229061045641254, 0.02243313645746992, 0.022631270226082634, 0.022795847951149466, 0.023023656251343175, 0.023261084031544366, 0.023562745662444772, 0.02381404381235461, 0.024114019312231838, 0.024388989051490825, 0.024679883725476668, 0.024949631888421017, 0.02527625169041815, 0.0255619503000981, 0.025921955549168214, 0.02629245254459287, 0.02665457264057025, 0.02705029688004443, 0.02756965037673709, 0.027973938225842754, 0.02839682622035148, 0.028740535058321987, 0.02921185520348639, 0.029688859841068543, 0.030185936033566566, 0.030695936600533075, 0.03130813986420164, 0.03183434146403614, 0.03242321932761686, 0.03298242701221116, 0.033562910426445706, 0.03413599087040166, 0.03476104533402788, 0.035408754528314955, 0.03606983636671813, 0.03674936823302097, 0.03733259390719634, 0.038063426199232864, 0.038901458534442275, 0.03964514652229851, 0.04040797451550079, 0.04120727373455533, 0.042006258783534575, 0.042810303681475544, 0.04365154744959961, 0.04451202417121967, 0.04541347441700642, 0.04630997774517615, 0.04723805923572029, 0.04817464518200738, 0.04913249538779524, 0.05010501314136716, 0.05110593081175751, 0.05199549388047787, 0.05305447092335931, 0.0541267677670519, 0.05529357042470878, 0.05638557073917689, 0.0574983361005667, 0.058631985886998375, 0.059786625349880954, 0.060897415440345284, 0.06210250660449192, 0.06342907062775761, 0.0646567708562439, 0.0659089650908462, 0.06705106176657348, 0.06836804851316562, 0.06969658492790835, 0.07104666312916186, 0.07241384620315951, 0.07385070007392203, 0.07524729779943941, 0.07668715854464676, 0.07812421445840889, 0.07958400102972747, 0.08097969647520822, 0.08249515757757715, 0.08416196493986418, 0.08569524378451185, 0.08725407565003108, 0.088822553083147, 0.0904322049434727, 0.09195843549856036, 0.09362631346797812, 0.09531001084300106, 0.09709007927958382, 0.09879662275179787, 0.10043375990640219, 0.10219440306371358, 0.10397068679489321, 0.10581493777297163, 0.10761700637504334, 0.10936280735848293, 0.11121318464144149, 0.11307831242233005, 0.11502564688243105, 0.11691279568817833, 0.1187587102066096, 0.12069186194442816, 0.12264019781837303, 0.124582180592456, 0.12656388589722337, 0.12863114526414765, 0.13063221191004748, 0.13265161888178484, 0.13477105230680805, 0.1368150834115994, 0.13885231723673103, 0.140941422732193, 0.14304806264339395, 0.14519962442888995, 0.14733557954751905, 0.14946907071058194, 0.1516406830407819, 0.15382660943680987, 0.15589643026642552, 0.1581257615870248, 0.16036269848945686, 0.16260320511249254, 0.16485029730021197, 0.16722118912445222, 0.1694676012121401, 0.1715958874761951, 0.17388594716518446, 0.17618085425014135, 0.17852203883554396, 0.18082226989859293, 0.18319956713411914, 0.18550637726537905, 0.18782429870017192, 0.1901675947804497, 0.19250320781489172, 0.19477899512523936, 0.19714134886722048, 0.19950752975261268, 0.20181020655221665, 0.20419178622911474, 0.20664621775316738, 0.20901723808864925, 0.2113919969140061, 0.21382622118428038, 0.2161997017254807, 0.21842909596488588, 0.22083096649556255, 0.22322776168460357, 0.2257041941273226, 0.22808096877789927, 0.23044069387518445, 0.23281952767649003, 0.2351963405436843, 0.23757928192499486, 0.23994942317058685, 0.24237707553888826, 0.2447327655395084, 0.24708755341827696, 0.24928451392731643, 0.2516539888869545, 0.25410595321062035, 0.2564382309497447, 0.2587636584479628, 0.2610859187579011, 0.26339516705599736, 0.2657218600622405, 0.2680101051322283, 0.27028996155006374, 0.27246534281245705, 0.2747379330294668, 0.27707440638527236, 0.2793044785132983, 0.28152278488123555, 0.28365496553089875, 0.2858567534256419, 0.2880187559375471, 0.2901868815198748, 0.2923353644962536, 0.29446848690860195, 0.29657693109556016, 0.29869810932571794, 0.30076272614211885, 0.3028088715387712, 0.30487706769210643, 0.30687926824458606, 0.3088310375550342, 0.31080048196422067, 0.3127483232176243, 0.31463068912681014, 0.31653904697952323, 0.3184216316042535, 0.3202782206637218, 0.32207608860842674, 0.3238839776526196, 0.32566317263554523, 0.32740925726611436, 0.32913129414749404, 0.3309127129149856, 0.33256461840141416, 0.3341917111505925, 0.3356934431993905, 0.33728059432519386, 0.33882156536881214, 0.3403439433726364, 0.34183229036023755, 0.34334069131566836, 0.34475400821118457, 0.3461339376297513, 0.34748447922970793, 0.3488024887341687, 0.35011988203355726, 0.3513670894574657, 0.3525668344676437, 0.3537505701468142, 0.35489966448939525, 0.3560611845196671, 0.3571333558159879, 0.3580810873652621, 0.35909682416699146, 0.3600722831763638, 0.361061584232839, 0.36194964755550124, 0.36272466029346456, 0.36354720006249497, 0.3643272128381962, 0.36504971643477824, 0.36574704977787925, 0.3664186930562447, 0.367027995238402, 0.367595554392731, 0.3681429571579988, 0.3686241053861617, 0.36910346412029804, 0.3694979172437636, 0.36985327568448206, 0.37019711710335557, 0.3704691046645838, 0.3705808509844364, 0.3707894528172776, 0.37095101308646283, 0.3710746626834753, 0.3711424045888155, 0.3711843146573301, 0.371159213185222, 0.3710903445747548, 0.37094526773154607, 0.3707930382071567, 0.3706125959010896, 0.37036739928623147, 0.37007817035473256, 0.36981208466139837, 0.36942654378660555, 0.3689988002863983, 0.3685329896404034, 0.36802615377618936, 0.36742170142884045, 0.3668390332256277, 0.3661897500290401, 0.3655201676952415, 0.36480497239574605, 0.3640943908168628, 0.36328298650578134, 0.36249062433394624, 0.36158841216979476, 0.360648023490441, 0.35958676478762847, 0.3585791689839032, 0.35763159028487995, 0.35652357693754744, 0.3553784349240808, 0.3542087564727222, 0.35298662950327203, 0.351601667833852, 0.35032057499236385, 0.3489947517700396, 0.3477268611594969, 0.34630147510729803, 0.34475964355722655, 0.3432716293103449, 0.3417427690765482, 0.34020626727975334, 0.3385938000477275, 0.33693579020023956, 0.3352510534185428, 0.33352977216751223, 0.3317291627376554, 0.3299417805345702, 0.32819702966441394, 0.3263254874447419, 0.3244226826282034, 0.32240435586653376, 0.3204502012940657, 0.3185667004945667, 0.3165293060078677, 0.31446435745405643, 0.312244190259295, 0.3101404482914266, 0.3080109469433004, 0.30583852923749666, 0.30363461162490907, 0.3014218802475453, 0.299155303076459, 0.2968224630381934, 0.2945069354687605, 0.2921633681248296, 0.2898966704451047, 0.28748689992186915, 0.2850794849041603, 0.2826284588024132, 0.28015954493105977, 0.27770306436483905, 0.2751946855482041, 0.2725102546296198, 0.26999034785927023, 0.26744565446007224, 0.2648711422147932, 0.2622819936644446, 0.2596739927571205, 0.25704381746783134, 0.2543952381575945, 0.2517683443672813, 0.2490813703984398, 0.2464225389898443, 0.24370507807597602, 0.24097829193589493, 0.2381949094070201, 0.23545657030629166, 0.23280478873332758, 0.23003330254355078, 0.22725811893913858, 0.2243623966210419, 0.22159478358595117, 0.2189579475892917, 0.21615393941002722, 0.21335027764168227, 0.21054477061384064, 0.20774208972008495, 0.20490736578723842, 0.20210988555145723, 0.19931157526318954, 0.19652822519622778, 0.19372827960599623, 0.1908610742634203, 0.18807445766956193, 0.1852871260807136, 0.18242667112497368, 0.17965070436851804, 0.17699882114517812, 0.174205717339908, 0.1714213646720635, 0.16863968013281513, 0.16587491286262998, 0.16302029366147378, 0.16028807839607892, 0.1575610913093358, 0.1548342119401476, 0.15212253029239448, 0.1494238973289056, 0.14673028601416613, 0.14404791785634732, 0.14142757239745987, 0.1387643359783026, 0.1361309511940296, 0.13350024374814698, 0.13088801636921654, 0.1282340130971512, 0.12566746343984064, 0.12313655827272257, 0.12060075282731275, 0.11808390913945069, 0.11564292493794745, 0.1131587401210411, 0.1106703455111633, 0.1082376810900717, 0.10582762030222405, 0.10350550042421425, 0.10113365793479213, 0.09875465608405713, 0.09644201910670411, 0.09415474470986743, 0.09189095250910202, 0.08965554383984409, 0.08737051753285302, 0.08519729464385421, 0.08304663549048656, 0.08103853404403269, 0.07892073909606437, 0.07669198558383936, 0.07465582137700058, 0.07264317075993781, 0.07068971454517162, 0.06872276911980091, 0.06687505551673396, 0.06495378040924399, 0.0630582518272155, 0.061206578929058425, 0.059388279848833866, 0.05752747735877333, 0.0557851652466018, 0.05403707218521382, 0.052357411173793625, 0.050705751203157436, 0.049139114413101315, 0.04753850616750656, 0.04595375060519198, 0.04442173798206106, 0.04292205634001178, 0.041543640158782494, 0.04009796252296929, 0.03867279478868237, 0.03730436798543698, 0.03597168576081903, 0.03454672914825464, 0.033300752214416876, 0.032242652136317905, 0.03103264946866378, 0.029860838239832464, 0.028672418161436553, 0.02758182932313165, 0.02653102181876006, 0.025506123696689805, 0.024514743917995307, 0.02356974128219739, 0.022643374026647664, 0.021627501144565894, 0.020784221349104702, 0.019967415032941912, 0.01928606891566495, 0.018510713487162742, 0.017728740875024306, 0.017027167682600975, 0.016356951987173657, 0.01565309597980634, 0.015053574846838379, 0.01449230195073044, 0.013946637439916133, 0.013429661627697763, 0.012997762540860653, 0.012531329650191818, 0.012166163182393035, 0.011754476572467526, 0.011377671992736486, 0.011019548762182503, 0.010711349382826963, 0.010310882640221874, 0.010079760518413841, 0.009871407266979168, 0.00966235542058723, 0.009503478318002287, 0.009513960401073647, 0.009381116073382925, 0.009279173063210275, 0.009083677378783732, 0.009055948965327864, 0.009062129939936167, 0.009074700258302548, 0.009109038160845365, 0.009290527552039525, 0.009352034471858242, 0.009394155101291006, 0.009516856651761725, 0.00966263597206983, 0.009835091992878603, 0.010024316543760571, 0.01029967980065881, 0.010522417204037682, 0.010768643692511619, 0.010896504866696717, 0.01120406749140257, 0.011578060225419724, 0.011903606958740574, 0.012244797384269987, 0.012700786341718518, 0.013059445868903589, 0.013351507779617867, 0.01375982621168567, 0.014180869786715426, 0.01461209832526828, 0.015057724164016767, 0.015525606337041942, 0.01599233475236641, 0.01647029513653621, 0.016974126957865873, 0.017471101979612196, 0.018011090042351956, 0.01852442132598329, 0.019048868936171907, 0.019696113413195254, 0.020226009901295913, 0.020718927156380417, 0.02128367526604238, 0.021857325576394394, 0.022369666820696518, 0.022967090423611385, 0.023681579440570494, 0.0242689939285344, 0.024864752615230003, 0.025478502730342356, 0.02608615531602202, 0.026781764697734432, 0.0273894441857424, 0.028005540749608898, 0.028535486549887256, 0.029175832351863065, 0.029932178062443294, 0.03055564588811684, 0.03118411443552036, 0.031744899986628834, 0.032388749172426394, 0.03313623566439448, 0.03376150306940327, 0.03438964796236853, 0.0349480942827276, 0.03558769024061469, 0.03638105036949678, 0.03699195251938594, 0.03760700816954097, 0.038235553312691205, 0.03885326099456542, 0.039424151293220154, 0.04004836625832066, 0.040668621395758185, 0.04128877289513055, 0.04189920380611569, 0.042483030680010456, 0.04308593087993271, 0.043682008956171005, 0.04441835573010072, 0.044981938243735836, 0.04553375732636082, 0.046100197587202, 0.04666482910698568, 0.04715540033901029, 0.04772307607177881, 0.04839532859138505, 0.048932888564688956, 0.049468915134606946, 0.05006967472043177, 0.050591785674702044, 0.051135637020612405, 0.05165416533848212, 0.05217208131795745, 0.0526884668064984, 0.053202551126302365, 0.05366824442931993, 0.05418167721644144, 0.05468868703215535, 0.05529970366298436, 0.05578009293732936, 0.05614363552430046, 0.05663812602016475, 0.05712475508753827, 0.05761264530195588, 0.058083845727941986, 0.05871353802521631, 0.059152317714161365, 0.05959508526032591, 0.05994350414331002, 0.060403907189938565, 0.06097953286461413, 0.061417543561376874, 0.06185902908521762, 0.06223627728003822, 0.06269148296276177, 0.06316875514705698, 0.06361776358192109, 0.06406699180313895, 0.0645555656253958, 0.06500085933333524, 0.06540591806210866, 0.06586277753623018, 0.0663203101747932, 0.06688504638059321, 0.06733196280985301, 0.06767010663405383, 0.06814767453584307, 0.0686262389193779, 0.06910446425652078, 0.06958775924986872, 0.07023234860562715, 0.07070304297244084, 0.07118745040216959, 0.07158332422878277, 0.0721065965307151, 0.07266485621731936, 0.07319895323928423, 0.07374284404879962, 0.07433811011515541, 0.07489779394148277, 0.07544073840314687, 0.07603158304349238, 0.07663476261790493, 0.07731793858553787, 0.07793902258345843, 0.07848272900025628, 0.07915164011003731, 0.0799783079557626, 0.08065536725634832, 0.08135526729733596, 0.0820366552074011, 0.08278686490566849, 0.08350964534476915, 0.08430666992583996, 0.08512209503221647, 0.08593732787046196, 0.08679466260959787, 0.08771521037459404, 0.08860792618003577, 0.08952497012079769, 0.09042797596510826, 0.0914003938283996, 0.09254827848040542, 0.09355040763555669, 0.09458686041234321, 0.09552960938678488, 0.09664999039970758, 0.09791810586367389, 0.0990772573236429, 0.10027177353104232, 0.10138043833611886, 0.1026610608652592, 0.10403322994865664, 0.10536467310812207, 0.10673075184077663, 0.10817532948149715, 0.10960694531475206, 0.1110016315956508, 0.11252072489558419, 0.11407494333840867, 0.11578211253251044, 0.11739461408277393, 0.11892816416114989, 0.12064499597774063, 0.12239919887753678, 0.12417666684652046, 0.12601060203076467, 0.12803335962830423, 0.1299283767500959, 0.1318731969689073, 0.13383720016484285, 0.135884596067385, 0.13797941306005942, 0.14012183089910094, 0.14231206514530628, 0.14457416987727398, 0.14685779069413074, 0.1491589095035357, 0.15154668070860877, 0.15398286767395142, 0.15637268603521365, 0.15891908123112086, 0.16150121023030825, 0.16413866928132895, 0.16682230019177532, 0.1696072624540564, 0.17237944691269202, 0.17526213672205612, 0.17813140599304148, 0.18105667499487835, 0.18391006706657503, 0.18696297839135484, 0.1900924213694931, 0.19323950172639376, 0.19643832270013292, 0.19976081380718064, 0.20305553977006674, 0.2063943630173616, 0.20980465563829717, 0.21327083976068098, 0.2167127348992166, 0.22030053113092213, 0.22400868823417608, 0.2276904724187522, 0.23142824589690608, 0.23522183324806142, 0.23907105655006486, 0.24291296733227397, 0.2468808471867799, 0.25090027666425935, 0.25493043480656585, 0.25905899673983657, 0.26318338582796463, 0.2674190920169022, 0.271702458859598, 0.27603632441715453, 0.2804166213019229, 0.2848614677011885, 0.2893389217923245, 0.29386707106595855, 0.2985605814819931, 0.30317541059053627, 0.3078535232967561, 0.31257995042582626, 0.3173612688023812, 0.32213361179017397, 0.3270294022223506, 0.33193662195989754, 0.33693305839309506, 0.3419747202707624, 0.3471306571583787, 0.35225332139318816, 0.35725113879294595, 0.36249136081196637, 0.36776830826172996, 0.373075974632382, 0.3784284928723816, 0.38384433578571325, 0.389268371799592, 0.3947312829413614, 0.40028032733539204, 0.40581381394584853, 0.4114243334513776, 0.4170326835622573, 0.4226814003430836, 0.4282112014899264, 0.43395680107870854, 0.4397279532098886, 0.4455293088330664, 0.45135821437743706, 0.4572426000658772, 0.463122308318036, 0.4690063687242043, 0.47494464653202884, 0.480908164666788, 0.4868291403072445, 0.4928494847691232, 0.49894962573766044, 0.5050003440458785, 0.5110728304815042, 0.51708376674195, 0.523206931293649, 0.5294369838045788, 0.5355755038707483, 0.5417319212104391, 0.5478246788824581, 0.5540225928572446, 0.5602727807203467, 0.5664823733776809, 0.5727016628108943, 0.5788276095571718, 0.5850751923218875, 0.591385531894175, 0.5976246123377371, 0.6038659976490031, 0.6100369953982236, 0.6162881857735764, 0.6225943830683526, 0.6288259467229025, 0.6350536770795048, 0.6412977836651879, 0.6475107961142128, 0.6537190168463224, 0.659916204424759, 0.6661032943321289, 0.6721704413235747, 0.6783461529724483, 0.6845744466033691, 0.6906981285129045, 0.6968034141173496, 0.7028758341643444, 0.7089415178214771, 0.7149360060963759, 0.720959169617741, 0.7269533057975724, 0.7329109003043597, 0.7388446833846205, 0.7446159883690489, 0.7504998398347701, 0.7563415048936115, 0.7621473166989136, 0.7679031437035813, 0.7736464938914323, 0.779312278988983, 0.7849355668053599, 0.7905736894559597, 0.7961012219520253, 0.8016228568943214, 0.8070586367239652, 0.8124503808652137, 0.8176662652818044, 0.8229805324511825, 0.8282767295661058, 0.8334712703298879, 0.8386094044790309, 0.8436531358218504, 0.8486794826510364, 0.8535787646748833, 0.8584880987745561, 0.8633297004601977, 0.8681095462774954, 0.8728132155318895, 0.8775364272336998, 0.8820896597735121, 0.8865769714495843, 0.8909967204888017, 0.895347313708471, 0.8995189868081939, 0.9037403581008395, 0.9078819964287438, 0.9119065630493667, 0.9158916870331598, 0.9197910237357436, 0.923608753141186, 0.9274673486462451, 0.9310993226798635, 0.9346525172333674, 0.9379737600276263, 0.9413836344608328, 0.9448659639418533, 0.9480707563741142, 0.9511922421257358, 0.9540945494874832, 0.957061450260697, 0.9600258467007894, 0.9627895303341206, 0.9654622060862242, 0.968040569439978, 0.9705281433947743, 0.9729040323638282, 0.9752041073456587, 0.9774069957276819, 0.9794600445849093, 0.9814730330186907, 0.9833535842758585, 0.9851659311225972, 0.9868740182078355, 0.9885709173355033, 0.9900586881519245, 0.991339097454359, 0.9926414146933271, 0.9938368860382707, 0.9949776131002747, 0.9959532511740494, 0.996756043750272, 0.9975328946720442, 0.9982015557291974, 0.9989051155516044, 0.9993400182469879, 0.9996212501569236, 0.9998628667249563, 1.0, 0.9999522374985842, 0.9998895892370846, 0.9997777293675952, 0.999488257269421, 0.9990932726064827, 0.9986294908697866, 0.9980186335664845, 0.997328022116186, 0.9965067764398049, 0.9955828728815052, 0.9944023437947898, 0.9932917513386883, 0.9920757429651242, 0.990741703739653, 0.989298425146509, 0.9878291450125475, 0.9861599122042569, 0.9844040326334412, 0.9825294865204985, 0.9805544390761028, 0.9784877249714437, 0.9763111755577891, 0.9739141257120113, 0.9715545976320747, 0.9690896118147043, 0.9665746627282504, 0.9638960117834446, 0.9611362264780842, 0.9582592709893518, 0.9552864185725101, 0.9522010281914686, 0.9490406270355691, 0.9457573443473493, 0.9424119252207959, 0.9389720257401728, 0.9354258316364112, 0.9318021183378582, 0.9280715322835446, 0.9242675443524276, 0.9203734782171212, 0.9164556164755856, 0.9123772178429975, 0.9082488457841381, 0.904002243789713, 0.8996766396996903, 0.8953224420975515, 0.8908345079345467, 0.8862248789316737, 0.8815952692982617, 0.8768899491934067, 0.8720775222152066, 0.8672281442234101, 0.8623760147066581, 0.8573707283963626, 0.8522982309232273, 0.8470728657752139, 0.8418797269845566, 0.8365698916910359, 0.8312464480296166, 0.8258548981086726, 0.820494810006467, 0.8149611820734357, 0.8092846631090437, 0.8036505593154968, 0.797957752553818, 0.7922493692699416, 0.786439924196093, 0.7805821333553, 0.7746729512611279, 0.7687165054368026, 0.7627836171651213, 0.7567285850152119, 0.7505613115444458, 0.7444393202686459, 0.7382767115088578, 0.7320514644852248, 0.7258159852205863, 0.7195222489214094, 0.7132182379243904, 0.7068802866796781, 0.7005429375485999, 0.6941391864121591, 0.6877029231988717, 0.6812496479656107, 0.674773374300874, 0.6683321192447759, 0.6618079575965921, 0.6552540159833288, 0.6487037836441596, 0.6421406676260137, 0.6355466795774395, 0.6289647575658516, 0.6224383365397416, 0.6158310612056854, 0.6092214304845343, 0.6024353207436265, 0.5958467756314003, 0.5894012869834815, 0.5827794498996642, 0.5761630575121316, 0.5695490714054946, 0.5629480273305343, 0.5562717626736843, 0.5497012022479318, 0.5431379798560602, 0.5366729848872058, 0.5301196011719436, 0.5235588128815511, 0.5170470937196122, 0.5105550084928114, 0.5040689227813048, 0.49762256773756186, 0.4911237853392203, 0.4847352866550401, 0.47836909556605345, 0.47210099353284685, 0.46577659576743713, 0.4595130683350247, 0.45325191320714436, 0.44702773392224104, 0.44071393276469767, 0.43458317188744394, 0.4285851418076843, 0.4225103130879336, 0.41647848566486073, 0.4103912546597133, 0.4044614853005455, 0.3986959635169604, 0.3928343036853846, 0.3870242420265433, 0.38117779691091913, 0.37548445670730407, 0.3697794989796269, 0.36419334504857404, 0.35865581343177577, 0.3532120964433214, 0.34777192894421965, 0.34233838968752894, 0.3370185503748757, 0.33175470628384574, 0.32655486364096536, 0.32140663112310225, 0.3164445463234871, 0.31140286235059034, 0.3064311508035275, 0.3014298984775904, 0.29661092695013674, 0.2918393532194281, 0.28715301336802745, 0.2825323906902243, 0.2780824184349661, 0.27358315748137507, 0.2691627029225744, 0.26481186589838007, 0.26053582842773, 0.25631301544135254, 0.2521895575704009, 0.24802745162781256, 0.24406635952851238, 0.24017352446045684, 0.2363393610442909, 0.2325879979854074, 0.22892712274305907, 0.2253163031444739, 0.221885510887038, 0.2184098565271247, 0.21501531010549313, 0.21162575427884928, 0.20840195015080992, 0.20531463160113922, 0.20223528471099958, 0.1992358770781251, 0.1962360936028679, 0.19340600252604342, 0.19067017202567663, 0.18798762035593602, 0.1853817455084496, 0.1828721604948824, 0.1804175291731104, 0.17791972136626494, 0.1756363077606887, 0.17342377060534706, 0.17142139286566907, 0.1693352412225446, 0.1672365412962125, 0.16532244584051425, 0.16348217281089986, 0.16171143843529354, 0.1600194165891492, 0.1583640926257792, 0.15682357447265113, 0.15535415256989163, 0.1540446021898397, 0.1527061687787945, 0.1514955934594395, 0.15030148481368297, 0.14918435271192343, 0.148038985964812, 0.147085039597741, 0.14629368601589166, 0.14546209959983403, 0.14470251548999188, 0.14390551061121176, 0.1433000405351787, 0.14279812609849832, 0.1423120947527758, 0.14189026747715777, 0.1414756552220609, 0.1411871750767023, 0.14097049379274895, 0.14079764987005056, 0.1406835713391794, 0.14063414294455268, 0.14063489317456082, 0.1407036063153228, 0.1408164547510523, 0.1409853829194809, 0.14129815547604238, 0.1415650800125499, 0.14187709552583078, 0.14226007170255958, 0.1426969791978112, 0.14318631469651166, 0.14372661984076707, 0.1441909429305595, 0.14484483819653635, 0.1455385018786622, 0.14626295828472236, 0.14703619626074796, 0.1479903119576676, 0.1488210195141037, 0.14969663130509145, 0.15051358338689558, 0.15148642146930547, 0.15243903983251902, 0.15348567359068138, 0.15456146243733807, 0.15566808816841976, 0.15680037168126434, 0.1580078267733938, 0.1591884456003325, 0.160397715064596, 0.16161056332605603, 0.16287634729992814, 0.16417862543358397, 0.1654886985708635, 0.16682081333836352, 0.16811313075089254, 0.16949327439948367, 0.17096624803036153, 0.1723656023270135, 0.17378265328169504, 0.17524403120418428, 0.17668842852373812, 0.17803079450213397, 0.17951800960497846, 0.18101026651936672, 0.182554574701061, 0.18404900428560714, 0.18553180872011601, 0.18703862852718822, 0.1885478081318441, 0.1901773477232602, 0.19167306192445507, 0.19315517749004077, 0.19466308498596605, 0.19617183122760004, 0.19756288310132067, 0.19908318725938853, 0.20066660750598828, 0.20215615436676254, 0.20363828483439678, 0.20517455841619936, 0.2066303289606488, 0.20808300198891194, 0.20952174767514686, 0.21095014927991704, 0.21229529454392285, 0.2137076536811474, 0.21510142873986085, 0.21647592648798633, 0.2178304447313815, 0.2190625491372146, 0.22038783693677205, 0.2217004443825897, 0.22296825190245262, 0.22420917105224186, 0.2254251490267889, 0.22661130136640917, 0.22779798558471295, 0.22892496570915088, 0.23002507033658093, 0.2312231284584898, 0.23225149890854732, 0.23319300164673856, 0.23418400578625337, 0.23514615770873015, 0.23597464366088772, 0.23688950189682959, 0.23787959377251702, 0.23870564413102657, 0.23950073324151439, 0.24020112343442412, 0.2409393787369715, 0.24170969077747861, 0.24236450355023273, 0.242985433503876, 0.24361708427520096, 0.24416202563534153, 0.24450230520764107, 0.24500048784675205, 0.2454534512475875, 0.245967793249691, 0.24631845642163602, 0.24662474713298335, 0.2468999394504014, 0.24713587085833694, 0.24737977214010734, 0.24753004376952276, 0.24764051963164804, 0.24771514432111952, 0.24775078219546157, 0.2476170883065255, 0.2475897900648517, 0.24754310231430707, 0.24741794349260998, 0.2472482610684478, 0.247027943572519, 0.24677114960654653, 0.2465094853911828, 0.24616046558822433, 0.24577049529563183, 0.2453049470380151, 0.24483748509172684, 0.24441161778425238, 0.24384820433169685, 0.24324740598624628, 0.24260454928506975, 0.24192857375592938, 0.24113625188734397, 0.24039318106979418, 0.23960719051049006, 0.238794082649569, 0.23792226615733564, 0.23707086256719978, 0.23611146792135668, 0.23511621070770214, 0.2340266306473184, 0.23296703306994848, 0.23180564507598167, 0.2306765593998013, 0.22950616644850746, 0.22828259374761747, 0.22703450210387288, 0.22578431583384137, 0.22445483357669055, 0.22309054696222536, 0.2217267189314589, 0.22029033637863987, 0.21875587502777577, 0.21726634574681927, 0.21574277402959452, 0.2142142362696323, 0.2126218035266001, 0.21109917937207587, 0.2094352700314748, 0.2076640220377029, 0.2059647537583414, 0.20423757613622043, 0.20259141325104804, 0.20079685631330513, 0.1988938558672264, 0.19707095992613147, 0.1952231931150796, 0.19329722587107573, 0.19140890171658118, 0.1894647204880064, 0.1875303421840042, 0.1855711100135832, 0.18372908168396657, 0.18170640578981803, 0.17965337400952408, 0.17760685783004418, 0.17554652331622492, 0.17348355474592955, 0.17139535917647128, 0.16919131453247724, 0.16709276372355614, 0.1649773316460011, 0.16282906476376668, 0.16068608091721187, 0.1585507895171897, 0.15637849551927416, 0.1541960578337325, 0.1521127260906639, 0.14989938141071654, 0.14768280568986858, 0.14546767792140228, 0.14325160004734092, 0.14093959520156524, 0.13873448936721733, 0.13649157979467252, 0.13428109994568918, 0.13206580641289623, 0.12985788565265288, 0.12763561622778238, 0.12553638706402276, 0.12329893670498035, 0.1210701849189487, 0.11875056699796833, 0.11655187327255362, 0.11435652398304422, 0.11216554351838887, 0.10997991693415587, 0.1078027569862619, 0.10563037547182784, 0.10343591293542631, 0.10128463736799909, 0.09914152447313651, 0.09699677976264286, 0.09487438879339133, 0.0927581494764179, 0.0906582317865674, 0.0885704287610262, 0.08649563817833336, 0.08443470829239688, 0.08241224977067244, 0.08037839713687613, 0.07836202677996915, 0.07636796240204566, 0.07438748494174728, 0.07252358643597565, 0.07056959304226709, 0.06864111086588003, 0.06662090605767616, 0.06475724072046589, 0.06302426486036188, 0.061183482367879405, 0.05936876233758359, 0.057527982921162665, 0.055771491201463984, 0.05402915103638117, 0.05231979010897537, 0.05063358172718018, 0.04890823200201523, 0.04727766454215709, 0.04570704906589622, 0.04411446515151047, 0.04254682501480698, 0.04110630732925191, 0.039577023810807334, 0.037960625351609115, 0.0365097927128146, 0.03508337880007395, 0.033783756268592334, 0.03239520038708848, 0.031012565691780233, 0.02969074187705636, 0.02839872892016216, 0.027030441476919666, 0.02581137825907141, 0.024707020210441376, 0.023524920095499984, 0.022373328753017875, 0.02129546299880868, 0.020199210755661518, 0.019064277279351942, 0.018042134734494144, 0.0170479570626513, 0.016030048142127728, 0.015099074584648686, 0.014198109798515903, 0.013318503699549447, 0.012465844772856305, 0.01167295483782746, 0.010871086865442107, 0.010181105532361649, 0.009428029133534872, 0.008709007212826626, 0.00797130444258353, 0.007324651664682687, 0.006665829101086305, 0.006082080731234043, 0.005524567607320444, 0.005062663351592784, 0.0045491567298624825, 0.003988053787313542, 0.0035444609417914406, 0.003125687288393753, 0.002757808108018429, 0.0023856426405840024, 0.0021394627133218317, 0.0018073011638411588, 0.0015066204327269152, 0.001257974819385654, 0.00101433633043412, 0.0007635778234306843, 0.0005829061805383697, 0.00042785884986792737, 0.0003454697437853714, 0.000233933155471034, 0.00017067309474769936, 0.0001087763144398844, 7.30142219694e-05, 3.431115949146512e-05, 5.1632319158267024e-05, 0.0, 7.219597149910016e-05, 0.00016022512641660102, 0.00026433929354054104, 0.00038471424658645165, 0.0006578107634132401, 0.0007937208255231712, 0.0009536756420083806, 0.001197111733322062, 0.001394084355656084, 0.0014702472445674015, 0.001732543298363148, 0.0020081930333239436, 0.0024616699042620946, 0.0027431292128858734, 0.0029928771968313656, 0.003324507027692122, 0.003672693736861506, 0.004017170628451471, 0.004398621255786816, 0.004806302459903325, 0.005212101406349796, 0.005630891312380869, 0.006094562226865195, 0.00653352680419873, 0.007007290249747706, 0.007469055464769598, 0.007943692512456817, 0.008495276971689902, 0.008984942651787373, 0.009456268259227156, 0.009977075776929006, 0.010507867329086408, 0.011086854062917501, 0.011630500721618644, 0.012192892262741204, 0.012754706644735228, 0.013325347233947954, 0.014066307268126748, 0.014631646133383547, 0.01510440975166217, 0.015712772825911527, 0.016327030118853097, 0.017039580418843566, 0.017651917685175694, 0.018362293340239318, 0.018980768475877766, 0.019611180092326562, 0.020275646273097317, 0.020922051868576732, 0.02146469583004461, 0.022141563648598258, 0.022818391829517958, 0.02352969488641802, 0.02420174136495053, 0.024964146957480695, 0.025627876125162173, 0.026297577221446825, 0.026933329495343623, 0.027617138539892686, 0.02839527589080169, 0.029069527253030754, 0.02974968946703826, 0.03034605935438955, 0.031046502366289395, 0.031879556375878866, 0.03255997960922932, 0.033255230287344575, 0.03394593825863005, 0.03464151878041838, 0.035319559848308674, 0.03602543663427294, 0.03676114969437586, 0.0374665968753494, 0.038174844706263894, 0.0388314083782551, 0.039551050425309174, 0.04028903618207638, 0.0410042149431, 0.04171989459278347, 0.04257904019725585, 0.043278032047517706, 0.04391019911743601, 0.04463564824513564, 0.04536397763435129, 0.04612109013166066, 0.04685173956678626, 0.04767757215811322, 0.048405150458957234, 0.049141899410978324, 0.04974855307427468, 0.05051905909990402, 0.051403844767557424, 0.05215973568809513, 0.05292310208968081, 0.053667735584106945, 0.0544487143120819, 0.05520927863475775, 0.05600486157040203, 0.05680498985573996, 0.05763395307968299, 0.058441609592850545, 0.05932586044484707, 0.06013972748446932, 0.06096543821466893, 0.06181144082250478, 0.06265920687978907, 0.06349080032667995, 0.0643660188322279, 0.06525163068073507, 0.06614147790942917, 0.0670497352348997, 0.06792366898844966, 0.06886040330842859, 0.06980667921209281, 0.07090188584115104, 0.0718523083784872, 0.0728095761326009, 0.07380097199828221, 0.07481092199148233, 0.07581993738553003, 0.07686951021550686, 0.07798869248390834, 0.0790673910767203, 0.08016743640468935, 0.08130399873524194, 0.08244496358712343, 0.08351535566310196, 0.08471319707984434, 0.08592862295264911, 0.08724704978088921, 0.08848995630366707, 0.08960659606907999, 0.0909193654651616, 0.09224938522863373, 0.09374971216169445, 0.09509962332907866, 0.09647746419345449, 0.0978878760797798, 0.09932840854789808, 0.10068453942250093, 0.10220043740525307, 0.1038489578217209, 0.10540123570137835, 0.10698642229500961, 0.10853982315239744, 0.11019978923299029, 0.11190933275575006, 0.11362790512315053, 0.1153793789624536, 0.11722500406273391, 0.11903655012981276, 0.12087765071061576, 0.12276684279697773, 0.12469406565663482, 0.12666610315294183, 0.12866946894344317, 0.13070785951331101, 0.13279079637101093, 0.13491350247270215, 0.1369681575260087, 0.13918529141368757, 0.14157154131321045, 0.14384285819567894, 0.14615912650742072, 0.14847275402156362, 0.1508850643085345, 0.15335717615886788, 0.15585280171308938, 0.15839293137871743, 0.16089134908225855, 0.16353250856408394, 0.16627282489363676, 0.168989083017611, 0.17175134720303728, 0.17454703564850632, 0.17740414767524498, 0.1802427612838473, 0.1832013988916386, 0.1862036947797409, 0.1893414623427517, 0.1924222178588426, 0.19546977948582514, 0.19866355963972163, 0.20190367500948422, 0.20520806958166707, 0.20854048031891367, 0.2119283646820031, 0.2153582023759038, 0.21883791813305836, 0.2223741610927773, 0.22595325090463805, 0.2294769110077682, 0.23317067759318244, 0.23690913564946836, 0.24077103514680995, 0.2445913986008569, 0.2483893732345546, 0.2523213031045119, 0.25630001047154044, 0.2603388999191385, 0.26441068470805856, 0.2685958969182417, 0.27275652872984196, 0.2769693713632953, 0.2811451179989619, 0.2854719141666966, 0.28988107604532953, 0.29429454784874975, 0.2987559451609622, 0.30321955083499413, 0.30778171760003936, 0.31246845041354704, 0.31710947094169256, 0.3217994178188069, 0.32648124504459514, 0.3312738602859948, 0.3360234030793995, 0.3409136933929227, 0.34584202915194695, 0.35081090338642373, 0.3558159140574733, 0.3608120873490563, 0.36590063301250514, 0.3710251029063147, 0.37634148596457817, 0.3815184374098707, 0.3865843160595834, 0.3918690442145163, 0.39718694789655706, 0.402615857531034, 0.40798989134517283, 0.41333163536012535, 0.41878735247649446, 0.42427412030172484, 0.4298737168138102, 0.4354107089262115, 0.44094711644961165, 0.4465552431816814, 0.45219282802556876, 0.4578112458074972, 0.4635107239456429, 0.4691430101277458, 0.4749007315512308, 0.4806756545907148, 0.4865867573982174, 0.4923807041736596, 0.49810269990327777, 0.5039538396560674, 0.509820107791067, 0.5157181963437205, 0.5216105769848135, 0.5275429102678715, 0.5334589696993889, 0.5393884241279008, 0.5452823611191567, 0.5512407237190861, 0.5571279648421498, 0.5631088203723157, 0.569090140955665, 0.5750433555340841, 0.581027735076165, 0.5869985107911757, 0.5929781444277256, 0.5989531678104871, 0.6049293817249295, 0.610892178454206, 0.6168851330474755, 0.6228289686060107, 0.6287769110996699, 0.6347044831091638, 0.6406229978889814, 0.6465005675543338, 0.6524000364603014, 0.6582125578810435, 0.6640886640461192, 0.6699425162983336, 0.6757776163626217, 0.6815838392621679, 0.687304698367297, 0.6930679479812272, 0.6988007486471736, 0.7046560294840362, 0.7103061735502832, 0.7158843455116779, 0.7214895358090069, 0.72706325320132, 0.7324890601115518, 0.7380091767770696, 0.7434494700436604, 0.7488874353520548, 0.7542787206588667, 0.7596854625183346, 0.7649734502918292, 0.7701576307065545, 0.7753608354810617, 0.7805125115352589, 0.7856051777231502, 0.7906515873007696, 0.7956169783163479, 0.8005554709739657, 0.805435194344553, 0.8103200895851569, 0.8150710350147277, 0.8197702062489586, 0.8244021283002877, 0.8289728398490102, 0.8334200749664806, 0.8378710712301657, 0.8422698828724359, 0.8465786163508416, 0.8508166455387997, 0.8550519668138342, 0.8591360410373043, 0.8629958419757299, 0.8669563270680758, 0.8708340373171204, 0.874695639099247, 0.8783979437248929, 0.8820651571309234, 0.885599435611826, 0.8890533462877344, 0.8923539312692127, 0.8956515956659102, 0.89892106275859, 0.9020326792513191, 0.9050573057241555, 0.9080087869639001, 0.9108536517569092, 0.9135783101638264, 0.9162459159409442, 0.9188194175819113, 0.921230802423986, 0.9236218514379644, 0.9259924341193545, 0.9281719593049271, 0.9302547840193948, 0.9322485441315577, 0.9341338608352494, 0.9359243819306816, 0.9376099628696581, 0.9391948385385667, 0.940595897486292, 0.9419872197070167, 0.9433443753349318, 0.9445108374363436, 0.9455735493600292, 0.9463932939661032, 0.9472639771944189, 0.9480774682921556, 0.9487146692830295, 0.9492425986782024, 0.949654702879814, 0.9499647155930449, 0.9501670410409595, 0.9502570434186542, 0.9502372423381712, 0.9500534691501457, 0.9498207273947674, 0.9496135002433501, 0.9491376317788638, 0.948557285155973, 0.9477959176896559, 0.9470139352229422, 0.946136334253141, 0.9451310339922145, 0.9440161042650228, 0.9427439800244354, 0.9414160005170134, 0.9399240349326214, 0.9383790812435067, 0.9367202404224243, 0.9349939026007991, 0.9331043010533069, 0.9311016931847681, 0.9289957170879434, 0.9267817015683386, 0.9244168586264723, 0.9219937494717355, 0.9195288098522882, 0.916880262899314, 0.9141283271798277, 0.911236527065336, 0.9082834770164009, 0.9052044497130641, 0.9020462441000706, 0.8987840538898613, 0.8954188570322497, 0.8919516270584408, 0.8884612539538759, 0.8847830278252332, 0.8810100720525857, 0.8771102855432193, 0.8731531571526734, 0.8691830769801117, 0.865026030680242, 0.8607801965085756, 0.8564025842973315, 0.8519856598459028, 0.8474636128733488, 0.8428696411786349, 0.838186861605723, 0.8334965597558842, 0.8286296830688428, 0.823558829463389, 0.818546985276703, 0.8134490176113108, 0.8083555131971322, 0.8030795897102655, 0.7976024401569075, 0.7921920521376222, 0.7867010925563929, 0.781216160088241, 0.7755598829619945, 0.769831978292598, 0.7640383790801132, 0.7581778947048223, 0.752314714070373, 0.746316822514576, 0.740229628747744, 0.7341185749008637, 0.7279489265269545, 0.7217199431056294, 0.7154376955126647, 0.7089885867137714, 0.7026135044061498, 0.6961809508093272, 0.6898038375483855, 0.6832498867831891, 0.6766411773339346, 0.6700021319157543, 0.6633214124137535, 0.6566309106692984, 0.6498678140351937, 0.6430631103793139, 0.636232036557413, 0.6293683969335685, 0.6224759389661594, 0.6155516803096767, 0.6084699716803366, 0.6015086206924938, 0.594515750692337, 0.587504944197425, 0.580455841827764, 0.573450890514321, 0.5663497945847819, 0.5592342062839473, 0.5521101598092655, 0.5449701653266305, 0.5378816673726625, 0.5307174954449281, 0.5235510222703699, 0.5162449579078985, 0.5090951519658877, 0.5019846066341227, 0.4948191966491277, 0.4876551052449252, 0.4804250582702771, 0.4732782862248926, 0.46626034376438114, 0.4591067474780929, 0.4519683077917866, 0.4447791942818532, 0.4376833916097512, 0.4305682771012959, 0.4235094144293628, 0.4164677406679481, 0.40946270321039313, 0.40245954808673223, 0.39557382163502225, 0.3886094276915125, 0.38167819451811846, 0.374752973928525, 0.36789464623111956, 0.3610970132225513, 0.35430622180346233, 0.34743749758133574, 0.3407405561070977, 0.33407840307122183, 0.32747486496925343, 0.3208860048192247, 0.3144151678543836, 0.3079030116485396, 0.30144080372363224, 0.29502091097320343, 0.28866279331908573, 0.2822512304314834, 0.2760128961667834, 0.26982353601803294, 0.26378688793255656, 0.25768854464391244, 0.25152074420329296, 0.24556052188891747, 0.2396552146265358, 0.23390634273661842, 0.22810403303835108, 0.22225519720184345, 0.21659997497255554, 0.21100608973806312, 0.20561810900449198, 0.200133879073006, 0.19465023379844507, 0.18932390256289633, 0.1840681613290747, 0.17895103820514865, 0.17383075516419777, 0.1687637079977948, 0.1638008080487253, 0.15891421844442874, 0.15412611811226776, 0.14939101586099224, 0.14471339013720247, 0.14013961002948772, 0.1356444371891386, 0.1310963826418722, 0.1267767095802258, 0.12266830574381339, 0.11847815514151569, 0.114371446613796, 0.11036994928001936, 0.106427770956414, 0.10256414769897541, 0.09879284639205181, 0.09510616634239887, 0.09144138403810664, 0.0879320135018764, 0.08441080517539942, 0.08107620375702125, 0.07781862257051389, 0.07465436368354408, 0.07155220454896218, 0.0685417321020294, 0.06560052705774015, 0.06274187046785029, 0.05994874296436868, 0.057258176069302946, 0.05476454039237236, 0.05222411247489833, 0.04977266390045338, 0.0472794517310866, 0.04501977938603577, 0.042878232302332446, 0.04077223742048539, 0.03874803061114308, 0.036757750978280525, 0.03490235505765301, 0.033127354501266686, 0.03142814005188914, 0.029807173641690245, 0.028268585199663514, 0.026802895767208304, 0.02551876992023229, 0.02419485055028851, 0.022953495231749294, 0.02175436164795925, 0.020678965037486063, 0.019636669010466092, 0.018718598780390217, 0.017872640321661273, 0.01707440573999494, 0.016373893125860087, 0.015776904555043464, 0.015209277388090853, 0.014711375162155784, 0.014310409034297441, 0.013945602432685113, 0.013547538420860325, 0.01333131829997933, 0.013175444743800769, 0.013137978629763871, 0.013094182306631313, 0.013084463461944596, 0.013167540660722631, 0.013309012325688829, 0.01359020708099577, 0.013835275006757358, 0.01401278071332987, 0.014392568975581532, 0.01482198284299417, 0.015287458209392283, 0.015815942024618466, 0.016451930743423028, 0.01706583926018035, 0.017728534634924152, 0.018423508074179126, 0.019181612728576377, 0.020067974214293724, 0.020901849393784887, 0.021781789568432314, 0.022601941609971483, 0.02358132522203047, 0.02458443100219579, 0.025633329812141982, 0.0267142301536462, 0.027910587232804904, 0.029041899467942243, 0.03022208046506672, 0.0314171351566453, 0.032643247400679386, 0.03390076925080739, 0.0351833396169241, 0.036355453051047294, 0.03770537605609724, 0.03907021938053091, 0.04055552930194899, 0.0419351805675377, 0.043379340367915534, 0.04478972594275859, 0.04621848726034987, 0.04764637615427465, 0.04910835299922768, 0.05053886421401477, 0.05202836855954484, 0.05352412726836098, 0.05497735983423814, 0.05648814459706878, 0.057966525349733504, 0.05948073188386739, 0.060991513331121204, 0.06259562195210927, 0.06408523359291318, 0.06557257942310908, 0.06706064117084232, 0.06854528660331355, 0.06994059517959124, 0.07142458940084848, 0.07301938559901154, 0.0744619304117996, 0.0758973475108019, 0.07732816433460414, 0.07874346141727993, 0.08013373714528176, 0.08152501110899663, 0.0829004052101076, 0.08421311917925449, 0.08555850463084659, 0.08684476674099013, 0.0881493038000991, 0.08942775825514777, 0.09062763264700717, 0.09185879423473074, 0.09304837173809775, 0.09421914575343066, 0.09535801326472845, 0.09660753891258363, 0.0976636157141398, 0.0987012558095643, 0.09970504811879805, 0.10068116862031115, 0.10157621250038293, 0.1024992714189903, 0.10338547592347838, 0.10423865055024596, 0.10505548271988398, 0.10572920747359325, 0.1064846523590606, 0.1072152147393675, 0.10787968068308956, 0.1085012095962139, 0.10919657173847976, 0.10971708975906165, 0.11011638060530199, 0.1105727824958502, 0.11098541304683156, 0.11132150897611247, 0.11164980445528519, 0.11192078308644483, 0.11215741740271823, 0.11234684268730767, 0.11260593198689382, 0.11268612644374414, 0.11271692871416668, 0.11271574015562087, 0.1126714193466121, 0.11262868176481468, 0.11249022398112851, 0.1123070550245813, 0.11208290895984513, 0.11179499237912639, 0.11148409451181199, 0.11112664274237109, 0.11059248222154597, 0.11015752399776331, 0.10970914687457295, 0.10916082750601794, 0.10856203803383441, 0.10799546516193277, 0.10728663872827181, 0.10646612768158081, 0.10567633543536013, 0.10483771970081006, 0.10397016804242717, 0.10303266309939191