0.02953495540073951, 0.02926264425276465, 0.029036501450372305, 0.028788237026153716, 0.028643288098256687, 0.02849814618944114, 0.028403257511459414, 0.02832513339852923, 0.028297341417366655, 0.028240784481939576, 0.028221948199686705, 0.028184765211008427, 0.02815797829715736, 0.02814341642307293, 0.028133214324256858, 0.028109041261948266, 0.028115503655350364, 0.028127002343163645, 0.02813812032210736, 0.028160196268415507, 0.028168992279635225, 0.02820323406646096, 0.02824187782837956, 0.028226961466794508, 0.02828347393695042, 0.02836941689646642, 0.028429319238827293, 0.028494596987223172, 0.028568278637800155, 0.02864984996719182, 0.028717699623425953, 0.028820032718388334, 0.028901320250191823, 0.029025726908952103, 0.029158806221371947, 0.029331313513833168, 0.02948080606314096, 0.02961780309554253, 0.02979711768960317, 0.029989052779541708, 0.030205982834838222, 0.030423647496319865, 0.030641567935702448, 0.030891853375218225, 0.031157305918120663, 0.031393756408331086, 0.031696685029012746, 0.032015824588254936, 0.03234742152439274, 0.03269469192712695, 0.032988045946746425, 0.03337734546803556, 0.03382263179752357, 0.034234460902614304, 0.034664083390900054, 0.035092844370267884, 0.035561911310943765, 0.03609054095275319, 0.03659104740360676, 0.03711298037483042, 0.037610711522355234, 0.03818163038677445, 0.03879730222939006, 0.039403941006631714, 0.040032205075215606, 0.040628070957925706, 0.04130713131452417, 0.04196822276179133, 0.0426911802760432, 0.04343258408039286, 0.04426137865996928, 0.045033576052850216, 0.045813381951610006, 0.04663709599395375, 0.04748471065354557, 0.048265011001670036, 0.04917280114617853, 0.05012143327419454, 0.0510666627315774, 0.052034553626507565, 0.05303745824990182, 0.054051091790137666, 0.05509622586123825, 0.056159703515397924, 0.057249462998700346, 0.05830624936650604, 0.05945704214525112, 0.06069019455250865, 0.06188205430723878, 0.06310250432772817, 0.06436660022501291, 0.06564283958011352, 0.06685326394206871, 0.06820151322345273, 0.06957444024959444, 0.07095907276121122, 0.07238559309595598, 0.07388728311245521, 0.07536083373863756, 0.07686478418840094, 0.07838126158691161, 0.07994892059701454, 0.08153699001877045, 0.08316615237160242, 0.0848253823138225, 0.08650651800490837, 0.08822797185323877, 0.08994805247226258, 0.09173494878060678, 0.09355121422128997, 0.09540800504311774, 0.09728315854322278, 0.09921199692883663, 0.10114728401024413, 0.10311566959492915, 0.10512142920839287, 0.10715552776606792, 0.109248534252434, 0.11134612435805093, 0.11347845268916065, 0.11557187305269062, 0.11778224489115065, 0.12007894342476598, 0.1223424810905349, 0.12463987377967051, 0.12689010867632244, 0.12926494318291645, 0.1317164848345851, 0.13414343720507083, 0.13660282691539338, 0.13903929686753602, 0.14157041495417474, 0.1442104716879071, 0.1467901612793883, 0.149404110239291, 0.15204018757230353, 0.15472286603008895, 0.15737621490137102, 0.16013114855190191, 0.16291441791902175, 0.16578367598983357, 0.16861691607739618, 0.1714172649186431, 0.1743222790035233, 0.17725479880755984, 0.1801787603324418, 0.1831711175287946, 0.18625504097759232, 0.18929050922091992, 0.19235566070765267, 0.19543833089441265, 0.1985629358856288, 0.20174388937351503, 0.20491973478640374, 0.20812404089236472, 0.21130723062318724, 0.21457272997374688, 0.21788864881465567, 0.22119822122373334, 0.2245326418180421, 0.22781587532145747, 0.23120801307193012, 0.23468304074147067, 0.2381053082362524, 0.24155028459960767, 0.24502375266811552, 0.24851153383545116, 0.2519258865760845, 0.25546746399929815, 0.2590236336820735, 0.2625923557727837, 0.26617814538143814, 0.2698528542613687, 0.27345797768649593, 0.2770813399389351, 0.28071778481793747, 0.2843754722946681, 0.2879591354879344, 0.291657954637191, 0.29536542926869996, 0.29915591578703044, 0.3028708743404092, 0.3066076642678608, 0.31034498351447976, 0.31409322033527554, 0.31780243882546355, 0.32157570931524115, 0.3253339828744421, 0.32911967561630134, 0.3329082853392945, 0.336668490148456, 0.3404653663343458, 0.34430973207332966, 0.3480994293892182, 0.3518906335423301, 0.3556867182797581, 0.35947774527389714, 0.36320083021460514, 0.3669975440275548, 0.37078769189657623, 0.3746644816913903, 0.3784283780182929, 0.38209487178571383, 0.385863943688426, 0.38962233276659947, 0.3933631561874762, 0.39709942722047525, 0.4009048970792803, 0.4046047782425667, 0.40829527860235165, 0.4119612100926692, 0.41563066365576745, 0.4192434574733189, 0.42288894453328624, 0.4265156945287256, 0.4300857234181504, 0.43367742520524755, 0.4372576696862264, 0.4408010497295606, 0.44432082274297885, 0.4478460500197273, 0.45131263603497923, 0.45473799709581497, 0.45815727448315907, 0.4615492959339313, 0.46492699037379825, 0.4682600412492656, 0.47153409906111243, 0.47481146697257776, 0.47809312815254573, 0.4812991331998491, 0.4844727141593035, 0.4875936087008691, 0.49070144208637234, 0.4938054770774434, 0.4968346929549309, 0.4998271909327527, 0.5027371319447944, 0.505658397612738, 0.5085498252871692, 0.5113835670854069, 0.5141739997361293, 0.5169107140190788, 0.5196132350072875, 0.5222396239136562, 0.5248524679818611, 0.5274157876015587, 0.5299311901123324, 0.5323935994406456, 0.534764528482644, 0.5371293159732704, 0.5394395210018363, 0.5417405594166104, 0.5439347840151149, 0.5461003322967057, 0.5481843478422422, 0.5502149485812315, 0.5521921998783353, 0.5541128804183559, 0.5559379663940006, 0.5577502597135742, 0.5595023556313008, 0.5612331051583253, 0.5628582963042906, 0.5643601281205453, 0.5658734871839433, 0.5673220965483593, 0.5686844335947848, 0.5700054651572306, 0.5712639892128824, 0.5724508124451723, 0.5735707858902337, 0.5746821724890184, 0.5756602930546951, 0.5765740555693987, 0.5774226968939166, 0.5782055043909523, 0.5789218136990427, 0.5795710066618092, 0.5801716575379536, 0.5806825178631795, 0.5811257411151509, 0.5814081732753963, 0.5817260660437912, 0.5820290517689896, 0.5821907543995415, 0.5822818765447546, 0.5822606693643211, 0.5822151196099661, 0.5820704281547523, 0.5818810378225048, 0.5816168950643322, 0.5813038626985059, 0.5808879498909417, 0.5804506812556827, 0.5798835216526312, 0.5792469068242295, 0.5784638965202484, 0.5776970743356431, 0.5768407460665048, 0.5759270257641105, 0.5749387230676999, 0.5739040185376558, 0.5727645911757712, 0.5715674465709903, 0.5702834053160504, 0.5689290618342119, 0.567554558067415, 0.5660537508857405, 0.5644359715968078, 0.5628073687112185, 0.5611087271867088, 0.5593627724750023, 0.557522406437962, 0.5555410706381269, 0.5535751128675906, 0.5515380394516017, 0.5495031253337643, 0.5473174531397178, 0.5450206336901904, 0.5427124666990654, 0.5403379220751847, 0.5378892366811878, 0.5353852544015762, 0.5328400641868382, 0.530204722711061, 0.52750772517799, 0.5247252356117165, 0.521909937589859, 0.5190293228534296, 0.5160933409501156, 0.5130978604281096, 0.5100119035562409, 0.506904266578615, 0.5037455909635903, 0.5005212353883792, 0.4972411707055459, 0.49396605026231993, 0.4905702678284234, 0.4871391605435022, 0.4836438974439467, 0.4801014641394188, 0.47644754266463635, 0.4728207543427531, 0.46922164750220785, 0.46548862174235095, 0.46171350580248394, 0.45781607811623143, 0.4539689481439208, 0.450153854720726, 0.44620938844743147, 0.4422275549528477, 0.4381304239809897, 0.434086232357416, 0.4300123565131506, 0.4258900092033031, 0.4217320465584729, 0.4175877631343501, 0.4133567705738772, 0.4090279197794063, 0.40474923261194806, 0.40043996183081615, 0.39618788308067066, 0.391811338253877, 0.3873595050433447, 0.3829485582400754, 0.378515207373489, 0.37406931780177566, 0.36959414132604235, 0.3650617241165554, 0.36055703096501374, 0.3560347880492708, 0.35150509660093676, 0.3469514143327367, 0.3424055379932784, 0.3378259107457797, 0.33323783795569, 0.32869679674301816, 0.32408865067686715, 0.3194596422556923, 0.3148512896217076, 0.31024180710169347, 0.3056003443628853, 0.30099585310195426, 0.2963714946891793, 0.29177163777800746, 0.28717375531278544, 0.282646388617796, 0.27804851667508323, 0.2734151077415606, 0.2688443204520476, 0.2642829903574858, 0.25976968090460245, 0.2552265351840243, 0.2506467574558721, 0.24614217467722596, 0.24165215317192495, 0.2372100515438268, 0.2327494162228949, 0.22832531747017037, 0.22390490910873675, 0.219508146733614, 0.2150508844969113, 0.210715058053545, 0.20646909134828564, 0.20216988458826804, 0.1978995418889445, 0.19366860953851434, 0.18945770096496029, 0.1852493222609905, 0.18110770099892193, 0.17699850776983275, 0.17294415406949826, 0.16890050480389995, 0.16485443725348467, 0.16089052643568627, 0.1569630992278307, 0.15304355072734052, 0.149196351451502, 0.1454086402042352, 0.14163645826435606, 0.13790617689813173, 0.13419643090992758, 0.13055565725013074, 0.12701364978089733, 0.12345381862263682, 0.11994255935760643, 0.11641546314836396, 0.11301100259945267, 0.1096454826123445, 0.10633574749437368, 0.10307393407741651, 0.09995034013435418, 0.0967758261867422, 0.09359517647191906, 0.0905396280787243, 0.0875075680216461, 0.08456067007673888, 0.08166552968176181, 0.07885907189768228, 0.07606508006576827, 0.07329717454620685, 0.07061898194239766, 0.06799555130942492, 0.06549014144582332, 0.06296973944304242, 0.060499397508046296, 0.05809933311469011, 0.05575810612133121, 0.05345016298087522, 0.051229775569871454, 0.04908375728626925, 0.04697610457837276, 0.0449271067930587, 0.042911230257145085, 0.040982751299897556, 0.039111453148167954, 0.03729750281431814, 0.035541027617969054, 0.033870838825881266, 0.032225912963401986, 0.03062321198024645, 0.029098680621711042, 0.02763193816009356, 0.026183502014828962, 0.024836920932064046, 0.023585900474754517, 0.022344601028593255, 0.021160881338760533, 0.01998973318866704, 0.01892581833562845, 0.017954236247399866, 0.016993533710250374, 0.016088918007172427, 0.015252709177113636, 0.014457301699774707, 0.013688592931283414, 0.013007063867983674, 0.012378150674687963, 0.011788715782461694, 0.011265497076834817, 0.01076849161873324, 0.010349357768260696, 0.009978749617258502, 0.009742577730486946, 0.009457296734073603, 0.009199961320912149, 0.009021478388407658, 0.008891830596616112, 0.008743144793809403, 0.008717079740854028, 0.00874204273725778, 0.008799626253750506, 0.00889951526309341, 0.009109282139697214, 0.009283596045770804, 0.009514066381520839, 0.009774618711039011, 0.010077929275646368, 0.010372771080446149, 0.010764266880151181, 0.01121659454418875, 0.01167699147436147, 0.012173629953863044, 0.012731058197939394, 0.013294005617573457, 0.01379381553756747, 0.0144374124039919, 0.015107900124785778, 0.015818754432970733, 0.016540135977258452, 0.017364486657669743, 0.018128257079391738, 0.01892129665155284, 0.01966988610482762, 0.020526503405660732, 0.021472380653455497, 0.02236205233931624, 0.02327529362324058, 0.024168231447979503, 0.02513005992662746, 0.026070904853487738, 0.027071311252602506, 0.02808508437410088, 0.029121182835004818, 0.03015858019905643, 0.031219585152683516, 0.03227848126419586, 0.033348244972245325, 0.034413003501198726, 0.035503436407591266, 0.036594551959292516, 0.03769903881941664, 0.03880844578466589, 0.04000381566202979, 0.041110080793253345, 0.042166820349663514, 0.04329234632518657, 0.04441847818459868, 0.04554635416720406, 0.04667046432059507, 0.04784553241713766, 0.04895746204018107, 0.050068167870493965, 0.05123049982996698, 0.052327752313604294, 0.053424928347942754, 0.05451584006211561, 0.05560144410202619, 0.056615368760400596, 0.057694208578630064, 0.05876949051338384, 0.05982014220389744, 0.060856775311123594, 0.061893499697209385, 0.0628978774869223, 0.06393676327535966, 0.06490297895019591, 0.06585481746348752, 0.06680490081265791, 0.0677226905553811, 0.06868517808961193, 0.06956005491059927, 0.07041924895510125, 0.07120491596979249, 0.07203560526322923, 0.07290617915916535, 0.07368250407263799, 0.07443816727468847, 0.0751465345405442, 0.0758608870862027, 0.076576706184566, 0.07723680300313442, 0.07787203708811723, 0.07857845237950117, 0.07914950742978868, 0.07969372844171996, 0.08022107287337749, 0.0807240468071339, 0.08122077261975598, 0.08166962538807307, 0.08208074690365713, 0.08247816330400894, 0.08284728802790521, 0.08329394294170792, 0.08359144272406406, 0.08383752011112734, 0.08408979113353347, 0.08431451564257361, 0.08458443439519281, 0.08474291293412382, 0.0848486405887859, 0.08495947707216396, 0.08504191483028073, 0.08513700333749309, 0.08515618261976621, 0.08520251719758759, 0.0851601394095439, 0.08509281923698474, 0.0850030286737828, 0.084883410367792, 0.08475644921069206, 0.08458108623224865, 0.08437973590577319, 0.08419360415464462, 0.08393429952206068, 0.08368059862155583, 0.0833688496561303, 0.08303408519112529, 0.08260258442362019, 0.08223023947660972, 0.08192804325923264, 0.08148850638776166, 0.08102800576487429, 0.08050918347538523, 0.0800112007394481, 0.07958479680043022, 0.07902913215294652, 0.07845669902489692, 0.07780773822891217, 0.07720887041063715, 0.07666949620944924, 0.07602061109685555, 0.07535725214407109, 0.07471992372021272, 0.07402285781215026, 0.0732481929369876, 0.07253623100572343, 0.0718091508495032, 0.07115605881181276, 0.07039004733440249, 0.0696323583516913, 0.06884924876808586, 0.06805988683236404, 0.06725496819683534, 0.06645522648675745, 0.06569555218459014, 0.0648793080328861, 0.06407085980815037, 0.0632502391774111, 0.06242925707254731, 0.06161373301953423, 0.06079294597493787, 0.059990874945494335, 0.059172023323315365, 0.05835728352938452, 0.057469687627549726, 0.05667512497921431, 0.05591875179723612, 0.05512515741162206, 0.054338583861094164, 0.05353678013380401, 0.05277067385815921, 0.05205950207022784, 0.051307360213397574, 0.0505696873480141, 0.04986020909450578, 0.049152769582374405, 0.048448585702509976, 0.04778025956175256, 0.047131143942127446, 0.04654702952773684, 0.045934030393969504, 0.04538866159650194, 0.044821215505623964, 0.04428283561793822, 0.04371234773563431, 0.043241557187686366, 0.04283009084213565, 0.04241132207089923, 0.04202421969370405, 0.041686769892032766, 0.041363769161210054, 0.04104231380301263, 0.040795679129335245, 0.040584528747568564, 0.04039731532436504, 0.040262388755528906, 0.04023073555754772, 0.04016564989226859, 0.04014512219079594, 0.04020602673648471, 0.040272198420086926, 0.04030208515156803, 0.04047716915389792, 0.04069738801008313, 0.04096086250901906, 0.0412756504543156, 0.04164452942043416, 0.04205740980432377, 0.04252176289914426, 0.04307804954727074, 0.04364364321551636, 0.044232088207461086, 0.04491646480066552, 0.04565722201702891, 0.04654363941977646, 0.047388921666835566, 0.048282452533050524, 0.049258353034145344, 0.05029800390903971, 0.05134651949271353, 0.05252198704824404, 0.05382862029025264, 0.05512033103844482, 0.05647979350454198, 0.05789029664225601, 0.05938837318542932, 0.06088192207249498, 0.06252528352613074, 0.06423343103110134, 0.06599681872275466, 0.06783907849652569, 0.06975601210314426, 0.07173273393299219, 0.07377892037076406, 0.07589849974051102, 0.07808536093920733, 0.0803375117221309, 0.08266905973388408, 0.08507294262719668, 0.08761028557797378, 0.09015258878612734, 0.09270492816546498, 0.09540966880837135, 0.09818742802122901, 0.10106628484016772, 0.10398778728499689, 0.1069413338071297, 0.11001969966650164, 0.1131713148862146, 0.11644757575796898, 0.11974017075195321, 0.12314266530075443, 0.12658467060940595, 0.13010491477226305, 0.1337039204223537, 0.13737890887583, 0.14103915568972947, 0.14487870786336132, 0.14878889935884204, 0.15280190737379148, 0.1568500464229488, 0.16096264081043232, 0.16515754915741726, 0.16942442982885725, 0.1738183517668476, 0.17822139410961851, 0.18265289250626376, 0.187209292429407, 0.1918356919367629, 0.1965518730783185, 0.20131438869478901, 0.20614025313197923, 0.2110423359677318, 0.21601237198415246, 0.22103053159756966, 0.2261368277506566, 0.23124512609576878, 0.23648829166170102, 0.24179146349388395, 0.2471789322041738, 0.25259839184448557, 0.2580496811720567, 0.2635932191828424, 0.26919432688521555, 0.27491629593786426, 0.28062278902382937, 0.2863896639136858, 0.2922133939564606, 0.29809397486632144, 0.304024817655265, 0.31001596295384304, 0.31597900238309307, 0.3220846221290941, 0.32823597485769784, 0.33443352364528406, 0.3406743143914512, 0.3470375491865739, 0.3533549738494252, 0.3597187488986407, 0.36607299466454357, 0.37253146996344944, 0.37897523884632084, 0.3855162656084947, 0.39209046963420574, 0.3986928027810725, 0.4053314308824923, 0.41206205746725044, 0.418752478737849, 0.4254745824150105, 0.4321767342519835, 0.43896361739325523, 0.44582234469788834, 0.4526498946418196, 0.4595015996741027, 0.46635235098632405, 0.47325021647020477, 0.48011370452400265, 0.48705216019446596, 0.49400242795147603, 0.500945311845999, 0.5079180884889244, 0.5149598326632682, 0.5219381967342843, 0.5289249296003085, 0.5358927305733208, 0.5428941275176721, 0.5499046214551209, 0.5569068371499445, 0.5639080219966178, 0.5708490978714096, 0.5778505765697777, 0.5848088410295446, 0.591795090499342, 0.5987678223618914, 0.6057919642406498, 0.6127261598497739, 0.6195482920855094, 0.6264669584099335, 0.6333634001649684, 0.6402653780794113, 0.6471107661582112, 0.6539462304018779, 0.6607409349579179, 0.6675097725501725, 0.6742532714385079, 0.6809652995506688, 0.6876393126966455, 0.6942895114524763, 0.7009054574239668, 0.7074526040199212, 0.713999503635898, 0.7205204799146407, 0.7269825593241831, 0.7334020202944774, 0.7396912193690772, 0.7460319022456234, 0.7523674946511233, 0.7585976747762812, 0.7647769200419515, 0.7709198644189371, 0.7769912378705267, 0.7829160099313854, 0.7888894926769733, 0.7948114022484954, 0.8006583974600344, 0.8064422593980043, 0.8121226758220805, 0.8177823429739853, 0.8234406931818059, 0.82895445893048, 0.8344020702923792, 0.839785300898283, 0.8450959665885087, 0.8502705100952426, 0.8554477998367177, 0.8605484877809466, 0.86561964907729, 0.8705586583014596, 0.8753319042603643, 0.8801281288622602, 0.8848404186812495, 0.889464023919653, 0.8940074392709232, 0.8984501363988756, 0.9028231734525454, 0.9071082896003152, 0.9113027970660185, 0.9154106207435326, 0.9194732929292065, 0.9233951689111195, 0.9272284261398397, 0.9309571404476029, 0.9346119853747675, 0.9382137500972549, 0.9416779357734191, 0.9450503080562722, 0.9483276674332599, 0.9515135310948802, 0.9545203995895416, 0.9575261084597427, 0.9604304641821257, 0.9632248724566962, 0.9659273132038272, 0.9685286434997459, 0.9710265065118163, 0.9734220419749411, 0.9756789366114353, 0.9778739443782447, 0.9800481693125858, 0.9820230329303038, 0.9838980063516027, 0.9856724767845061, 0.9873458941232305, 0.9888784085760999, 0.9903532847987768, 0.9917236012568263, 0.9930212655684374, 0.9941784225784722, 0.9951573048266955, 0.9961183004904143, 0.9969719235748088, 0.9977431271140906, 0.9983803406571353, 0.9989405903551627, 0.9993652823511925, 0.9996873559632556, 0.999836624625002, 0.9999624509064032, 1.0, 0.9999115298337654, 0.9997191090464005, 0.9993849545502178, 0.9989910127266218, 0.9985212320930126, 0.997915363258557, 0.9972081674004167, 0.9963969929842194, 0.9954891752326497, 0.9944421405161776, 0.993340184376887, 0.9921373718879626, 0.9908697481379238, 0.9894635808813718, 0.9879665995777356, 0.9863680945348137, 0.9846749814431229, 0.982870848335612, 0.9809925280173503, 0.9790067340798102, 0.9769437111860901, 0.9747879563386963, 0.9725553387423861, 0.9702151672533884, 0.9677541217488734, 0.9652409317958256, 0.9626387475785004, 0.9599636306481896, 0.9571850711775484, 0.9543271526103743, 0.9513795939918805, 0.9483497283078608, 0.9452268686361572, 0.9420369326724762, 0.93880649777406, 0.9354530369897093, 0.9320242738597353, 0.9284327853769371, 0.9248672432225102, 0.9212997290967678, 0.9175713547868849, 0.9137731080915369, 0.9098836714275016, 0.9059516088819465, 0.9019803219495156, 0.8979100455602185, 0.8937760658216735, 0.8895837373637985, 0.8853251499881688, 0.8809628942962544, 0.8765908875553748, 0.8721587594331572, 0.8676766096524858, 0.8631279168480385, 0.8585317541051276, 0.8538737704443218, 0.8491642543885333, 0.8444078196573194, 0.8395991098359591, 0.8346497225753975, 0.8297601368926815, 0.82482107572815, 0.8198857866405166, 0.8148477901528999, 0.8097407693648354, 0.804627341334562, 0.7994750692457139, 0.7943442098876748, 0.7891120600533547, 0.7837867219197813, 0.7785028323732894, 0.7731873755369179, 0.7678420886485129, 0.7624686710945487, 0.7570443208662955, 0.7516226992394697, 0.7461764777765195, 0.7406882842853233, 0.7352005637051016, 0.7297391627329884, 0.7242063486418819, 0.718659216000215, 0.713042701246695, 0.7074780120291968, 0.7019763863260208, 0.6963767278028661, 0.6907713279368962, 0.685116557615826, 0.6795085031591751, 0.67385394726715, 0.6682425981646755, 0.6626268571359173, 0.6570957273482354, 0.6514654291229318, 0.6457769423175211, 0.6401668886041882, 0.6345607243532918, 0.628970569212412, 0.6233752496367083, 0.6177430173440411, 0.612172439478098, 0.6066107023195412, 0.6011413465469959, 0.5955917593652212, 0.5900528675586517, 0.5845413019164145, 0.579049084852263, 0.5735824511000239, 0.568131022312008, 0.562670119962987, 0.5572685184551768, 0.5518894032216807, 0.5465052431530373, 0.5411782798705166, 0.5358469665049549, 0.5305737260114574, 0.5253258868896622, 0.5201049241387377, 0.5149122369181156, 0.5097214954666874, 0.5045927763909427, 0.4994945735678912, 0.4944686773731011, 0.4894304149030308, 0.4844224177941319, 0.4794590752115468, 0.4745336322166533, 0.46961925161916834, 0.4647755394209217, 0.4600290605860259, 0.4552563616738153, 0.4505275390618642, 0.4457695788708719, 0.44113896252702056, 0.43661950624729406, 0.4320629174117573, 0.42748613924666123, 0.42303198754918425, 0.41862152445343503, 0.41431943787707726, 0.40999080246094033, 0.40565120231373897, 0.40142974842176055, 0.3972549212931952, 0.3931582532562301, 0.3890747732884178, 0.38507877405504104, 0.38109136676678795, 0.3771568510016994, 0.3732358235993466, 0.3694119604889775, 0.36559722651044124, 0.36188017107767323, 0.35821203327742085, 0.35461150381773787, 0.3510406655926462, 0.3475543560098032, 0.34408272065766915, 0.3406649894722455, 0.33731811490720126, 0.33400583508269127, 0.330708846625146, 0.3275106341043166, 0.3243644516908738, 0.32128744459730035, 0.31824351120741456, 0.3152432648855738, 0.3123069565193153, 0.309423144124591, 0.30655985806185665, 0.3037848811109682, 0.3010656907126155, 0.29839110896016324, 0.2957675046693832, 0.29317997098374626, 0.2906601214766188, 0.28820833433601095, 0.2857861432265955, 0.28341487350884764, 0.2810559774270847, 0.2787906131791273, 0.2765912778369945, 0.2744195019314008, 0.2722965973837486, 0.2702116523224969, 0.26818698086885673, 0.2662064749488242, 0.264276641131471, 0.26239338883295565, 0.26057022207396263, 0.2587773740554567, 0.25699995685083393, 0.2553030375150946, 0.2536495878391317, 0.252016956681485, 0.2504522925694357, 0.24896495197816107, 0.2474777735805391, 0.24603322259143162, 0.24459661062508456, 0.24323966680237744, 0.24200869986131857, 0.24071781993897348, 0.23946974039741586, 0.23822498516121016, 0.2370638620042787, 0.23592723933073448, 0.23484153416906725, 0.2337909233862881, 0.23275882564179606, 0.2317785343836457, 0.23083372158644724, 0.22991706860644315, 0.22903179079810115, 0.2282368520783996, 0.2274049505922834, 0.22659206200642046, 0.22582645737033452, 0.22509069331767736, 0.22432745274561486, 0.22365571247338478, 0.22306428848152762, 0.2224328725521011, 0.2218276807081414, 0.22118287683669846, 0.22063552629996946, 0.22009310039502755, 0.2195869110340622, 0.21909894272215052, 0.21868950514051458, 0.2182292820846287, 0.21779912760190076, 0.21737772877072997, 0.2169754765652626, 0.2165924487640267, 0.21622542725717944, 0.21586410386142169, 0.21553018799228102, 0.21521021332961215, 0.21490872082730603, 0.21461363294533684, 0.21432835515920767, 0.21405662188884617, 0.21379514234258895, 0.2135250885524702, 0.21328418319702747, 0.21304606363220596, 0.2128192120615576, 0.21259802244452428, 0.21232344015936766, 0.21211932270416115, 0.21191059763206146, 0.21170847467721904, 0.2115064998364727, 0.21138427925462686, 0.21117192544536886, 0.21096457060046458, 0.21075898884727368, 0.21055551754468976, 0.21033092860000369, 0.21013187589987514, 0.20994814950100502, 0.20974295773969873, 0.20953584019284427, 0.2092760846830296, 0.2090693217884784, 0.2088844880637478, 0.20866027440435314, 0.208430387262653, 0.208141125262637, 0.20790508934848817, 0.20769612035516954, 0.20743499173540203, 0.20716563674232427, 0.20682698753007683, 0.20654755504838962, 0.20625840473236673, 0.20595282406405596, 0.20563460803458533, 0.20531115247364493, 0.20496653548865204, 0.20467965388759932, 0.20430100624492065, 0.2039134003277609, 0.20343838524301855, 0.2030403589465139, 0.2026268130016824, 0.2021977497505948, 0.2017531441407763, 0.20135783884472663, 0.20087378064791978, 0.20037549671075564, 0.19986689515532913, 0.19934489965615076, 0.1987643400316205, 0.1982197781755882, 0.19769520953350475, 0.1971114600120375, 0.19651255105771198, 0.19581306819624486, 0.19519369919168386, 0.19464291748823373, 0.1939711784486006, 0.1932845659476912, 0.19252740872441715, 0.19181702547645105, 0.19112922227675808, 0.19037599672239117, 0.18960661054947375, 0.18875176952433995, 0.18795838838978862, 0.18714460532525176, 0.18631090868341646, 0.18545774170820736, 0.18465039878472123, 0.18375126287648802, 0.1828033692030632, 0.18187889564715295, 0.18093742097590212, 0.18002696316404085, 0.17904588022255902, 0.17796051505987187, 0.1769629183234637, 0.17594598886129648, 0.17498373082695276, 0.17392061953525767, 0.17281950716430997, 0.17173231443299242, 0.17063004337226742, 0.16953520524758608, 0.1684004806685045, 0.16725248329361683, 0.16609124113708587, 0.16491681578652292, 0.16368462092554925, 0.1624897844935329, 0.16130514927934925, 0.16007695647186276, 0.15883803398957805, 0.1575841416564234, 0.15631808770622793, 0.15496462652529877, 0.15368465730046915, 0.15249128749767124, 0.15116827557890744, 0.14983723809524194, 0.1484832510323332, 0.14713800031200677, 0.1457892539123954, 0.1444259221314949, 0.14305453720272024, 0.14159872596433903, 0.14022159953160382, 0.13886795080416797, 0.1374640290388868, 0.13605218587810317, 0.13460207384995432, 0.13317978161836955, 0.13181313121009455, 0.13036711250814983, 0.12891787845881458, 0.12737832339278, 0.12593409228928723, 0.12448540497078533, 0.12302638482813535, 0.12156165105244389, 0.12016642996853782, 0.11868308930549026, 0.11719610136701733, 0.11571454479860585, 0.11423345686300054, 0.11274446600676953, 0.11126583524110523, 0.10979407495635232, 0.10831589537440711, 0.1068391388976087, 0.10531193376988905, 0.10384539031452132, 0.10244197682490254, 0.10096668287557009, 0.0994956598566524, 0.09799286054875819, 0.09653534572270019, 0.09508052015073094, 0.09362887367562187, 0.09218088015673216, 0.09067529889490958, 0.089243774090875, 0.08783079361638947, 0.08640107776406084, 0.0849755937147123, 0.08355816801309615, 0.08214260524677686, 0.08069812471882981, 0.07929986202886137, 0.07790676017124666, 0.0765908031907911, 0.07520108258185375, 0.07384162672544584, 0.07247169120183804, 0.07111391882306559, 0.06968945829542647, 0.06836561117750338, 0.0671290145079448, 0.06581062216400015, 0.06450534200887256, 0.06314177241245383, 0.06187138125918512, 0.06068322725171392, 0.05942177298310648, 0.05817431988462778, 0.056940737228691723, 0.05572092969734191, 0.054529726325061534, 0.05333542192463832, 0.052155616323069996, 0.05090615990251501, 0.04976567785775212, 0.048657078915642166, 0.0475335097583416, 0.04642197531934868, 0.04539941786423199, 0.044303287670984806, 0.04325530011540628, 0.0421895039045342, 0.041142081172291754, 0.04008061708464146, 0.039072543788364174, 0.038084010491360586, 0.037105915366942355, 0.036143254611472796, 0.03523746072069399, 0.034300274565023325, 0.03337860530400127, 0.03247663009609244, 0.03159153625119899, 0.03076776725807924, 0.02991011750132102, 0.029056362451900394, 0.02823767233868203, 0.027436004534205444, 0.02661919426547509, 0.025854889885019834, 0.025175380298834683, 0.024431472278377563, 0.023706288096672568, 0.022968500158573418, 0.022283291132935725, 0.02167657871321845, 0.021014831844654594, 0.02037221285506312, 0.019777952246562643, 0.019168225120657172, 0.018553361509987938, 0.017984776132522765, 0.01743299866855826, 0.016922223479332393, 0.016400185269700916, 0.01598815927937601, 0.01548896740378767, 0.015011722812272888, 0.014512839401111175, 0.014081892672366723, 0.013722022738497737, 0.013317514110959758, 0.012932221550090684, 0.012597361283910764, 0.012244463884645777, 0.011926697892009923, 0.0116094182967631, 0.011310874553727585, 0.011101674572527554, 0.010829683631619864, 0.010585072416926428, 0.010353268372252837, 0.010140951658605223, 0.00997710701500724, 0.00979770640050452, 0.009616105985809718, 0.009476802773388306, 0.009353998770329835, 0.009232427448485934, 0.009143445448964945, 0.009122371100134564, 0.00905600788836066, 0.009007186940754388, 0.009050962010925125, 0.009026321775142945, 0.00904032507334088, 0.00905362177427273, 0.009086825780152932, 0.009157213928205033, 0.009225639217467685, 0.009246943709802861, 0.009360731987535922, 0.00948846355709488, 0.009737652349499127, 0.009879912729400673, 0.010050903488626275, 0.010231762925692743, 0.010431901415362387, 0.010681546354840447, 0.010914572656938402, 0.01111596156214104, 0.011393682075639752, 0.011686838952068667, 0.011998609338867974, 0.012322219255051448, 0.012702964886769742, 0.013052653662599226, 0.013420394286517406, 0.013866552523191042, 0.014261975932428813, 0.014615440929900938, 0.015059799804632665, 0.015520320234574126, 0.016091760485617244, 0.01657289454781301, 0.017035371473429185, 0.01756451279431641, 0.018111982402680128, 0.018657454230000488, 0.01924383670737288, 0.01987591773027239, 0.020492785310204993, 0.02112857866256761, 0.021781121099804863, 0.022454923024550773, 0.023240035457305495, 0.023939721779094213, 0.024663513226266635, 0.025391624929315237, 0.026164247945926682, 0.026907250238930164, 0.027729027473660673, 0.028569073542579215, 0.029435176767635438, 0.030311841847918478, 0.031218848607566328, 0.03213384924052108, 0.033069700340966214, 0.034029787532764484, 0.03500753184978052, 0.036077135666609035, 0.037089505881308556, 0.038167245346619576, 0.03922632029264562, 0.040313019093613484, 0.041416202768157, 0.042558095199055665, 0.043734323951905026, 0.044926659585761954, 0.046145098205182054, 0.04737254124189622, 0.04864516399195824, 0.04994712965385136, 0.05126961020772643, 0.052617883002049205, 0.05394005559204362, 0.05534722503126104, 0.05684504379884189, 0.058291713086859064, 0.05976716009167359, 0.061242763508170955, 0.06277973483119821, 0.0643293818545535, 0.06592379771561285, 0.06754578971403001, 0.06917674314680525, 0.07085788807936247, 0.07258835000813146, 0.07432351704439216, 0.0760891424211934, 0.07789731728081215, 0.079723539400899, 0.08158733754205683, 0.0834776712410376, 0.08540110431045357, 0.08735999869586145, 0.08935007249110957, 0.09140494034929064, 0.09345923993016843, 0.09554969738457024, 0.09762206210859406, 0.09979173719603174, 0.10197974124693643, 0.10421827554731641, 0.10649023050244366, 0.10878662592827394, 0.11112837330574539, 0.11353870697417376, 0.11594579820558, 0.11839041854948218, 0.12083128478683267, 0.1233568207769999, 0.12592774072063037, 0.1285242189896537, 0.1311580665304301, 0.1338764616930618, 0.13658021812724477, 0.13936117542517187, 0.1421423436471166, 0.14496644013559562, 0.14781505815187404, 0.15072638611874192, 0.15365222646144416, 0.156649102712144, 0.15968555743315732, 0.16271181591430278, 0.16583440598827218, 0.1690018468165842, 0.17219889102642574, 0.17543486884716972, 0.1786899747910204, 0.1820075481568099, 0.18535655756417102, 0.1887532765267754, 0.19218928046465136, 0.19572665679748308, 0.199234537234002, 0.20274148580382542, 0.20634224526458972, 0.20998373339259946, 0.21365650302740966, 0.2173810071956819, 0.22116513611543392, 0.2249682849749825, 0.22881317352822866, 0.2327230931957753, 0.23664815414566479, 0.24055100447718591, 0.24456929283827422, 0.24862595532118326, 0.25279566006826687, 0.2569202075427074, 0.26106434502051806, 0.26527728121986727, 0.2695308118171122, 0.27383632213170295, 0.2781686104142784, 0.28250289545403395, 0.2869201897815161, 0.2913747896407097, 0.2959016950488428, 0.3004261165712353, 0.3049074807312904, 0.3095194759505166, 0.3141647501122917, 0.3189190047334411, 0.32362172439786563, 0.32826756554322545, 0.3330571916195615, 0.3378779921886331, 0.34275880910027223, 0.3476385980266537, 0.3525108511904757, 0.35746117196607585, 0.3624413615648238, 0.36750343759900067, 0.37253637594843886, 0.37762496964172027, 0.3827187198242626, 0.38784456320922506, 0.3930153960767096, 0.39820089595858527, 0.4033824747631601, 0.40863151895126537, 0.4139067971073727, 0.41918635169723445, 0.42451472543676394, 0.42983838516041467, 0.43521558437134406, 0.44061301806442404, 0.44599091635450916, 0.4514325054642259, 0.45686305546017036, 0.4623411187499976, 0.46783363937056194, 0.473420195646566, 0.4789308272180377, 0.484404170205746, 0.4899567321562446, 0.4955219823490671, 0.5010567022609214, 0.506650655003791, 0.5123187084173736, 0.5179201457863, 0.523532412060737, 0.529091589752716, 0.5347299852946977, 0.5403913688002926, 0.5460343695038129, 0.5516809138438966, 0.5573066696742159, 0.5629604404789544, 0.5685667521407364, 0.5742243046156894, 0.5798768676035785, 0.5855377243817388, 0.591176836634839, 0.5968524011425063, 0.6024730467012321, 0.608088156320367, 0.613637900724968, 0.6192453767408177, 0.6248890168048008, 0.6304639285125583, 0.6360270885880711, 0.6415271676741888, 0.6470691577649551, 0.6525872957816701, 0.6580919814574617, 0.6635759707464314, 0.6690053362736157, 0.6744492123473887, 0.679829280179435, 0.6852261830414159, 0.69059378194682, 0.6959793498846779, 0.7012804110787416, 0.706509200949321, 0.7117572530895092, 0.7169717668876221, 0.7222061133057437, 0.7273439945637432, 0.7323539148499322, 0.7374357472677378, 0.7424761009657291, 0.7475445369574645, 0.7524910358973246, 0.757389326398809, 0.7622560952915942, 0.7670798892137015, 0.7717945164034089, 0.7765366733337727, 0.781192176444644, 0.785837192122236, 0.7904281529612245, 0.7950208891461379, 0.799494885899214, 0.8038799570209916, 0.808251811586089, 0.8125664835489935, 0.8168113757612753, 0.8210104490585676, 0.8251138171933188, 0.829195261523338, 0.8332538641586833, 0.8372007745784664, 0.8410843736421071, 0.8448482872039305, 0.848609090003658, 0.8523492548339763, 0.8559641341016145, 0.8595109582210059, 0.8629769578566369, 0.8663859657296054, 0.8696954543256962, 0.8729633197343043, 0.8761559453504612, 0.8792237209301138, 0.8822700097495099, 0.8852851752169286, 0.8881648447608598, 0.8909665155307095, 0.8937074635988951, 0.8963484370086804, 0.8988536575000343, 0.9013421006707798, 0.9037462136485686, 0.9060411368652186, 0.9082784825102838, 0.9104969660099714, 0.912551565842418, 0.9145225110601498, 0.9163578841875389, 0.9181654554811208, 0.919880886707462, 0.9215106549933294, 0.923050669181598, 0.9244729749501935, 0.9258360858570388, 0.9271697565399303, 0.928340448942964, 0.9294222861209747, 0.930350821681671, 0.931261210725988, 0.9320657521494484, 0.9327893683077312, 0.9334182426748661, 0.9339620511359324, 0.9344005160795013, 0.9347439608706768, 0.9349946248452737, 0.9351512300356347, 0.935188239861019, 0.935159945334882, 0.9350670155899402, 0.9348440789761083, 0.9345278340426844, 0.9340725000069245, 0.9335753351231737, 0.9330684298694748, 0.9323689706330226, 0.9315792518211045, 0.9306074813951543, 0.9296479688465149, 0.9286806669862474, 0.9275184750783864, 0.9262664318247588, 0.9248340120370795, 0.9234134606761033, 0.9219638413207601, 0.9203457352068893, 0.9186379380061345, 0.9167896350275894, 0.9149096994803768, 0.9129593627792845, 0.9108941763981456, 0.9087400836251451, 0.9065157754932758, 0.904183422067607, 0.9017799465686503, 0.8992741991603281, 0.8966843493392366, 0.8939449177145595, 0.8911966782433826, 0.888336678550033, 0.8854203570836997, 0.8824186479799269, 0.8793541390936709, 0.8761828608751691, 0.8729003606958196, 0.8695732758218587, 0.866166159052456, 0.862701567957919, 0.8591355141417973, 0.8555433204554911, 0.851821970728315, 0.8480303775232553, 0.8441617542213132, 0.8402326533885086, 0.836224404111975, 0.8321605111608249, 0.8280293196577829, 0.8238297512131323, 0.8195674051377133, 0.815184485075037, 0.81080202168364, 0.8063545034823705, 0.801837182637084, 0.797265229365196, 0.7926901056545262, 0.7879912490654702, 0.7832381500351805, 0.7783361396137611, 0.7734899103014171, 0.7686331250834911, 0.7636704542283682, 0.7586578635117498, 0.7536042447998593, 0.7484952020887352, 0.7433718243465403, 0.7381698816183346, 0.7329272308243482, 0.7275545833735054, 0.7222453844234974, 0.7169375232379007, 0.7115402157092545, 0.7061069382091745, 0.7006498216808144, 0.6951477326461395, 0.6896232436139287, 0.6840596510523161, 0.6784684193785674, 0.6728413137814689, 0.6672000472362354, 0.661468711356371, 0.6557890115187507, 0.6500844110255111, 0.6443749836423536, 0.6386241984700128, 0.6328372220063201, 0.6270541753281246, 0.6212553078078438, 0.6154944973473435, 0.6096626117726618, 0.6038389189807892, 0.5979907032064227, 0.5921380691235277, 0.586250227301086, 0.5803961950222544, 0.5745606912644406, 0.5686999384175937, 0.5628405493543882, 0.5568976292010117, 0.5510556874543872, 0.5452407121262898, 0.5393981406903721, 0.5335613304684861, 0.5277499848405677, 0.521927225478042, 0.516086189683666, 0.5102915706753413, 0.5045094837263708, 0.4987999991972258, 0.49304022038615786, 0.48724549464261185, 0.4815344145836641, 0.4758425513400627, 0.47019688459551423, 0.46454453316299144, 0.45887557146717284, 0.453279349133252, 0.44770792487454103, 0.44221593193147524, 0.4366916594583035, 0.43112701372188067, 0.42567668653004925, 0.4202560161567489, 0.4149483840982894, 0.4095810142989207, 0.40420849736397185, 0.39892420230925335, 0.3936772032561807, 0.38842171857558255, 0.38325827899476217, 0.37819633518787354, 0.37310149013010957, 0.3680504794392036, 0.3629886639644852, 0.3580343507839415, 0.3531589725431746, 0.3482867405347967, 0.3434614884919743, 0.3387073353893638, 0.3339752151306106, 0.32924987076302253, 0.32462452387229224, 0.32004807906345895, 0.3155649865364677, 0.31108329316749345, 0.30665319896741583, 0.3022795879218354, 0.29796030925410005, 0.29361809149677986, 0.289418447761503, 0.285306091076732, 0.2812051058894429, 0.2771804480974161, 0.2731874142324609, 0.2692516632776948, 0.26537986905462, 0.26155873572792104, 0.25778330699330426, 0.25408092135155713, 0.2504366661146606, 0.2467742226705398, 0.24325670756143591, 0.23977887438429768, 0.23637320314957685, 0.23302279069514803, 0.22976028403319895, 0.2265184520266505, 0.22332067745888884, 0.22019882145612568, 0.21713541540036127, 0.21412854864530315, 0.21118290419951716, 0.2083535153109784, 0.20551830225224105, 0.2027452194458774, 0.20002208134137603, 0.1973733016540047, 0.19477501153404161, 0.19224721612636336, 0.18977823543528388, 0.18731246570114143, 0.18496723080913308, 0.18271934654887978, 0.18047843798115762, 0.17829486061409824, 0.1761150529591844, 0.17405172692373239, 0.17205221077586463, 0.17009388266803546, 0.16818925018791497, 0.1664178738610718, 0.16460982589940265, 0.16281764922787045, 0.16112856232143077, 0.15949254179776182, 0.15793665293731066, 0.15640147850432565, 0.15491911222555538, 0.15348870742082021, 0.152109434501345, 0.15072409765571634, 0.14945178281151675, 0.1482197034080067, 0.14703883568822998, 0.14590250461891316, 0.14480287410406192, 0.14375533991713893, 0.14276231376943557, 0.1417984470018112, 0.14087706563491176, 0.1400262438496725, 0.13918423101753022, 0.1383172748110486, 0.1375669320063839, 0.13685300332813016, 0.13619742692668751, 0.13555223648450032, 0.13493482056562667, 0.13436252647973299, 0.13382451737175352, 0.13333176883327852, 0.1328586442819133, 0.13248309360298904, 0.1320662357700031, 0.13168390510477718, 0.13124956764025394, 0.13094281604968727, 0.13069998804510927, 0.13043906183566145, 0.130204696427358, 0.1299618774076542, 0.1297820224541139, 0.12963561378641017, 0.12949708291990647, 0.12937955240145313, 0.12931197254110133, 0.12923015832074733, 0.12918230563816646, 0.12913790317624235, 0.12911222337625666, 0.12910409526468888, 0.1291123818436439, 0.12907853310190973, 0.12912362371334105, 0.1291786719299011, 0.1293005578063679, 0.12936653108830684, 0.12939283243664385, 0.12948692360908962, 0.12958733765224792, 0.12967322085623995, 0.12978688887710585, 0.12996120188043947, 0.1300734724259021, 0.13019106263748337, 0.13027142515286835, 0.13040175303496093, 0.1304756069713122, 0.13061224097779642, 0.13074433149845577, 0.13088868976581222, 0.13100884743974903, 0.13116715021206607, 0.13127259426019836, 0.13137495062317414, 0.13141905300239579, 0.1315193768750747, 0.13168323524168374, 0.13175639935552297, 0.1318239725081965, 0.1318700139143079, 0.13192519469666164, 0.13197307990544424, 0.13200835884435685, 0.1320327880583534, 0.13197327992848382, 0.13198293197920896, 0.13204358655216097, 0.13201038159003894, 0.13196369120398807, 0.13191555568919264, 0.13183813798247518, 0.13166715315701824, 0.13156926084183831, 0.1314506781936929, 0.1313986155574038, 0.13122752240102686, 0.13094365286843315, 0.13075202713769388, 0.13053740173817685, 0.1303796289572905, 0.13010907939335595, 0.129803070288179, 0.12949711091269117, 0.1291704428876042, 0.12875347641952772, 0.12839283181026384, 0.12807230913863388, 0.1276518583958062, 0.12720963088532128, 0.12672819596990592, 0.12624337155441726, 0.12569213667866216, 0.12516480075707595, 0.12461088442639436, 0.12403909376574924, 0.12343149968021541, 0.12286213667356355, 0.1221953363362408, 0.12150662622202368, 0.12076149597040797, 0.12003192368537663, 0.11927092014848283, 0.11849203365087875, 0.11768770790286584, 0.11689204271085855, 0.11603272020066865, 0.11512241600057924, 0.11421975932684257, 0.11329190299490194, 0.11235918373739208, 0.11137875897691382, 0.11038850842379519, 0.1093590238284394, 0.10830669022929808, 0.1072006086522136, 0.10610637242032617, 0.10491945063418477, 0.10378493283950192, 0.10262262809778365, 0.10152170141689615, 0.10029520867287922, 0.09895895595980349, 0.09770294821730581, 0.0964215496507954, 0.09513044706948853, 0.09379871395303621, 0.09242976609692374, 0.0910558096500011, 0.08965974977088456, 0.08832198986250356, 0.08687346571342824, 0.0853452653675324, 0.08387301645795404, 0.08238120493626398, 0.0808458985759449, 0.07931964817458047, 0.07787190197345918, 0.07629525299081398, 0.07470610931511107, 0.07301497383568763, 0.07141179570329058, 0.06987601068111292, 0.06822743824597435, 0.06656747044019569, 0.06480679040845717, 0.06313551246264097, 0.06153535104714874, 0.059821739554082806, 0.05800935393952482, 0.05628834586903552, 0.05455323363029095, 0.05289964770750855, 0.05112717102513342, 0.049342246480994965, 0.04755851253668321, 0.04576854781312832, 0.04388748214541295, 0.042096556202667904, 0.04036990967209479, 0.03855023024063697, 0.036726555574812234, 0.034893898049343015, 0.03306392920630976, 0.031153090790160258, 0.029326967841688995, 0.027494196839442236, 0.0257016274553631, 0.023853031964469935, 0.022031143458021357, 0.02017770749030173, 0.018325987273690256, 0.01646035568918053, 0.014615097349333077, 0.012794056844404728, 0.010950252863886243, 0.009110625980364192, 0.007227649375100292, 0.005403481222800572, 0.0036446595376116164, 0.0018185079522622589, 0.0