0.038539689577676804, 0.038196380994915735, 0.037878520025852486, 0.03758247406354949, 0.03722894884145659, 0.03697704028143993, 0.036789701015650794, 0.036547769704371194, 0.036315491256529095, 0.03607064302692953, 0.0358561402854031, 0.03560489605640067, 0.035404531803890124, 0.03520542762908366, 0.034976383744366665, 0.03478362484667625, 0.03462845507069629, 0.03443031451973241, 0.03423459180271484, 0.034069049344196016, 0.033874953964022486, 0.033660978578132585, 0.033478590338318986, 0.033299165704546954, 0.03298802352698413, 0.03283236447945959, 0.03276977127472679, 0.0325956056774327, 0.032425664283835226, 0.0321288042344652, 0.03198492041385015, 0.031918415759458495, 0.03176141877729436, 0.031609235147179074, 0.031472672959137936, 0.03133004814978642, 0.031086728823902853, 0.03097102334146854, 0.03085630613902672, 0.030812830788197847, 0.03069438356841619, 0.030493657728318257, 0.03040210536613755, 0.030313488005152954, 0.03033936865547391, 0.03024505528733103, 0.03021748224866454, 0.030138606328034737, 0.03007360168629252, 0.02998716811258353, 0.02995226456280991, 0.029913602335105267, 0.02990042818201285, 0.029896226067340916, 0.029828329197380456, 0.02985124498774332, 0.02995518648172878, 0.02997890733443289, 0.03001297405704595, 0.029956935459693666, 0.030024065140314526, 0.030116405118638195, 0.03019057801599481, 0.030271819901053265, 0.030422857752720585, 0.03051166635086538, 0.030657239706447792, 0.03076376663978224, 0.03088430305526498, 0.030921505915070147, 0.031080985308300627, 0.031182111788810914, 0.031365182993095264, 0.03155292564422161, 0.031922750151449256, 0.03210029057370242, 0.03222924172980682, 0.03244865656688747, 0.03268016352328918, 0.03281649473951005, 0.03308573316008698, 0.033537520469220546, 0.03379753769106288, 0.034075262341347945, 0.03429042337784095, 0.03461164493417462, 0.03492355946048123, 0.03527052889072524, 0.035628216038132404, 0.036062731999205046, 0.03643463513385428, 0.03675970862610883, 0.037170154712088704, 0.03759214185034416, 0.03799834751226667, 0.03844795991526842, 0.03883935382735196, 0.03932017903182787, 0.039809059716566175, 0.04045573801392501, 0.04094470780894359, 0.0412935067195321, 0.04184004000797125, 0.042395634105749896, 0.043030363596395255, 0.04359785490275154, 0.04411487765960374, 0.04472125495956936, 0.045339273854147794, 0.04594872176614548, 0.04659421644269056, 0.04736233421934187, 0.04801815917071607, 0.048693063950457534, 0.04937615644502368, 0.05008904743866376, 0.050715250743294374, 0.05147519551438516, 0.05224587409082247, 0.0531074619480033, 0.053891258463228266, 0.0547056520524126, 0.05552095132309919, 0.05635327995335511, 0.05710542472966477, 0.05798308299957356, 0.059075546721863194, 0.059949260969001036, 0.060846076440793234, 0.061660937867435046, 0.06261344789317845, 0.06358679326700119, 0.06456622259293741, 0.06555988241386224, 0.06662303863992643, 0.06763788826838706, 0.06851757777379913, 0.0695853024224485, 0.07066056629627522, 0.07172341529292617, 0.07281869031550439, 0.07391206088008814, 0.07502627384956499, 0.07614962655905129, 0.07745221627915466, 0.07857400397274218, 0.07977467534748361, 0.08092809921853988, 0.08210287428108401, 0.08306930680891728, 0.0843117761545863, 0.08558684474735936, 0.08683652712735525, 0.0882396174600983, 0.08948751864510451, 0.09075240686143735, 0.09184308079963757, 0.09316336462757586, 0.09465008609825418, 0.09595829534183474, 0.09728100541989768, 0.09851716355423866, 0.09987946898000101, 0.10138705013344557, 0.10274585332040273, 0.1041197164619754, 0.10538655133073993, 0.10680295810120108, 0.10830448480078377, 0.10972213208469832, 0.11115016551515938, 0.11246349600219883, 0.11392648328515757, 0.1154259557839008, 0.11688889028046669, 0.11835664795683441, 0.11989850038512706, 0.12136732476965502, 0.12281378919197322, 0.12430348735654417, 0.1257990046286859, 0.12735538694302295, 0.12885459961085918, 0.13029258534853624, 0.1318157155268292, 0.13334143549402566, 0.13485232309036763, 0.1363850132798399, 0.13789811111876082, 0.13943569717774526, 0.14097311962372022, 0.142572685141045, 0.14410193815236358, 0.1456206140842464, 0.14715752548340372, 0.1486957127820802, 0.15015167695183082, 0.1517015360277335, 0.1532674002963983, 0.1548053451941306, 0.15634005958180044, 0.15804789996420257, 0.15955350380588681, 0.1609096636105972, 0.16244582321554046, 0.1639763748624347, 0.1654562337801588, 0.16698090140097624, 0.1686319474967927, 0.17012259370313101, 0.17161249376056462, 0.1731559411024757, 0.17463423160089933, 0.17600119525134345, 0.17749096542985482, 0.17897142600914062, 0.18050465992714043, 0.18195802225337054, 0.1833772502929094, 0.18482045477709205, 0.18625420374126425, 0.187657303568829, 0.1890734746494459, 0.19040509598326585, 0.19180643142502632, 0.19319130598370912, 0.19461885669008497, 0.19596424457992329, 0.19722452642688515, 0.19855382195818908, 0.1998658225064397, 0.201292199579499, 0.20255349794475846, 0.20379833111510265, 0.20504035255805145, 0.20627039669091263, 0.2075256674717195, 0.2087244388006542, 0.2098244775766984, 0.21100871606174254, 0.2121739486143615, 0.21328542886428598, 0.2144165633348494, 0.2156162111648489, 0.21669316367907818, 0.21775383387765537, 0.21862103381524384, 0.21966930261692008, 0.22086925181177286, 0.221839129581181, 0.2227923856692963, 0.2236381831756699, 0.2245670007104001, 0.22544749141353096, 0.22633118916798273, 0.22718944885437056, 0.2280155077932901, 0.2288241841192452, 0.22965578946457663, 0.23040739174062586, 0.23113629844694494, 0.23172101085386107, 0.23241864554302966, 0.23311676364481654, 0.2337497624466335, 0.23435497098287283, 0.2349463877449675, 0.23549468817992605, 0.2361512319112725, 0.2366289905260721, 0.2370874181181269, 0.23738344060581895, 0.23781760836521548, 0.23819696123566023, 0.23857325322600192, 0.23891804713092382, 0.23942199262412958, 0.2396807331753839, 0.23974654732626385, 0.2399859602610146, 0.24019320446262993, 0.24044473279189263, 0.24057897096899897, 0.24070347476882492, 0.2407810505663382, 0.24083179186516177, 0.24075489820437124, 0.24076332152618915, 0.24091104383008585, 0.24083069637608936, 0.24072729448242797, 0.24040954098591305, 0.2402812111466391, 0.2401130518525233, 0.23991329685914986, 0.23967863701255548, 0.2395862534519339, 0.23926157305923437, 0.23890692272353387, 0.23853611531395766, 0.23814018783596916, 0.23755245151937487, 0.23712553589959803, 0.23670413186315933, 0.2362009307003418, 0.235665914457015, 0.2351237670441202, 0.2345234172489547, 0.23380048721876248, 0.2331538000715933, 0.23247306122443206, 0.23183531754908743, 0.23107954694483876, 0.2302204018552037, 0.2294198143197222, 0.22858785402484352, 0.22797780149491823, 0.22705322047214133, 0.2260822436298739, 0.22512959763868975, 0.22415718013033128, 0.2230084583896535, 0.2220138150001678, 0.22104046392015061, 0.21997884953361913, 0.218891099401331, 0.21770484868808596, 0.21657490522173925, 0.215533299836381, 0.21433079653846437, 0.2131073567157581, 0.2116898326360024, 0.21044600214140255, 0.20917126307479078, 0.207867035600601, 0.2065346169797844, 0.20531013018116512, 0.20390772926826078, 0.2024153251898878, 0.2009872555555801, 0.1995374967457698, 0.1980077715632689, 0.19652367577913613, 0.19506805751605208, 0.19353152219855038, 0.191976336908359, 0.19059667070971692, 0.18898092776562278, 0.18711299055147446, 0.1855140762668623, 0.18389272938967405, 0.1823089614627544, 0.1806388054257021, 0.17904626365477233, 0.17733317628402392, 0.17567277629831463, 0.17393236300833032, 0.172185406447262, 0.1703205950954482, 0.16857290490093146, 0.16679031493059515, 0.16501763868379155, 0.1632309872745761, 0.1613654404594835, 0.15956157453596884, 0.15795000557490296, 0.1560905624124261, 0.15422991499890054, 0.15219449768022514, 0.15035173847281422, 0.148531345478937, 0.14666093193920027, 0.14478252488498045, 0.14301798697791926, 0.14111055309852596, 0.1390069273049598, 0.13712619236076082, 0.13523494811811676, 0.13344886351358629, 0.13152652426749598, 0.12961460094633717, 0.12769127835012645, 0.1257691149809109, 0.12392791378743134, 0.12199871541413898, 0.11993059636057793, 0.11803223519515726, 0.1161315624449301, 0.11438184891784282, 0.11246034735402194, 0.11044074408738072, 0.10855075418743891, 0.10666328350206479, 0.10492088730302905, 0.10302259377875528, 0.10117833007156513, 0.09929930434571706, 0.09743423385581208, 0.09548563697704521, 0.09365905323172122, 0.09183958084818543, 0.09002777166943318, 0.08822418030059266, 0.0863567039800028, 0.08458039927806507, 0.08281335459250956, 0.08104934296634507, 0.07929350798450618, 0.07768865794908221, 0.07593403435711166, 0.07420514223817948, 0.07248690608944325, 0.0707872409523779, 0.06909898643143321, 0.06743669739132327, 0.06582324220397646, 0.06419243720265158, 0.06258118747114058, 0.06110008439481835, 0.05951363898371804, 0.05782822863408748, 0.05630788316822066, 0.05480463197844161, 0.05349885615624589, 0.0520084444492753, 0.05057084211018989, 0.04913356540829973, 0.04772444771510168, 0.046311504416971905, 0.044960268950023766, 0.04356418253247243, 0.04227023240751402, 0.040996511632217084, 0.03976779079069143, 0.03853311264263114, 0.03734933117419625, 0.03615791607881613, 0.03499193874714412, 0.03388266257728587, 0.032764028550244656, 0.0317284022470611, 0.030658022387441586, 0.029618357522697918, 0.02870934604188877, 0.027717319744361292, 0.02675032691186363, 0.025829477006830553, 0.024941694927022258, 0.024127926514557262, 0.023299428958291537, 0.022546467740127262, 0.021780161273066825, 0.021049134963720347, 0.020376908298606316, 0.01971141588161716, 0.01903587461454323, 0.018445394030786405, 0.017886364860319026, 0.01744878850472778, 0.016941463839671732, 0.01642245688079629, 0.01599420110702993, 0.015598960572407691, 0.015250609831769752, 0.014919793794678836, 0.014546866878357314, 0.014293709885683426, 0.014070364011453755, 0.014060899513993454, 0.013876023922668474, 0.013605165445882646, 0.013519614787309155, 0.01346719446424278, 0.013593581602131382, 0.013590113352324195, 0.013469802315428693, 0.013570219044270656, 0.0137024141220977, 0.013880879089597327, 0.014076776532237286, 0.014348526813707647, 0.014608214270056182, 0.014905273826647324, 0.015239675117830387, 0.015611398064683384, 0.01611730827940164, 0.016551397241990288, 0.017028228457645844, 0.017425930739610688, 0.01800133289579396, 0.01866254222680347, 0.019299664394709003, 0.019974486472089638, 0.020738857013105808, 0.021482375577693395, 0.02230789986774048, 0.02312669705089919, 0.02398747640418205, 0.024861885976791533, 0.025808197158768, 0.026768948216040884, 0.027795420662918405, 0.028858787241961077, 0.030031742863272495, 0.031159822623874872, 0.03230822700529219, 0.03352055199792968, 0.034771771153504355, 0.03614813457526028, 0.03746549828545458, 0.03879483039542778, 0.040201496808353734, 0.04164793373047066, 0.04314758908749408, 0.044670698364917626, 0.04613646431432996, 0.04775053615663077, 0.04939804743539923, 0.05117985545286777, 0.052883061964032, 0.05464057072226504, 0.05642250654774226, 0.05824484424273067, 0.059968733229493476, 0.06188806584061686, 0.06388380992646704, 0.06586112723232672, 0.06787391374648032, 0.06996740096328274, 0.07204615826354119, 0.0742500515597159, 0.07639493328581079, 0.07858289124832876, 0.08070232562177676, 0.08298788352101127, 0.08536675580739789, 0.08771413878189553, 0.09009981799456859, 0.0924716139459724, 0.09493962862986412, 0.09742495305870405, 0.0999645722015507, 0.10253819046981737, 0.10514607524068031, 0.10778844540176873, 0.11053467365033855, 0.11323774886801233, 0.11597959946928273, 0.11877011325063326, 0.12158676523953228, 0.12448639060831854, 0.1273728746943297, 0.1302989760016705, 0.13321549735913965, 0.13622475762116057, 0.13938303710765013, 0.14244738136461424, 0.14555265314086063, 0.14850056694131958, 0.15170953332204437, 0.15493510547158854, 0.15820018419623258, 0.1616938848367782, 0.16499018139008825, 0.16832697466957117, 0.1717031485851854, 0.175117701368619, 0.17839327865767335, 0.18190429354708784, 0.18544135129722106, 0.18917475210430498, 0.1927446435807365, 0.19619982786601847, 0.19986312192530498, 0.20355367944327177, 0.20732733949547447, 0.21106678200667542, 0.21490006933081268, 0.21869457523773142, 0.22252374386497495, 0.22631074525030137, 0.23021678169942275, 0.23422388842846684, 0.23817760931612844, 0.24216387627940386, 0.2460955831391556, 0.2501560939530754, 0.25431524684505885, 0.25841873530277953, 0.2625526201384596, 0.26666450439494827, 0.27086427275400693, 0.274993221239196, 0.27925733486033544, 0.28354199532715807, 0.2879240102497191, 0.29224208166945065, 0.29653131102418817, 0.30090914362053683, 0.30530982435030163, 0.30970581066170916, 0.31415602585953756, 0.318655417240439, 0.3231452909974231, 0.3276584634196357, 0.3322189428932558, 0.3367749800396057, 0.34138261286646565, 0.34598247666059323, 0.3506067947586268, 0.3551856356140275, 0.35986543706504254, 0.3647435995810458, 0.3694374395738782, 0.3741595628954826, 0.3787214902211122, 0.3835190089093354, 0.3883989941922451, 0.3932145357815713, 0.39804761486428625, 0.40279395107351473, 0.40767377749956824, 0.41269187726589196, 0.41757637626499167, 0.42247890043893316, 0.4272670870391472, 0.4322196659063819, 0.4372633854530095, 0.44222194904396633, 0.44719372870400975, 0.45205358191402045, 0.45706578201676956, 0.4621793199082947, 0.4671885995840637, 0.4722084648816277, 0.4772902016749063, 0.4823228312545842, 0.4874293793241367, 0.49247636700861164, 0.4975364413010627, 0.5025493251950567, 0.507638734103831, 0.5125297092471133, 0.5176556142400371, 0.5227743453970161, 0.5279145301125177, 0.5330180629595154, 0.5382601079543552, 0.5433392099927126, 0.5484231982219024, 0.5534105655529767, 0.5585135490518964, 0.5635501336085813, 0.5686525118684592, 0.5737467314806112, 0.5789125062361986, 0.5839806388367754, 0.5890589897352502, 0.5941173117036906, 0.5991711478576651, 0.6041780411808906, 0.6092253515287478, 0.6142077046162471, 0.619242242488349, 0.624262893474005, 0.6293317445866959, 0.6343160925965744, 0.6391473837502969, 0.6441263543686631, 0.6490843425131103, 0.6540907809254521, 0.6589986209277583, 0.6638654467609919, 0.6687420646840512, 0.6735991087687171, 0.6784394819187468, 0.6832552228085845, 0.6880601572309208, 0.692831503843943, 0.6975807995979444, 0.7021999418758904, 0.7069161495672743, 0.7116501582172532, 0.7162989558121723, 0.7209197014851483, 0.725560221974736, 0.7301168627840745, 0.7345182006288026, 0.7390353456331382, 0.7435158231973796, 0.7480772320407396, 0.7524692793657171, 0.7566474608978316, 0.7610004389151553, 0.7653101296821042, 0.7696321718485859, 0.7738489824156624, 0.777987969073827, 0.7821295016783981, 0.7862279641996328, 0.7903729687183548, 0.7943728067483204, 0.7983472137912792, 0.8022654973000632, 0.8061428010993958, 0.8099812908687083, 0.8137723665376394, 0.8173459296551883, 0.8210686658512637, 0.8247348652918485, 0.8284313253895108, 0.831974281182422, 0.8354522296728526, 0.8388938472210004, 0.8422820076043612, 0.8456990951296308, 0.8489678660883139, 0.8521477769922094, 0.8553183997124083, 0.858433445661052, 0.8613674532083376, 0.8643844062626174, 0.8673119380892096, 0.8702017234065447, 0.8730251945567075, 0.8757686900695262, 0.8784617135401401, 0.8811397800648662, 0.883692543591582, 0.8861813054804145, 0.8886401016766657, 0.8909947835891654, 0.8932337830445165, 0.8954665901219758, 0.8976309943192329, 0.8997266062763292, 0.9017530150977441, 0.903744391851517, 0.9056267228592689, 0.9074404732484562, 0.9092368073626153, 0.9109046637368065, 0.9125324236509116, 0.9140601716052252, 0.9155196646976359, 0.9169443808821176, 0.9182597254994738, 0.9193499876825407, 0.920545120015264, 0.9216599905096517, 0.9226845606692026, 0.9236411820558923, 0.9246492821957351, 0.9254295470901347, 0.9261376667184208, 0.926641275172424, 0.9272191520258238, 0.9278535040973694, 0.9282504661560533, 0.9285740681828836, 0.9286816599948298, 0.9288741899338465, 0.929125148367477, 0.9291334956183995, 0.9288495521998782, 0.9287361679178949, 0.9285350067519191, 0.9283580510759672, 0.9279709925667355, 0.9275680376914649, 0.9270167535797709, 0.9263907986130228, 0.9255374607745663, 0.9247800603304394, 0.9239797601115562, 0.9230492349290503, 0.9220384558670205, 0.9209375034221176, 0.9197688822408235, 0.9185484075129601, 0.9172176975273162, 0.9158099374470087, 0.9143322587570148, 0.912770171997536, 0.9110421424146175, 0.9093396586733214, 0.907556563716968, 0.9058529830345781, 0.9038913867635683, 0.9018988932112378, 0.8997940939960212, 0.8976216363213574, 0.8952702474660417, 0.892974943850757, 0.8906702464947249, 0.8882170874132442, 0.8856939242768727, 0.8830386689518663, 0.8803840097702648, 0.8776012603151717, 0.8748090149415187, 0.8719426783562643, 0.8689170605604656, 0.8659173407887104, 0.8630188804178304, 0.8598483029519796, 0.8566159956641917, 0.8532979281940678, 0.8499458678133106, 0.8464138751783833, 0.8429526968511603, 0.8394238573104776, 0.8358324342072405, 0.8321726041246196, 0.8286021543023985, 0.824798732228037, 0.8209436801947577, 0.8170508831324172, 0.8130910701097436, 0.809056650080433, 0.8049993705293761, 0.8008909391041962, 0.796714692726406, 0.7925081155119841, 0.7881580862955585, 0.7838641957528487, 0.7795169463675471, 0.7752045882088625, 0.7707448744225492, 0.7662555577895312, 0.7617080850638643, 0.7571197370089495, 0.7524152348367139, 0.7477573242664693, 0.7429773418589043, 0.7382460834658382, 0.7334709813842806, 0.7286714757485911, 0.7238128085856771, 0.7189900231571819, 0.7140503150252987, 0.7090812413697286, 0.7040145984529029, 0.698998548247968, 0.6940595546280721, 0.6889711561255965, 0.683861754463638, 0.6785451720015124, 0.67341942541878, 0.6682885756752146, 0.6631034635124593, 0.657894934939965, 0.6526198985805843, 0.647375799382673, 0.6421907474989731, 0.6368975397474308, 0.631592188315084, 0.6263831214280515, 0.6210434286986152, 0.6157080281786256, 0.610362500614041, 0.605015429362546, 0.5994734994955319, 0.5941492504278765, 0.5889421881198182, 0.5835823419161131, 0.5782232215549293, 0.5727827690311863, 0.567438562553753, 0.5621730079962861, 0.5568185994856794, 0.5514710875379182, 0.5461417969369122, 0.5408096252275224, 0.5353771205794204, 0.5300806407792542, 0.5247902072577948, 0.5194281046385897, 0.5141653203785541, 0.5090132319346752, 0.5037533692598424, 0.4985105765056188, 0.4933828583998927, 0.48816531880169467, 0.4828801922141762, 0.4777264174497172, 0.47259389530347984, 0.46743884138620345, 0.4623580644096025, 0.4574206068507996, 0.45237043501537594, 0.4473521536490656, 0.4421862105538195, 0.43725560733768865, 0.432427638627632, 0.42753505694801297, 0.42267379862088367, 0.41791412607742423, 0.4131099216557898, 0.4082056131240307, 0.403495895268809, 0.3988175479694421, 0.3943624524459533, 0.3897274355051932, 0.3849451529911491, 0.380427365280384, 0.37594480335835645, 0.3715128136756744, 0.3671033622054146, 0.3628448244328843, 0.3585028546195713, 0.3542093962339364, 0.34999910556785974, 0.34579851576634635, 0.34147569504620934, 0.33739841293671907, 0.3333620633961305, 0.3294511022622196, 0.3254902497992333, 0.32151314587559954, 0.317659987450363, 0.3138534301809328, 0.31005978377091264, 0.3063534489142942, 0.3027876808616597, 0.2991647954878717, 0.29559612800331486, 0.29208862042973055, 0.2886275903678797, 0.28528007907923164, 0.28192100273652465, 0.2786199178017681, 0.2753279209720461, 0.2721476133619673, 0.2690213686494839, 0.2659492799182166, 0.2629314336428754, 0.2599540684897234, 0.25704668217825544, 0.25415144727611705, 0.25135680748603206, 0.2486137934561848, 0.24590900138216934, 0.24327222801427664, 0.24078082868104314, 0.23823651308673713, 0.23575003966115982, 0.23318940351012846, 0.23083368520284406, 0.2285442376915862, 0.22628488637110622, 0.22407658836132185, 0.22196803938267842, 0.219856417010667, 0.21777489110356363, 0.21577461456160135, 0.2138265856557672, 0.21208286120583894, 0.2102195058601353, 0.2083194205594822, 0.20658710376052886, 0.20490660895943877, 0.20321862167770496, 0.20164771928764844, 0.20023456475883492, 0.19874369767848082, 0.19730595710626353, 0.19576114918937598, 0.19444672630516374, 0.19332232084172066, 0.1920719601789571, 0.19085801010207382, 0.18970886255815908, 0.18860716166494634, 0.18750363193275493, 0.18650046086483357, 0.18545999369999927, 0.1845510571197353, 0.18367911937103154, 0.1828616595609899, 0.18206195985592993, 0.18141462213630138, 0.18067659280729426, 0.17998256280663974, 0.17935890369318613, 0.17874550909990414, 0.17798708148982556, 0.1774795432040377, 0.17700065025767783, 0.1767720998552619, 0.1763231598852639, 0.17571156959767528, 0.17536953577321002, 0.17505390876927365, 0.1747508521151303, 0.17448969438149878, 0.17444416996079345, 0.17420946174109572, 0.17401034771143545, 0.17368580535957612, 0.17357251929854148, 0.1734356559580896, 0.1733705907270753, 0.17332379194182096, 0.1734370702630997, 0.17340862882079552, 0.17343365852214673, 0.17345183661707447, 0.17349449836258615, 0.17346320863853018, 0.17356249715926517, 0.17364526403741798, 0.17377717494061948, 0.1739208223765191, 0.17412428145158004, 0.1742841290011413, 0.1745540511315958, 0.1747271367421728, 0.17491704980500125, 0.17495258547294662, 0.17519268514331426, 0.17555995043846603, 0.17578949987889184, 0.17602851948409165, 0.17619970033326693, 0.1764637635675889, 0.176743444070354, 0.1770088778384794, 0.17727596081811803, 0.17761673862067687, 0.17787608316594405, 0.1779974244178081, 0.17828118108009516, 0.1785584357288614, 0.1789641605856742, 0.17921137210023674, 0.17948719329991433, 0.17973148777665873, 0.17997578493015187, 0.18023602860230997, 0.18047416893075294, 0.18059184782936574, 0.1808379716987989, 0.18107227536981188, 0.1813050116761693, 0.18151393808102198, 0.18178723780399603, 0.18196272455050913, 0.1821300671588996, 0.1822329346556659, 0.1823881339051274, 0.18257778779821385, 0.18269854246850425, 0.18280732239409198, 0.1828549391844907, 0.18294369143097736, 0.18289454073358194, 0.1829647604313549, 0.18301090396002842, 0.18306829168968275, 0.18306394421092764, 0.18315689291706644, 0.18309709066812066, 0.18302369518558576, 0.18294267891498675, 0.18283845694756554, 0.18256963762022135, 0.18245179539587192, 0.1823082743226298, 0.18223995138772572, 0.18203391651018205, 0.18174691817635769, 0.1815108836079714, 0.1812517008620462, 0.18102480249915517, 0.18071252037572122, 0.180432244683412, 0.18007318150027896, 0.1796963112722166, 0.17931124426646392, 0.1788952295839848, 0.17844610675560652, 0.17799270331288752, 0.17751813345018852, 0.17702552421419088, 0.17650724135748883, 0.17595677151970465, 0.17539598151962452, 0.1748124397127976, 0.1741645979873689, 0.1735407449394042, 0.17290219170592472, 0.17222725680062936, 0.1715285887738174, 0.17073726597417493, 0.17000070862952818, 0.1693065583256294, 0.16850850074155152, 0.16768913036331956, 0.1668382151564762, 0.16597799077028594, 0.16500640453134566, 0.1641150234025779, 0.16319774943749926, 0.16236976960877458, 0.16138922022289298, 0.16038851398669007, 0.15937487639335446, 0.15834414000465763, 0.15731360825069676, 0.15624654362141055, 0.15494206018405587, 0.15387101237132397, 0.15277158274949743, 0.15168023891183466, 0.15052509944594114, 0.14943164948464938, 0.14822442578448436, 0.1470026435662898, 0.1457769509044645, 0.14452555430390251, 0.14318489927010797, 0.1419170618837693, 0.14063226574818896, 0.13951475601401508, 0.13817541225121605, 0.1366692367761781, 0.13534127062913962, 0.13399860590910728, 0.13262823665355258, 0.13126038346997074, 0.13003513027827407, 0.12862223305174672, 0.1272066021369653, 0.12574276120620212, 0.12432597969807473, 0.1229374029663854, 0.12150365735046587, 0.12006590415045741, 0.11844769809544765, 0.11702434177739482, 0.11574300885503372, 0.11427424521733454, 0.11280366953530313, 0.11125529953905858, 0.10979118416008696, 0.10840458415741211, 0.1069198168603855, 0.10543593367907747, 0.10379739137957636, 0.10233547029928425, 0.1010531344588713, 0.09955463177961402, 0.0980623268886424, 0.09647223407804746, 0.09500497066902205, 0.09346165022051656, 0.09200501447409978, 0.09054588977520156, 0.08906493001123782, 0.08760758009340205, 0.08626466696005997, 0.08479467429704653, 0.08333379183159072, 0.08187871594647018, 0.08043698814213775, 0.07895282748012637, 0.07753685207679971, 0.07612796386867186, 0.07479606714559565, 0.07339468318739588, 0.0719093957959731, 0.07054624905040473, 0.06922535735582065, 0.06787403884875967, 0.06653403286367669, 0.0651573852746067, 0.0638475606986825, 0.0626549772803231, 0.0613523729862184, 0.06006733327332537, 0.058796224035543486, 0.057546280793669476, 0.05637215561883133, 0.055148769921679386, 0.05394570872344901, 0.0526276213235761, 0.051481110861551035, 0.050387870332875166, 0.04926050734405702, 0.04814893886862119, 0.04712623735483161, 0.04603829129185278, 0.04499215149790603, 0.043943438326106796, 0.042916517329349334, 0.041824586287019606, 0.04085133302257876, 0.03985275935286858, 0.038917703124047416, 0.03799757006092459, 0.03717273232537525, 0.0362746848064677, 0.035294371969415615, 0.034452438251988224, 0.033626078206406354, 0.03296831465301335, 0.032156121083224076, 0.03136667322998202, 0.03060663447573076, 0.02987129985447187, 0.029146315992809996, 0.028460658691076886, 0.027762962900956072, 0.027126559673490643, 0.026510319167331448, 0.025903948445626736, 0.025329590971963037, 0.024837307033682598, 0.0242947909836667, 0.023775790764547996, 0.023148405545504853, 0.02269182587448317, 0.022357478203141035, 0.021918021064078266, 0.021500920125280275, 0.021092004580509225, 0.020720390552196488, 0.020241397626269107, 0.019927070538365538, 0.01962584393357016, 0.019359322857877947, 0.019084075949037015, 0.018804483696963983, 0.018565002800625233, 0.01834131706545077, 0.01809223463926116, 0.017906282694466345, 0.017831401184370866, 0.017662010245930365, 0.01751299122874314, 0.0175083454732698, 0.017382667777573798, 0.017175464211576442, 0.017113287013502128, 0.017067909100509735, 0.016966266103666274, 0.016962456235133972, 0.017025512597074084, 0.01703790093703044, 0.01706519628243545, 0.017203876644804775, 0.017247536067921215, 0.0171546366994528, 0.01725506883196416, 0.017363619965249415, 0.017663908020148354, 0.01776616207413587, 0.01774893078588254, 0.01790505963850856, 0.018069566011388344, 0.018318471493046405, 0.018489783167727616, 0.018673348657831507, 0.018868359666069687, 0.01907405641231579, 0.019251663816407086, 0.019481434871765718, 0.019690041403994295, 0.019936036660777624, 0.020186373168230402, 0.020482467531135994, 0.02073589376840762, 0.020881401391640398, 0.02116124386551463, 0.021439877309656193, 0.021880324125548783, 0.022137096965805774, 0.022406170214417577, 0.022679008744244406, 0.02295861412895568, 0.023264708063351663, 0.023552185481860083, 0.02376166561371949, 0.02406872627512109, 0.02437425095256156, 0.024712656248583143, 0.025010167108365275, 0.02523136048625986, 0.025537581024719515, 0.02583831886327005, 0.026171766291111138, 0.026457066677970816, 0.026676967869424757, 0.026963565189069918, 0.027242869471653806, 0.02754617409604457, 0.027807351855712998, 0.028156673433420387, 0.028395219511197434, 0.028633173711817315, 0.02895944254131851, 0.029181769528115725, 0.02924648814883894, 0.029490488582226283, 0.029724169042483987, 0.03002367491796436, 0.03022714131071519, 0.030486826741664665, 0.030669629687181007, 0.03084858113212908, 0.030939575331395415, 0.031118225784602892, 0.03147576675547332, 0.031607441188114135, 0.031738174790961506, 0.03175561075943422, 0.03189373069582419, 0.03207222366348077, 0.03218049473889873, 0.03227971015964611, 0.03240733093662539, 0.032481904395591885, 0.0327002187789803, 0.03273785570394859, 0.03277423855453252, 0.03276264554297762, 0.032797206572953784, 0.03275076485643084, 0.0327770609424948, 0.0327895316954828, 0.03290932571491046, 0.032879015409638467, 0.03294224066411761, 0.03288478527219568, 0.0328245861641418, 0.03267374507328196, 0.032615003815016565, 0.0326696300059539, 0.03257262700418023, 0.03247122181886412, 0.032405922624756965, 0.032287607843905435, 0.031998623994433546, 0.03189125049123012, 0.03176839046215096, 0.03182111960440272, 0.031645536608158734, 0.03137743638879754, 0.03120726676245885, 0.031027968349503377, 0.030815510468241224, 0.030621622450661454, 0.030417926478024552, 0.030204910050932624, 0.029983062283962695, 0.0298774294853745, 0.029623639666053348, 0.029490574451599978, 0.02922021749637518, 0.028955384808253895, 0.028570270249403052, 0.02832870703739414, 0.028103329660184324, 0.027850345102742376, 0.02759468962171467, 0.027343534987092685, 0.027082467038704282, 0.026768113337419068, 0.02651115782929175, 0.02625059202773336, 0.026167148063663912, 0.025879044806078697, 0.025537542334950248, 0.02527438636778278, 0.024946209220295706, 0.02470028192301981, 0.024454969174442096, 0.024297582798627374, 0.024044992166667244, 0.02388331245184272, 0.023636051668171648, 0.023401565239346594, 0.023158653123218746, 0.02295116253225856, 0.02269901901538181, 0.022520055344351003, 0.022349006762821293, 0.02223849115517654, 0.022078879942485467, 0.022025703477209103, 0.021880645967004442, 0.02175456771218333, 0.021650618388915428, 0.021561269839591543, 0.0213902303040887, 0.021350898169081558, 0.021324758979041382, 0.0214408673976992, 0.02142802401268776, 0.021473216467260896, 0.021502827350984747, 0.021557838277511756, 0.021451301193021095, 0.021580517291442506, 0.02186997641895635, 0.022012388415822582, 0.022181212320153926, 0.022259164709442978, 0.022496805181586976, 0.02290080173958564, 0.023163604641153156, 0.023458436835182946, 0.023664340443329598, 0.024039037487931188, 0.02446037074833323, 0.02488551867540637, 0.025340285787473663, 0.025863757651506763, 0.02637599448971972, 0.026922959330758608, 0.027505270380830546, 0.02812355380925559, 0.02872654320778598, 0.02942523393182997, 0.030141592089062818, 0.030913460797376606, 0.03172138685753571, 0.03269794199397352, 0.03356458370926504, 0.03435321109625158, 0.035328553936460824, 0.036343267634942174, 0.03752293477023341, 0.03860366144653781, 0.03970943809189116, 0.04089162941086904, 0.0421215371013862, 0.04342358773207021, 0.04474652568565374, 0.04613656967093411, 0.04755704566937788, 0.04902857226749883, 0.05061349203125561, 0.052179492504787074, 0.053693129836264016, 0.055382184711322294, 0.0571196211372657, 0.05887158872726606, 0.060712375978745944, 0.06262597042905924, 0.06456180140977055, 0.06654937462412545, 0.06855815982836293, 0.0706549477761444, 0.07286919569583093, 0.07506187738921172, 0.07731143281765497, 0.07956953826850456, 0.08193932219431865, 0.08442937661372016, 0.08690044418605192, 0.08943075026529329, 0.09213784726720327, 0.09477152972087098, 0.09728403842525805, 0.10007170089533939, 0.10291273937442152, 0.10577679729737165, 0.10873078795105641, 0.11192534133522798, 0.11496396096046606, 0.11806828701271084, 0.12112670618751023, 0.1243738561748027, 0.12773000086945904, 0.13108504454629144, 0.13450058213584395, 0.1380697960972969, 0.1415938190923673, 0.14518291220069876, 0.14883612143348326, 0.15255259044445704, 0.15624851091389505, 0.16009976145085805, 0.16400405397875256, 0.1679688375063285, 0.17199007658509993, 0.17611279879080888, 0.18024137052372158, 0.18430785887183945, 0.18856934389151073, 0.19288220616717333, 0.1973473462300589, 0.20175184826606918, 0.2061558842525663, 0.21068395582956734, 0.21526594133402271, 0.21994327076058037, 0.22462751087374294, 0.22941253948554852, 0.2342021289481824, 0.2390488807472636, 0.24381690173326873, 0.24879220522050968, 0.25373821390420653, 0.25881700861240714, 0.2639386826738191, 0.2691661287155571, 0.27436735801422546, 0.27961976328035104, 0.28491562861769415, 0.2902586187267443, 0.2957208746220968, 0.30114732322702104, 0.3065506095551463, 0.31208398799994147, 0.31766031910700665, 0.32326515760959346, 0.3289272784931231, 0.33472303455683133, 0.340453151742112, 0.3462274230085035, 0.35196479448777396, 0.35783305775288676, 0.36377824554382737, 0.36971136953621747, 0.37568078316919284, 0.38158502975582165, 0.38763635429584054, 0.39373574804303285, 0.39983876157826626, 0.40596953851163364, 0.41224159244817377, 0.4184114086300976, 0.42438141307307226, 0.43064279211282264, 0.4369197280134565, 0.44337161457701596, 0.44966007784016093, 0.4560285869357562, 0.4623579011019445, 0.46871198861011226, 0.4748847990518305, 0.4813085730423239, 0.4879235165201861, 0.4943396303708047, 0.5007735562901313, 0.5070401030400068, 0.5135274524874521, 0.5200170560330954, 0.5265087413774413, 0.5330021988633714, 0.5395385134479578, 0.5460288518771473, 0.552521665662012, 0.5590158833872345, 0.5655103937122478, 0.5720524887284346, 0.5785379891844866, 0.5848741960116097, 0.5913758536368557, 0.5978654347317855, 0.6044256070372136, 0.6108793014851527, 0.6174036868137354, 0.6238281730093479, 0.6302454872582408, 0.6365774902273933, 0.6429840978136084, 0.6493768830930736, 0.6557472930095581, 0.6620982074396561, 0.6684387532671605, 0.6747455982681313, 0.6808256160517617, 0.6871115303154907, 0.6933605911529861, 0.6996111556333148, 0.705782394942244, 0.7119330799394367, 0.7180332415747449, 0.7241505013176032, 0.7301736543886181, 0.7361631617840122, 0.7420761176628271, 0.7479994241623233, 0.75374074532334, 0.7596006868001689, 0.7654104182724529, 0.7711803531402559, 0.7768882874392182, 0.782511616999011, 0.7881234204663241, 0.7936821831823038, 0.7991978715718869, 0.804647885867474, 0.8100369525263403, 0.8153789869341721, 0.8206649417212015, 0.8258420542274566, 0.8310197658727367, 0.8362602978645362, 0.8412982069860566, 0.8462801264907005, 0.8512008640979224, 0.8560661104776914, 0.8608805505057161, 0.8656205977899467, 0.8702970674973523, 0.8747320144371261, 0.8792992301298891, 0.883844032922039, 0.888248808120445, 0.8925789983319753, 0.8967613694145713, 0.9009498071772396, 0.9051027172962925, 0.909124360971926, 0.9130677396737586, 0.9169529807802431, 0.9207352827602963, 0.9244385169779805, 0.9280618240531125, 0.9316043554708535, 0.9350306767800322, 0.9384135403354062, 0.941770045671999, 0.9449746124588619, 0.948096275720356, 0.951023314538309, 0.9539902100446073, 0.9569516294814296, 0.9597236785702805, 0.962408619828432, 0.9650921754502076, 0.9675896788799071, 0.9698193484753188, 0.972169767478374, 0.9744228556676172, 0.9766516306232262, 0.9787018722057664, 0.980618199323549, 0.9824884725530133, 0.9842631894116946, 0.9860599398444139, 0.9876285127362567, 0.9891079441218189, 0.9904972039502941, 0.9917953751138912, 0.9930397045040826, 0.9941485478617192, 0.9950002130938868, 0.9959470035838451, 0.9967917955371064, 0.9975491400559044, 0.9981902519470024, 0.9987943604580046, 0.9992294571086685, 0.9995695818851201, 0.9997177241107199, 0.9998797956499651, 1.0, 0.9999540289716549, 0.9998121446724577, 0.9994741914587415, 0.9991537260135822, 0.9987980429971105, 0.9982683882460455, 0.9976434522300609, 0.996857847240672, 0.9960517146011774, 0.9951442133657845, 0.9941435945820349, 0.993046604034542, 0.9918125395950615, 0.9905304606955799, 0.9891796828366548, 0.9877023854001957, 0.986132271864913, 0.9846464894495288, 0.9828704895575324, 0.9809755395206567, 0.9790417990583057, 0.9770236615232399, 0.974969429118484, 0.9727760707725559, 0.9704386598801178, 0.9680894001739399, 0.965654550416032, 0.9629789442829947, 0.9603942379652263, 0.9577480763961441, 0.9549761635791708, 0.9521171275240242, 0.9492485372992706, 0.9462099241345666, 0.9430407420556348, 0.9398520313415354, 0.9365831365663929, 0.9333390246627101, 0.9299001292211719, 0.9262311778471561, 0.9226708958737676, 0.9190314576744292, 0.9153319139688805, 0.9115371506124945, 0.9078318433756383, 0.903871603099169, 0.8998500988882675, 0.8956462630588015, 0.8915177650559049, 0.887287091163235, 0.8830291900615936, 0.8787045049564994, 0.8742800586085989, 0.8698309983394185, 0.8654840173329758, 0.8608877418390344, 0.856240275342847, 0.851462356584036, 0.8467236335580527, 0.8418682574654944, 0.8370299284543301, 0.8321362748286649, 0.8271614004170573, 0.822165890493073, 0.8172674658575247, 0.8121516194090023, 0.8069960762650386, 0.8016352943808925, 0.7964230509231647, 0.7911394467762553, 0.7858381096596947, 0.7804924303163375, 0.7752637048160582, 0.7698155382235153, 0.7642169934672574, 0.7587261628645371, 0.7532005157959399, 0.7477524937063373, 0.7421483386414702, 0.736423732553114, 0.7307853788652778, 0.7251194885632608, 0.7194173019157958, 0.7137024747512648, 0.7080577014631088, 0.7022859416418039, 0.6964992362212703, 0.6906949108357021, 0.6848811717306224, 0.6790721331524644, 0.6732319944059364, 0.6673822416651307, 0.6613681065149748, 0.6555216437815429, 0.6496908953721655, 0.643811958391518, 0.6379238480342516, 0.6321218123107081, 0.6262089660621772, 0.6201660019841986, 0.614273384431475, 0.6083765622863198, 0.602477554335519, 0.5965782784968551, 0.5908397165093544, 0.5849251767473144, 0.5790245372342531, 0.5731173577132266, 0.5672481971554624, 0.561209632692713, 0.5553923441665395, 0.5495802712666251, 0.5437999393791483, 0.5380020061344798, 0.5321479378312045, 0.5263865854202859, 0.5206377349952945, 0.5149657568171626, 0.5092401688358211, 0.5034983784532513, 0.49782251532004346, 0.49232096283136473, 0.48667142066228, 0.48105526110540536, 0.4755071361315153, 0.4699536162268821, 0.4642213266884491, 0.45876643590759164, 0.45333538395703654, 0.44794739713646775, 0.4425674789064478, 0.4372454306850628, 0.43192380510246636, 0.4266366576722452, 0.42151302550999903, 0.41628166478445716, 0.4110879759775047, 0.4059465392759711, 0.40084912903652203, 0.39583389921758144, 0.3908200808170263, 0.3858321404781766, 0.3809141859315258, 0.3760417141622315, 0.37100049592836104, 0.36624700814336714, 0.3616732522266973, 0.35697233696753733, 0.35231803100964265, 0.34766593720303696, 0.34311226679661977, 0.338521343022975, 0.33407063621972566, 0.32966278302157614, 0.3252819263912176, 0.3209661572283149, 0.31672733489046534, 0.31250044473039984, 0.3083233875656828, 0.3043214335525177, 0.30023036250864793, 0.29604234941935176, 0.2920879842553682, 0.28818272805251877, 0.2844727886102791, 0.280649950344779, 0.2767587377297636, 0.27307081210734835, 0.269434294832637, 0.26576674365909375, 0.26224525172670654, 0.25893468551097415, 0.25549030372045956, 0.25210531665199615, 0.24882071437609027, 0.24554772521696044, 0.24234192239763494, 0.2391878472932676, 0.23609301065965108, 0.2329771702575282, 0.2300089415858911, 0.2271421112471469, 0.22427381858693726, 0.22146144869913006, 0.21862164214338006, 0.21593066553177903, 0.21322082634009518, 0.21063964718417594, 0.20810559606684592, 0.20565059433790503, 0.20320907221625975, 0.20095677071558835, 0.1985995560850722, 0.19630117456078744, 0.19403285286530322, 0.19185243245807976, 0.18973661307884176, 0.1876626591773715, 0.18564220845593554, 0.18369186318735856, 0.18177416981974404, 0.17995738354512572, 0.17813774473992947, 0.17637181341165378, 0.17458239212388216, 0.17293033636821178, 0.17132123411726363, 0.16976217436654223, 0.16824877219088025, 0.16673575875550073, 0.16531846114059437, 0.16399524418049216, 0.1626557414959779, 0.161361249973184, 0.16017349119457092, 0.1589594712333395, 0.15762965231010587, 0.1565287479785317, 0.15546343171094437, 0.15438559529629833, 0.15339845041604117, 0.15247941441799046, 0.1515553035790701, 0.1506672828328121, 0.14992245452415384, 0.14909250932864104, 0.14815174367222117, 0.14742264511423814, 0.14672400215145265, 0.14622889437419856, 0.1455694316565641, 0.1449189256184267, 0.14434198561110456, 0.14380027429978562, 0.1432061151564805, 0.14274230646795646, 0.14237120591885716, 0.1419526665462881, 0.14156401717942685, 0.14108317583526758, 0.14076668528535113, 0.14050500055915632, 0.1402246019830908, 0.13996635540029434, 0.1397056214577389, 0.13949343255652882, 0.13942519307399417, 0.13923568686186596, 0.1390717978794523, 0.13877290711162923, 0.13867606464534155, 0.13865748575578843, 0.13857741567737894, 0.13851352888909327, 0.1384547645922939, 0.13842250055571537, 0.13842105696986606, 0.13841301764150574, 0.13841819343934547, 0.13849114283145159, 0.13851335528247408, 0.1384007315336217, 0.13846840763843418, 0.1385392825982831, 0.13861690405052732, 0.13869390608980386, 0.13888846250526893, 0.13895758467453917, 0.13903603073124632, 0.13920906178866432, 0.13929157466652808, 0.13935360786113163, 0.13945962696409261, 0.13957119681898164, 0.13953138683749655, 0.13967012278329333, 0.13977107064484579, 0.139900690614298, 0.14002231086875577, 0.14019160897104907, 0.14029108221664396, 0.140344795606711, 0.14044062635844448, 0.14052904621283788, 0.14062724213920275, 0.14069826034256513, 0.1408903597200855, 0.14093092570610996, 0.1409709317151533, 0.14099162135747606, 0.14102844075068058, 0.14094206213793015, 0.1409816363278225, 0.1410071268724243, 0.14105668064061638, 0.1410493994211288, 0.14100605292092966, 0.1409777744926488, 0.14093555550668785, 0.14100378064437968, 0.1409173950226567, 0.1406781671196378, 0.1405938752812545, 0.14049155987399628, 0.14056513155916897, 0.14040268902580272, 0.14005350524812715, 0.13989862397152142, 0.13972391022762842, 0.13957801923723961, 0.13935811876711515, 0.13911815861173382, 0.1388651985507877, 0.1385948662807332, 0.13840726264875092, 0.1380888034887413, 0.13764721624857199, 0.1373169297062511, 0.1369661235035103, 0.13655684041630303, 0.13617009547776754, 0.13576095251866305, 0.13532977616012995, 0.13493224167144993, 0.13445090747407884, 0.13395147620497047, 0.133367970659848, 0.13283996735000242, 0.13233106025486785, 0.1317533297080525, 0.1311561998841649, 0.13052232662688668, 0.12988846126696263, 0.12915454310041563, 0.12848991312502478, 0.1278005824854374, 0.1271530403025295, 0.12640816660811935, 0.1257826919420934, 0.12498232810475766, 0.12417074893349564, 0.12330188600449277, 0.1224704433596533, 0.12154976866837616, 0.12069404589326255, 0.11981710206596356, 0.11890549316281322, 0.11798902819716489, 0.11702748797359072, 0.11607283913583791, 0.11509688277826122, 0.11428706974451622, 0.1132466819650002, 0.11215914187412858, 0.11110438419504964, 0.11003656547655846, 0.10876500434034318, 0.10769405625563762, 0.10676455118680676, 0.10562473497869415, 0.10447227559777844, 0.10316514698269044, 0.1020048942799333, 0.10097595819445875, 0.09975577272362239, 0.0985254287445201, 0.09723970524505736, 0.09599408283045066, 0.0947352787149714, 0.09346362619511729, 0.09217947216070015, 0.09082781727686405, 0.08952674797003034, 0.08817312047326152, 0.0868486981318612, 0.08550925974662564, 0.08428733047789196, 0.08290430654297816, 0.08133665504605773, 0.07996673859044241, 0.07858165653388581, 0.07721738134870682, 0.07580159578529806, 0.07444556252366889, 0.07300291178283888, 0.07155619891266302, 0.07019550454339034, 0.0687296919201966, 0.06721342198442955, 0.0657565354177107, 0.06429725379618881, 0.06285991088396546, 0.061393161442439656, 0.0599016198830495, 0.0584368190342522, 0.05697020445340497, 0.05554362501069838, 0.054069143396648464, 0.05256508652431401, 0.05109771915917987, 0.04963032166631, 0.04815983769001451, 0.046694040640238126, 0.04508394947897066, 0.04363903203873076, 0.04218790890302918, 0.0409363496151148, 0.03945176678366383, 0.037762408202543236, 0.03632402602594758, 0.03488264171859544, 0.03354009967443188, 0.03208440960904284, 0.030659692346444258, 0.029214775419439048, 0.027778627002843375, 0.026320239747538457, 0.02490598411493726, 0.023447313462700705, 0.02205503133518453, 0.020668194316951438, 0.019339534161473992, 0.017959460689764235, 0.016659255821046246, 0.01529201525024886, 0.013939815309190523, 0.012546990774606769, 0.01123102356830343, 0.009985098213295083, 0.008684475514391115, 0.007399043447439169, 0.006139037921250588, 0.004882298920024224, 0.003575324183449926, 0.002357823550465501, 0.0011520284248128334, 0.0