0.027461551614409208, 0.027089424709269942, 0.026809558125746754, 0.02654185603015173, 0.026318912231330937, 0.026053306990415415, 0.025911108959490677, 0.025784737963533533, 0.025685734064825435, 0.025602699584446692, 0.025605114217918928, 0.025538060518532024, 0.02544147861784488, 0.02540604826455124, 0.025378871027169455, 0.02536539371413048, 0.025351882664103948, 0.025318751703815347, 0.025322477708705833, 0.025331569161046952, 0.025307325146922858, 0.025333275509805728, 0.025383294178299445, 0.025416761978630662, 0.025457704613517602, 0.025537082694823403, 0.025591495992813018, 0.02557931062595144, 0.025667225281722383, 0.02576343126058042, 0.025914441537793976, 0.026025138090841553, 0.026133303127021845, 0.026275487937098035, 0.026432410945201306, 0.02657556107522053, 0.02676799576365218, 0.027017518834585717, 0.027236323527906274, 0.02747462473941044, 0.02764322734644801, 0.02793328281986659, 0.02827827157528015, 0.028596293105594892, 0.028934615253498833, 0.029292129523915512, 0.02967323695098186, 0.030080864160379157, 0.030506138999774963, 0.03095484683234239, 0.03135199213838212, 0.03185850196065914, 0.03242285449591509, 0.03296677969298007, 0.033535310548178036, 0.03409082688535328, 0.03471503520142072, 0.03533753665532681, 0.036013860109400005, 0.036714276651617646, 0.03743522113986927, 0.03818693618821673, 0.03899509898749248, 0.03979623963313392, 0.04062672386603095, 0.04144431446852146, 0.042340003047242475, 0.04323711984333368, 0.04419300340669399, 0.045176809914660554, 0.04623198452041611, 0.04726867275589607, 0.048337985100745474, 0.04944024567808994, 0.05057578007744054, 0.05174758014148932, 0.05295031402129459, 0.05417858954322723, 0.05545160643802586, 0.056759193703254995, 0.05806446945295942, 0.05944713453507791, 0.06087770366374298, 0.062326675662662874, 0.06372894863557925, 0.06526062387074268, 0.0668245630454601, 0.06843701425814183, 0.07006694150879895, 0.07175447506140781, 0.07345507793736292, 0.07519466737916752, 0.07692313383094619, 0.07874856478014902, 0.0806044637596949, 0.08250677407695912, 0.08444786754769698, 0.08646402456604318, 0.08848043026221303, 0.09053084963920904, 0.09263447116094291, 0.09478109286361112, 0.09691780178241363, 0.09915821409486626, 0.10141390727895135, 0.10374036453676148, 0.10610780136653458, 0.10848772621256865, 0.11094316561509866, 0.11344189543053071, 0.11598095381136618, 0.11856316215467702, 0.12115984447304448, 0.12383385134313458, 0.12659096803770414, 0.12934688995055588, 0.13214943177426994, 0.13497656601629218, 0.13787562934258105, 0.14075744542911567, 0.1437563202581973, 0.14679792299078812, 0.14989536164107817, 0.15302278059745322, 0.15616783814746646, 0.15938935860030606, 0.16265502679210084, 0.16601495708180725, 0.16936373751365896, 0.17270535721927485, 0.17615664178652093, 0.17965225581684557, 0.18313823196786588, 0.18672986081481346, 0.19035250702164422, 0.19402927059453184, 0.19774789189419165, 0.2015646351010945, 0.20536079139207083, 0.2091644728691143, 0.2130564752878965, 0.21699124776459325, 0.2209331630999032, 0.2249575726982596, 0.22902670262774982, 0.23313113770832095, 0.23727607542236245, 0.24142140457757574, 0.24565186542203354, 0.24989774228744707, 0.2542062324731288, 0.25855100006726717, 0.2629675714788336, 0.26738034747700795, 0.2717858789670776, 0.27627992254579026, 0.280808367353754, 0.2853629900973943, 0.28996047474060216, 0.2945856688258936, 0.29924952603110644, 0.3039453078977303, 0.308735596704656, 0.3134858338176063, 0.31819097843155, 0.3230179352240995, 0.32787215478804443, 0.3327904722359837, 0.33769307372757335, 0.3426492248494699, 0.3476032417074927, 0.35258462680187425, 0.357546935520304, 0.36258530348155177, 0.3676335040388579, 0.3727153165233847, 0.37781629063130945, 0.382920590015197, 0.3880595232857724, 0.39322773226552854, 0.3983961544946283, 0.4035797461144169, 0.4087429352983822, 0.4139583775364759, 0.4192311797012457, 0.4244605317510484, 0.4297012738740458, 0.43487847707349253, 0.4401476022061134, 0.4454300293547636, 0.45070433862363535, 0.45598135003197504, 0.4613028025540999, 0.4665771426454927, 0.4717889731798233, 0.4770747463413667, 0.4823564499063375, 0.48764122927577175, 0.49291118345417223, 0.4982325044521789, 0.5034813908633069, 0.5087249645037608, 0.513890574014079, 0.519127657447965, 0.5243435416498898, 0.5295523457705994, 0.5347446332510325, 0.5399468998459965, 0.545099541458616, 0.5502020209548005, 0.5553209204662389, 0.5604170492644811, 0.5655052447141669, 0.5705503412965371, 0.5755744604635881, 0.5805667869809011, 0.5855311841052533, 0.5905079494765374, 0.5954069149305441, 0.6001960845464928, 0.605043601115324, 0.6098532385464743, 0.6146647858519565, 0.6193903003089586, 0.6240432040491473, 0.6286937394078627, 0.6333005188494555, 0.6379093894308383, 0.6424190571132313, 0.6469141027574284, 0.6513286884498483, 0.6556968975998339, 0.6600018110947371, 0.6642737581353524, 0.6684301416000912, 0.6726034673460242, 0.676717683018299, 0.6808455096120896, 0.6848292419639848, 0.6886759711217335, 0.6925520720186237, 0.6963624990386302, 0.700123202842168, 0.7037973598335002, 0.7074447782484802, 0.7109774705628132, 0.7144425886928528, 0.7178200133836842, 0.721147958913695, 0.7244171891744625, 0.7275962915770388, 0.7307008774711444, 0.7337119061964025, 0.7366658857427848, 0.7395112988323925, 0.7423094016168587, 0.7450245119307722, 0.747729535510757, 0.7502669715620325, 0.7526450222579606, 0.7550284160924847, 0.7573234165106498, 0.7595808693653554, 0.7616906074568379, 0.7636897648124826, 0.7656263280103766, 0.7674719452093018, 0.7692027092912238, 0.770866904450603, 0.7724533202493549, 0.7739255120102727, 0.7753028549720287, 0.7766379141787201, 0.7778167294710667, 0.778846591325282, 0.779843490677939, 0.7807413481557357, 0.7815254914260947, 0.7822256763648807, 0.78286995001928, 0.7833617253412831, 0.7837542537126064, 0.7840610905210601, 0.7842514350441593, 0.7842829493778651, 0.7842796381563049, 0.784244474140892, 0.7840226431404577, 0.7837002391000741, 0.783251821074059, 0.7827297507502026, 0.782112195410861, 0.7813820099231579, 0.7805485336010934, 0.7796009804728081, 0.778561923845718, 0.7773734500822901, 0.7761319428135985, 0.7747839878445129, 0.7733318914924171, 0.7717723974358678, 0.7701187725861408, 0.7683488573268782, 0.7664757493819306, 0.7644856619052571, 0.7624092402579399, 0.760274537089472, 0.757987750652525, 0.7556019835314628, 0.7530802077030037, 0.7505020379739649, 0.7478876799764875, 0.745101933562129, 0.7422211427068581, 0.7391922894729076, 0.736128987470558, 0.7329464593354836, 0.7296928210125627, 0.7263427580584512, 0.7229062794597457, 0.7193656335112568, 0.7157484293392876, 0.7120217446345898, 0.7082055544037174, 0.7043194682230723, 0.7003248382325175, 0.6962385314691487, 0.6920746810350239, 0.6878269069893603, 0.6834616527175876, 0.6790536595425563, 0.6745817762258475, 0.670007824348603, 0.6653553243758915, 0.6606131738345588, 0.6558091574243997, 0.6509237402979684, 0.64597164288283, 0.6409470334872935, 0.6358932229659153, 0.6307230683537538, 0.6254449009473945, 0.6201506197032165, 0.6147911588839068, 0.6093646913850319, 0.6038804984690048, 0.5983654153553429, 0.5927589117355101, 0.5870974127996754, 0.5813487285277573, 0.5755861859215893, 0.5697812730467152, 0.5639151453342482, 0.5580012720762956, 0.552015745754692, 0.5460151667180342, 0.540048189287343, 0.533952638088166, 0.5278219186825439, 0.5216583466707688, 0.5154615283675202, 0.5091692558734568, 0.5029209533691178, 0.49664163062362715, 0.49034327654194393, 0.48400732393278734, 0.4776563808550357, 0.47127365158308476, 0.46487171281359774, 0.45844279836052504, 0.45200967935580205, 0.44558944867463207, 0.4391275554655679, 0.4326575779048366, 0.4261165617982053, 0.4196442059573528, 0.41318884432663827, 0.4067038206325262, 0.40021881148257016, 0.3937546065663589, 0.3872736826658079, 0.38075136063425247, 0.3742934130786549, 0.36784402917753867, 0.36145703154097264, 0.35502519590662923, 0.3486276303197528, 0.3422321252765641, 0.33585936459682314, 0.32951367744257015, 0.3231910883534107, 0.3168493985784785, 0.310590371184558, 0.30436007592805586, 0.29820323544365634, 0.292031295285666, 0.28589046785374184, 0.27979562146124876, 0.273741067607803, 0.26771076563987045, 0.2617441872099729, 0.25575190013617766, 0.24988489387758234, 0.24406203678583355, 0.23834605143323187, 0.23261080783659854, 0.22694850609193434, 0.2213210887701041, 0.215752174996761, 0.21023162352543573, 0.2047853764657444, 0.19937987027228798, 0.19406189532832963, 0.18880771158320953, 0.18359584233037587, 0.17847693713946183, 0.1734030206368017, 0.1684229535495827, 0.16351208434850142, 0.158664135439793, 0.1538977297841776, 0.14922006567040444, 0.14460059342512213, 0.14005863036778024, 0.13565049748734795, 0.1312603622262757, 0.12686392870047902, 0.1226544444598968, 0.11852549862165235, 0.11449182126179992, 0.1105264135365145, 0.10669153879289106, 0.1028919569648423, 0.09918219670755392, 0.09557613315067365, 0.09204599139447016, 0.08854590024998378, 0.08520842137285896, 0.08196045819161549, 0.07880556334202587, 0.07573888797150546, 0.07274656915654393, 0.06986702109035216, 0.0670798378850275, 0.06438125574255667, 0.0617813141834257, 0.059287721110557946, 0.05687453981085283, 0.05455689391403401, 0.052321723445556176, 0.05019755387641364, 0.04815369873709916, 0.046222467340015796, 0.044386163868614256, 0.04270360215736684, 0.04105032175129218, 0.03951345212651987, 0.038054775756778805, 0.036694829966496416, 0.03542057491221724, 0.034257841032364955, 0.03316824896663346, 0.03220038991226255, 0.03132645461690168, 0.03054254874492596, 0.029855838721094402, 0.029213753522699393, 0.028717802072258592, 0.028310802460733163, 0.02802190947392665, 0.02778858533576197, 0.027600764445493906, 0.027552207305398948, 0.027589733039873436, 0.02777955748388209, 0.027979623069935976, 0.02823261739727029, 0.028612902689965674, 0.029077319558510405, 0.02966582441073257, 0.030290641554841173, 0.030920076196705278, 0.031720812971964926, 0.03259806481420022, 0.03355112163006521, 0.03457919003668505, 0.03568051115313572, 0.036856029498542935, 0.03810368417676326, 0.039413529860288433, 0.0408033195451813, 0.042319081913621784, 0.04383693739724242, 0.0454008280326006, 0.047058104280891064, 0.04877973992285235, 0.05053489981102218, 0.052384331610564244, 0.05434064626873495, 0.05629865140252479, 0.058314692448921394, 0.060327447470049575, 0.06246158241124536, 0.06466446461866002, 0.06689322305083778, 0.06916956510426918, 0.07152651826250726, 0.07388882700130363, 0.07630377953281524, 0.07875243360921218, 0.08124230187908311, 0.0837589657826489, 0.08632688683682532, 0.08890632879935419, 0.09154454015003524, 0.09421238509442233, 0.09687181034989299, 0.09959854781353705, 0.10240734131958842, 0.10517027740947982, 0.10795622858895836, 0.1107223555508291, 0.11355352315013421, 0.11638082463334978, 0.11924228538768557, 0.12211420866942253, 0.1250678767493856, 0.1279469176925158, 0.13077279554503077, 0.13367734746576634, 0.13658386800241293, 0.13954313099884155, 0.1424421165395914, 0.14530116906672416, 0.14820316246860726, 0.15109880634176515, 0.15399795890366566, 0.1568743895849529, 0.15971608718210856, 0.1625722459606448, 0.1654127512513054, 0.16825113740614628, 0.1710537416234458, 0.17385193317609862, 0.17661191990848593, 0.17934986889125273, 0.1820764230764347, 0.18476339641558007, 0.1873882510137889, 0.1900247132810093, 0.19262903721137162, 0.1951705020611508, 0.1977099932137081, 0.2001954712221339, 0.20265975315466853, 0.20508275554703168, 0.20747139894893443, 0.20980759621833306, 0.2120970177818632, 0.21434413313586556, 0.21654459613900218, 0.21871854193365634, 0.22081948884935101, 0.22284217133048578, 0.2248475645222273, 0.22679972618506644, 0.2287358083980254, 0.2305736086083007, 0.2323883365178714, 0.2341126062703193, 0.23578191060690631, 0.2373876934757128, 0.23894368663880444, 0.24039136437504063, 0.2418334001948139, 0.24321094668471802, 0.2445357855785464, 0.245780846859397, 0.24695221246344276, 0.24806616218765756, 0.24911256408688584, 0.25017872716816686, 0.2510771792824875, 0.2518900158501657, 0.25266132816712095, 0.25336481364985497, 0.25396146988072615, 0.25453173384036687, 0.25510348051913323, 0.2555197192674042, 0.2558673346956934, 0.25616415059591174, 0.2563698040251156, 0.256531473793732, 0.25659373434296706, 0.25658646421423853, 0.25652407873648464, 0.2563739222277941, 0.25609923346668845, 0.2558147063224299, 0.25545593261107563, 0.25507191824154746, 0.2545590398823976, 0.25395842746562386, 0.25330584962959235, 0.25258133994712423, 0.25186944115253157, 0.25099105200706234, 0.25008617825222973, 0.24906954463962658, 0.24798821429092088, 0.24684446868965515, 0.24563241507340325, 0.24437731105630214, 0.24303197684313405, 0.2416228007212454, 0.2401542943434922, 0.23861721416244155, 0.2370632875654224, 0.23539471864982153, 0.23366658121949568, 0.23193678286045008, 0.23008293366909793, 0.22812666871727336, 0.22616813879604997, 0.22415194217505735, 0.22215164668403206, 0.2200132856573613, 0.2178087798541359, 0.2155706263069998, 0.2132815117514296, 0.21101413017692222, 0.20861643043989472, 0.20616287429651184, 0.20367846413978233, 0.20115015189460783, 0.19861161016032183, 0.1959939111670297, 0.19339907258938496, 0.1906957792329152, 0.18795847731154752, 0.18521790343017924, 0.18241056736559685, 0.17957033894667018, 0.17670359664793184, 0.17380804435939382, 0.1709255229321211, 0.16797029522939905, 0.16504513526846232, 0.1620377305208496, 0.15901215970220653, 0.15601446295979812, 0.15294926139717227, 0.1498729153443785, 0.14678243987055375, 0.1436808747558959, 0.14061811000318922, 0.13749148608223374, 0.13439022018426486, 0.13125110697404993, 0.12811096028992944, 0.12497165737714065, 0.1218324319596433, 0.11866094630160359, 0.11553216449088834, 0.11240656352056601, 0.10930634538339361, 0.1061899021699865, 0.10309476671626815, 0.09999809545636086, 0.09691527429766894, 0.09389059446682088, 0.09083514484438224, 0.08779662355395967, 0.08478589250125378, 0.08179918554364785, 0.07892774735281312, 0.0759825069948304, 0.07306138772583554, 0.07018611033335531, 0.06734619040272799, 0.06458193451005159, 0.06181158954809514, 0.059009043077950095, 0.056332118549144085, 0.053694880042991534, 0.05111518319937343, 0.04856090846761016, 0.04608387968165516, 0.04361972474632944, 0.041206896018248625, 0.03882819859642242, 0.03652475238202514, 0.034358568909983074, 0.03215572082081981, 0.029995960833125404, 0.027921788636591238, 0.025911137326520686, 0.02398212167096752, 0.02210014465001285, 0.020234068010265498, 0.018496457560588236, 0.016826571089367148, 0.01530329729943519, 0.013763992989079541, 0.01223143383314754, 0.010855681262787964, 0.009554742673709274, 0.00840918410771486, 0.007252480010261949, 0.006098737961131976, 0.0051205401354050785, 0.004223155736428718, 0.0034418131703893556, 0.002706200821868689, 0.002022963007200961, 0.0014667756542265974, 0.0009977161656053682, 0.0006135135383992291, 0.0003229410803861366, 0.00012385136945659213, 1.549418294995571e-05, 0.0, 0.00012721868831072503, 0.00029427845397647856, 0.0005172236480505203, 0.0008871487467206054, 0.0013541299231065987, 0.001945614931776127, 0.0026057284872770467, 0.0033214037910731654, 0.0041893809993630345, 0.00515654848304961, 0.006213917535658071, 0.007382965204725813, 0.00864124452855132, 0.010013959189869184, 0.01148805046590026, 0.013107639557837916, 0.014780758294186439, 0.016550445425157427, 0.01843563378291105, 0.02042585640983297, 0.022544278999461542, 0.024741864294148933, 0.02702106807247821, 0.029434552263913807, 0.03195270818322704, 0.03451691474194718, 0.03725171432496935, 0.04010191499660291, 0.04303763955750952, 0.04607591987739778, 0.04920879289662305, 0.052453206260825065, 0.05583156140151282, 0.059275780165086125, 0.06282347931009497, 0.06644485667792743, 0.07020168141229684, 0.07400014396394891, 0.07796449053807754, 0.08202500681505467, 0.08619500566385085, 0.09044604994221593, 0.09475193699129561, 0.09920097326515218, 0.1037433069364608, 0.10837336875674335, 0.1131021346499069, 0.11790775835953898, 0.12282183083270488, 0.12782590668691743, 0.1329593786739732, 0.13813663456169767, 0.14343525539484364, 0.14878802142082972, 0.15423050549920964, 0.15967246633948068, 0.16530124350883554, 0.17108052674792257, 0.17686042181583805, 0.1827230353215831, 0.1886153851465193, 0.19464547734208987, 0.20075712628327402, 0.2069360160247341, 0.2131883341990036, 0.21953145667168059, 0.22592442072378197, 0.2323692709567794, 0.23890410481114843, 0.24550530480477192, 0.25209685387620057, 0.25883586554175864, 0.2656672622492949, 0.2725164715989118, 0.2794233941644572, 0.2863928242671972, 0.293410073109487, 0.30047919333710527, 0.30760234571143136, 0.3147757811621774, 0.32192147840270097, 0.32920010451711534, 0.33657468667717655, 0.34392703450077705, 0.3513210070555493, 0.35869002189279087, 0.3661701034046038, 0.3737484868470863, 0.3812841425458152, 0.38885336070439247, 0.3963715628875297, 0.4040123178529806, 0.4116590996593799, 0.41934642861423294, 0.4270529218359781, 0.4347985143724805, 0.44253643831504336, 0.45027349114295634, 0.458043774277866, 0.4658255313551764, 0.47362593574006895, 0.48142435731313016, 0.4892517013677267, 0.4970588730385431, 0.5048702039889731, 0.5126507315748032, 0.5204682060143729, 0.5282239742698585, 0.5360389313882093, 0.5438429867366078, 0.5516569361856972, 0.5594321072009498, 0.5672216211340917, 0.5749632905704449, 0.5826889137981586, 0.5903342913127266, 0.5980295401304238, 0.6057417532459115, 0.6133787924286741, 0.6209894895366793, 0.6284795589969832, 0.636043405527734, 0.6436071914241847, 0.6510904402292027, 0.6585359858207372, 0.6659146710330911, 0.6732833642709787, 0.6805962979380249, 0.6878765440812745, 0.6951089439183606, 0.7022600861103508, 0.7093964506459101, 0.7165071336395356, 0.723530434953278, 0.7304986154494973, 0.7374278234920756, 0.7442786839476686, 0.7510226321564341, 0.7577598555582581, 0.7644319167056498, 0.7710010803342476, 0.777543394545169, 0.7840011172703037, 0.7904014693816656, 0.7967275578153291, 0.8030386815611184, 0.8092053412964992, 0.8152196474892797, 0.8212460716850398, 0.8271905890152801, 0.8330291503530997, 0.8388098371487599, 0.8445602475218507, 0.8501605620783539, 0.8556760060174374, 0.8610838664272836, 0.8664280783510658, 0.8716234992348781, 0.876793589811647, 0.8818679203178287, 0.8868600460444994, 0.8917390664108045, 0.8965689959300804, 0.901247015088287, 0.9058289436952368, 0.9102922094990376, 0.9146809096170583, 0.9189598025937556, 0.9231468230431018, 0.9272305529746713, 0.9311764342887999, 0.9350554090055628, 0.9388276885886102, 0.9424909002538706, 0.9460447119367738, 0.9494905055205234, 0.9528267252274109, 0.956037782781797, 0.9591552848239655, 0.9621165106902856, 0.9650155119474649, 0.9677994450044415, 0.9705278086407813, 0.9730740850739892, 0.9755130040019451, 0.9778345689943998, 0.9800435151121981, 0.9820541002980283, 0.9840471052935655, 0.9859515053073948, 0.9877034210189013, 0.9893388196870808, 0.9909065259369938, 0.9923026983957477, 0.9935362543944057, 0.9947106511329267, 0.9957678228429552, 0.9967229945756494, 0.997544210441437, 0.9982361513065832, 0.9988271776849071, 0.9993016117433255, 0.9996330265991383, 0.999878286848819, 0.9999866066312632, 1.0, 0.9998958422267847, 0.9997440148321506, 0.9993978691929927, 0.9988697592886245, 0.9983088678609694, 0.9976323492098722, 0.9968657875028253, 0.9959570332061046, 0.9949104428843097, 0.993781269942087, 0.9925395936063873, 0.9911737433495373, 0.9897109097553327, 0.9881371556828128, 0.9864533482327252, 0.9846603496777572, 0.9828300487741966, 0.98081227173274, 0.9786252915229506, 0.9764110074577512, 0.974091056763317, 0.9717268051522502, 0.9691908673062, 0.966483724182576, 0.9637588234514967, 0.9609317129679887, 0.9580231605592628, 0.9549928552209839, 0.9518517937184192, 0.9486293491048019, 0.9453108428836684, 0.9418948061939214, 0.9383881017266444, 0.9348393916383774, 0.9311422957247641, 0.9273578992398405, 0.9234692846566567, 0.9195151092559842, 0.9154788787527627, 0.9113541881612618, 0.9071464140269953, 0.9028922471343526, 0.8985173769253081, 0.8939815795766031, 0.8894633012084002, 0.8848648874263079, 0.8801996463956939, 0.8754447690324573, 0.8706848632150123, 0.8657742582021083, 0.8607964293390779, 0.8557266456074762, 0.8506207376319037, 0.845400563558241, 0.840171358646842, 0.8348767969041013, 0.8295719829950701, 0.8241454440885058, 0.8186006929559981, 0.8130693253350884, 0.8074802550887912, 0.8018469055064733, 0.7961465803515755, 0.7903929696872964, 0.7845915459464184, 0.7787418928789216, 0.7728590147471706, 0.7669162670280802, 0.760963025809646, 0.7549328732810935, 0.7488651611011266, 0.7427576402266702, 0.7366192015503873, 0.7304044008250625, 0.7242052904208192, 0.7179729271866421, 0.7117668381402281, 0.7054660990267572, 0.6991291842421293, 0.6927819238565442, 0.6864119942856336, 0.6800270635059804, 0.6736153882027867, 0.6671369753421701, 0.6606971158734736, 0.6542395351107501, 0.6478353650379791, 0.6413391896205065, 0.6347912106275333, 0.6282851620917449, 0.6217708619021579, 0.6152375298959452, 0.6087132346195347, 0.6022310698808117, 0.5956945743595364, 0.5891600322579131, 0.5826314002894394, 0.5761043314761831, 0.5695886398189541, 0.5630743302704624, 0.5565690517376529, 0.5500208532455413, 0.5435443478109557, 0.5371240559374147, 0.530663590303793, 0.5242192877840345, 0.5177480818520372, 0.5113457012044206, 0.5050231324278126, 0.4986499102880677, 0.49230117657395744, 0.4859380824110274, 0.4796467117165612, 0.4734155873070212, 0.4671725580161972, 0.46096002141948417, 0.4547888877031818, 0.4486395405312606, 0.4424358999428205, 0.43636784033017356, 0.430331456350044, 0.424339209710564, 0.41837016699589136, 0.4124527755777972, 0.40655831125978625, 0.4007049979114073, 0.39487100768707645, 0.38910664653982874, 0.3834479494196049, 0.37776409518904175, 0.37212985968648654, 0.3664749442195877, 0.36095112761536, 0.3555142330905049, 0.3500825212856176, 0.3447034536298104, 0.33937525507884364, 0.33410445911788417, 0.3289011964845039, 0.3237398888206464, 0.31863606637496494, 0.31361884994503364, 0.30862852555076564, 0.3037002693246011, 0.2988326441897568, 0.29402716713281385, 0.2891973012051754, 0.28452854773489833, 0.279952239478532, 0.27539782466385887, 0.2709063049223252, 0.2664668907603488, 0.2621048367305185, 0.25782581000779214, 0.2535908897635329, 0.24942280275371953, 0.24530161112115303, 0.2412711956542768, 0.23727765418340468, 0.23338574989207522, 0.22956031296804028, 0.2258153890243375, 0.22212331583325035, 0.2184897792402634, 0.21493785695704062, 0.2114553275650205, 0.2080479394661413, 0.2047047356845925, 0.20145453530005278, 0.19825037522398664, 0.19511870278424293, 0.19207992417109374, 0.1890905910178458, 0.18613752495925842, 0.183299806295104, 0.180527804158724, 0.17783294404659866, 0.1752089891770177, 0.1726906378380916, 0.17020429464051662, 0.1677793642273821, 0.16544007701972105, 0.16317247294531456, 0.16097100677571805, 0.15884677476584996, 0.15677991416347817, 0.15479852717067327, 0.15288662734002506, 0.151044951859918, 0.14927142866519413, 0.1476015176923729, 0.14596133488269938, 0.14439154538259005, 0.14284716876179215, 0.14142202274238505, 0.14008612022363204, 0.1387901599827574, 0.13756118288646718, 0.13640314472234452, 0.1353061070737219, 0.1342845720340816, 0.13331720720357923, 0.13241498604763363, 0.13153373825266476, 0.13076530568537953, 0.13002471967993834, 0.12938150778578492, 0.12879644626201178, 0.1282560589842462, 0.12778843088482486, 0.1274414338155172, 0.12707887369009135, 0.12677601221795928, 0.12647777722033715, 0.12629842365888463, 0.12621028706245555, 0.1261336016492377, 0.12611193930114073, 0.12607517351514239, 0.12616968233530695, 0.12633487675125993, 0.1265232162416838, 0.12676053074857468, 0.1270505928925407, 0.12738325495556757, 0.12778965656759958, 0.12821234384905877, 0.12868197313064395, 0.1291370908900596, 0.1297050028655463, 0.1303407657987419, 0.13098527087063389, 0.13167042678717, 0.13243349915839417, 0.1331923752142158, 0.13393088074246629, 0.1347761269563093, 0.13565547311578108, 0.1366258916904864, 0.1375638881625835, 0.1384756333990904, 0.1394900870132657, 0.1405335230585156, 0.14159807677309655, 0.14269805259256882, 0.14379935864037577, 0.14495405212426773, 0.14613189556141665, 0.1474005837634065, 0.1486140234793756, 0.14985318118217744, 0.15111481290622958, 0.15239864524350866, 0.15364300428113473, 0.15497499963540262, 0.15636460811937855, 0.15772047372370554, 0.15909222219127578, 0.16043609054450017, 0.16184156807128042, 0.16325181145778686, 0.16467738414002628, 0.16611119186423337, 0.16753558700942703, 0.16898563365542277, 0.17044321466989443, 0.17190194834665515, 0.17336423147723345, 0.17481949265534083, 0.17628767046047927, 0.17779898324201107, 0.17926202174800865, 0.18072637191245997, 0.18215179524713615, 0.1836202147132697, 0.18510739535278636, 0.18656346655420272, 0.18801492716732338, 0.18950872354613946, 0.19094192205097546, 0.19228412725581487, 0.1937171285734185, 0.19513780184037918, 0.19658290536738052, 0.1979725808626803, 0.19937075366012716, 0.20073308481027688, 0.20208282403140257, 0.20338785090492165, 0.20471323555268517, 0.20598663118662175, 0.2072809780546651, 0.20855463924169398, 0.2098001025817998, 0.2110320308969997, 0.2122513233642202, 0.21343677921857196, 0.2145994885995587, 0.21574333152733435, 0.2168583010669058, 0.2179544015359893, 0.21901969424192808, 0.2200598716294733, 0.22112223306713652, 0.22210419695071185, 0.22305917738972286, 0.22399184824121246, 0.22489813228698133, 0.2256963876475975, 0.2265576222817076, 0.22745568488955706, 0.22824137464665245, 0.22899754626368327, 0.22972528942113146, 0.23042018483413057, 0.23107573868827563, 0.2317083634509513, 0.23230806858207761, 0.23281403931550143, 0.2333542414008898, 0.23386665540262927, 0.23433063273336177, 0.23475780451187442, 0.23520141319242002, 0.23554813581106535, 0.23581030148811832, 0.23609502519748757, 0.2363420074523749, 0.23658054335633388, 0.23674831634579965, 0.2368932705368869, 0.23698682490917536, 0.2370444935161974, 0.23698161458025876, 0.23697726582574694, 0.23700160185329416, 0.23690594483316604, 0.23677365877506357, 0.23654950780274572, 0.23635038695585908, 0.23609597850424932, 0.23581872010402263, 0.23550107764810188, 0.23521360398677518, 0.23480752926704002, 0.2343537178184266, 0.23387836230484152, 0.2333665747234841, 0.23282275210689102, 0.232237444145104, 0.23156442494312598, 0.23091320861498624, 0.2302229436182534, 0.2294763616024058, 0.22871168746046736, 0.22792168677217395, 0.2270786134238442, 0.22619875884332574, 0.2252949619610513, 0.22434119146261203, 0.2233223529406627, 0.22230292572912105, 0.2212475106315725, 0.22019394867859252, 0.21906347777861587, 0.21785809426492445, 0.21666862286890526, 0.21544489625409224, 0.2142026051830048, 0.21291023344521803, 0.21156399737530387, 0.2102115255481766, 0.2088270041399656, 0.20747231326842996, 0.20601778690619132, 0.20456132020201795, 0.20305013771875088, 0.2014338713981742, 0.19988242627640299, 0.19830136713307944, 0.19673141195458754, 0.19508834622707485, 0.19340060906329173, 0.19171012286508518, 0.18999420225617009, 0.1883031608657795, 0.1865318701473805, 0.18477168903671687, 0.18295485518158106, 0.18111942354070504, 0.17925478903379283, 0.1773837323665924, 0.17547431585628753, 0.17356841659738276, 0.17164332364670926, 0.16970672527126593, 0.16774412049024695, 0.16584176961047434, 0.16383599521093792, 0.16181873540552805, 0.15977666265137175, 0.15773817858697767, 0.1556441946149226, 0.15358756648367125, 0.15151724608382142, 0.14950061713383656, 0.147396876163432, 0.14530331571940883, 0.1431824289564264, 0.14105552957444495, 0.13893083639852727, 0.13679165327747356, 0.13464423337743128, 0.13249647226712258, 0.13034456842981013, 0.12827423020827464, 0.12610472765034506, 0.12393651411326602, 0.12177136947970035, 0.11960824600724747, 0.11748631667352484, 0.11532270561269231, 0.11320028249665867, 0.11104166569731078, 0.10889002543770294, 0.1067213072704586, 0.10458651643972434, 0.10248850997423932, 0.1003616209335758, 0.09824306207471921, 0.09618725375945573, 0.09407936298008877, 0.09204597905235525, 0.08995495751789481, 0.08787990645771122, 0.08582230323632684, 0.0837782131593758, 0.08181451400939939, 0.07979344516138541, 0.07779180984499791, 0.07581021895977696, 0.07384664708558676, 0.07195984014001598, 0.0700271683233945, 0.06811706060672411, 0.0662435258154097, 0.06437629014409203, 0.06248336874875399, 0.06066863288248236, 0.058874471080976314, 0.05715654536183417, 0.0553984454827989, 0.05366948327472721, 0.05196234538157826, 0.05028153653203673, 0.048728605180727705, 0.047088710706362016, 0.045467770781413834, 0.04389564752110424, 0.04235532886150148, 0.04088234632109132, 0.039401287562906, 0.03798984665478183, 0.03657246943065605, 0.03519121004985174, 0.0337926498074726, 0.032490023556847374, 0.03126477746680072, 0.03002307196501411, 0.028817978240114533, 0.027710987487353823, 0.026572112790030245, 0.025468798986779683, 0.024412245521023664, 0.02339611688857154, 0.02239120172215593, 0.0214599549890297, 0.02064873152328101, 0.019786219346811053, 0.018968465901693394, 0.018182015527976807, 0.017455134890230383, 0.01681471373636893, 0.016170324378675247, 0.01557260086635048, 0.014969979109853817, 0.014471964465004043, 0.01409585891451159, 0.013676058789476019, 0.01330549058848691, 0.012995594857900701, 0.012721797124797065, 0.01249156195969618, 0.012318095935543177, 0.012194097814457397, 0.012071771519404714, 0.012053250474714092, 0.012149529050946208, 0.01221774764462004, 0.01233829910100884, 0.012510324649815049, 0.01273578273149047, 0.012997748088111343, 0.013330347074394863, 0.013714848405887731, 0.014185306440802223, 0.014670295469808246, 0.015214467428609742, 0.015808423669265763, 0.016457484317305215, 0.017103998711961225, 0.017870768351664176, 0.018704746202487237, 0.019574423115225004, 0.020498190156666495, 0.021444464302392687, 0.02248156750607706, 0.023567595336528777, 0.024712554483023536, 0.025911708697217452, 0.02724546400810506, 0.028544354090556143, 0.02983047269451592, 0.031258350365274315, 0.03274165086701572, 0.03426210802775798, 0.03585970568400066, 0.03758372123207812, 0.0392835305761256, 0.0410434891390571, 0.04281628349861674, 0.04470174515968327, 0.04660939535439094, 0.048613057021235216, 0.05067194630800134, 0.052816664735117556, 0.05498337662602916, 0.057198313304910105, 0.059482249311446876, 0.06182362647480226, 0.06418165824383787, 0.0666432208975591, 0.0691973150740867, 0.07176496200835067, 0.07439051407281332, 0.07702415217370248, 0.07977148902476636, 0.08256383671638091, 0.08542222506294592, 0.08833530602084036, 0.0913033034899811, 0.0943263806322405, 0.09744548635467117, 0.10057383231929277, 0.10375972729500052, 0.10697972911813199, 0.11028256923971246, 0.1136423718118767, 0.11705519465485258, 0.12052294919624348, 0.1240383093840622, 0.12761613825339732, 0.13120161127685057, 0.13489268679058325, 0.1386345311748882, 0.14241837952335398, 0.14626315973778106, 0.15020009018640346, 0.15414044286686243, 0.15813351211957147, 0.16213357643527104, 0.16623647318662968, 0.17040773322383657, 0.17460572352128587, 0.178853392797071, 0.18307225604837346, 0.1874280747780226, 0.19181118461264846, 0.19625766239275957, 0.20077430284220416, 0.20530462205949265, 0.20988017523055313, 0.21450693191346015, 0.21917137741702905, 0.22387341082318168, 0.22862769400997499, 0.23342535189552474, 0.23822598192232117, 0.24311405744544465, 0.2480249455758972, 0.2529942924391227, 0.2580018575899654, 0.26309625614965304, 0.2681733625558245, 0.27323729941372965, 0.27840054004227455, 0.2835992800540202, 0.28882336875913495, 0.2940931322537294, 0.29939297673105075, 0.3047299924552502, 0.3100994658863947, 0.31553460277192064, 0.3209630821295772, 0.326414414651418, 0.3319084385187806, 0.3374326747222092, 0.34294454262453244, 0.3485319139392394, 0.3541578877546818, 0.3597935994609472, 0.365454202850072, 0.3710794643332037, 0.37679510094906377, 0.38251664764730436, 0.3882720763488365, 0.3940452095395137, 0.39986939050230225, 0.40567240222453094, 0.41146429629470377, 0.4173064919780775, 0.4231634330320892, 0.4290468537342797, 0.43492957755554584, 0.4408255137659856, 0.44673373251125015, 0.4526532802538695, 0.45852280842135307, 0.46446970382187547, 0.4703860454934263, 0.4763468095198556, 0.4823093819294176, 0.4882911212300822, 0.49425377384682856, 0.5001946733875245, 0.5061621051276656, 0.5121279170806678, 0.5180940579935374, 0.5240540846320133, 0.5300085340100611, 0.5359602720720608, 0.5419062458714926, 0.5478623475752745, 0.5537916936894615, 0.5596377221645767, 0.5655597022838713, 0.5714671753713277, 0.5773595275853546, 0.5832360650175901, 0.5890631716790304, 0.5949098722757719, 0.6007364326331959, 0.6065199832700883, 0.6123069721664106, 0.6181191627509423, 0.6238520148804395, 0.62956249619912, 0.6352369382763368, 0.640900523158154, 0.646547060506482, 0.6521546190619073, 0.6577335678683975, 0.6632053917096008, 0.668733068801897, 0.6742488407510163, 0.6796991928377271, 0.685112796409742, 0.6904442660231576, 0.6957869724195119, 0.7010651662760146, 0.7063253215158853, 0.7115403990622031, 0.7167745416406497, 0.7218891856044914, 0.7269566178097576, 0.7319830063442939, 0.7369627837796199, 0.7418147208127575, 0.7467074231919197, 0.7515806138980881, 0.7563581336793926, 0.761081273142689, 0.7657125806479662, 0.7703283975222361, 0.7749130111601295, 0.7794052144444549, 0.7838377704713544, 0.7882113556383565, 0.7925210924070745, 0.7967155957701987, 0.8009051407150563, 0.8050266720834394, 0.8090457701640802, 0.8130334513364227, 0.8169304091292215, 0.8207757649421045, 0.8245468834286747, 0.8282858914758534, 0.8319016133523646, 0.8354172010462494, 0.8388882937176003, 0.8422823959760651, 0.8455667664177853, 0.8488085725663496, 0.8519727538918067, 0.8550511898038036, 0.8580474718106625, 0.8609458367660086, 0.8637776867064352, 0.8665164705204955, 0.869178575708627, 0.871753924136362, 0.8742943151392502, 0.8766877534387447, 0.8789334126843683, 0.8811623932316212, 0.8833001873004531, 0.8853640817750345, 0.8873158271992758, 0.8891918978805415, 0.8909576515690287, 0.8926313391506239, 0.8942237395119852, 0.8957095771154132, 0.8970485290628738, 0.8983531096820443, 0.899559602354633, 0.9007325688363693, 0.9017339244023509, 0.9025876583791801, 0.9034043614297111, 0.9041213518601267, 0.9047090758546161, 0.9052295856284155, 0.9057074759069857, 0.9060162551195846, 0.9062262522821839, 0.9063538287201552, 0.9063626560063702, 0.9062314331552392, 0.9060465086095784, 0.9057591498993822, 0.9053382337285044, 0.9048498048507603, 0.9042890606911799, 0.9035882845852595, 0.902785511344435, 0.9019153389731893, 0.9009041363884023, 0.8997289524765982, 0.8985254958020733, 0.8972180091629345, 0.8957909219540423, 0.8942786201081666, 0.8926705937237699, 0.890950376601261, 0.8891279291880376, 0.887279155482921, 0.8852440182816328, 0.8830500563256385, 0.8808292710181421, 0.8785080964311532, 0.8761438634863971, 0.8736162646641099, 0.8709877048064636, 0.8682696072143605, 0.8654558419218243, 0.8625227191273255, 0.8595215559771989, 0.8564252914873826, 0.853232683737208, 0.8499454560027914, 0.8465190211818524, 0.8430503856487798, 0.8394911898403896, 0.8358331324751646, 0.8320825829853821, 0.8282432743733402, 0.8243106057880971, 0.8203393940924103, 0.8162230637065613, 0.8120225034868124, 0.8077285898731322, 0.8033627923279727, 0.7989178708642806, 0.7943871629332169, 0.7898050969241657, 0.7851103102037083, 0.7803384312187318, 0.7754378609081981, 0.7705208388367054, 0.765513013077816, 0.7604440932405896, 0.755299721844686, 0.7501417740009031, 0.7448433612567181, 0.7394267577605178, 0.7340005735469203, 0.728506017079943, 0.722937500996247, 0.717311644140395, 0.7116890401191952, 0.7059277808870245, 0.7001092349547583, 0.6941687314925474, 0.688247076581558, 0.6823369871283672, 0.6762929481831402, 0.6701985878508794, 0.6640364280565747, 0.6578473437390595, 0.6515786077949535, 0.6452996720120932, 0.6389742528269168, 0.6326236803433989, 0.6262082096502917, 0.619782910217944, 0.6132852138708668, 0.606752456360789, 0.6001496459569586, 0.5935556425939291, 0.5869457617531114, 0.5802859547334286, 0.5735979892916933, 0.5669110692389232, 0.5601683627930886, 0.5533925836549924, 0.5466097735235075, 0.5398078194895426, 0.5329892724997914, 0.5261539267290188, 0.519292989021357, 0.5124327093254514, 0.5055611587142309, 0.4986988067899374, 0.49180782984701393, 0.48483574272900104, 0.4779465780769875, 0.4710517252520808, 0.4641641484591354, 0.45726343658648005, 0.4503492793985496, 0.44345581498426295, 0.43656719689538726, 0.429742333872188, 0.42286243376260374, 0.41594607633428354, 0.4091023676655822, 0.40227297201733675, 0.3954900086778023, 0.38869118195465907, 0.38187853528935206, 0.3751291710336002, 0.36840267527248116, 0.3616991392894971, 0.3550241675714523, 0.3483756771014247, 0.34175921669948855, 0.3351744256203338, 0.32864966083525793, 0.32212997327044507, 0.3156573987235474, 0.3092144740983652, 0.3028131142474363, 0.2964351281977823, 0.2901233975512477, 0.283899677657122, 0.27767296567872074, 0.271496194507951, 0.26536248921598093, 0.2592899796440425, 0.2532845784456685, 0.24731731326348233, 0.24140622045923443, 0.23551602120743365, 0.2297252558706618, 0.223981364617066, 0.2183084409370948, 0.21269528790564363, 0.2071131712494578, 0.20162768842047435, 0.19620361660422378, 0.19084440618025156, 0.18555049771122736, 0.1803588349021246, 0.17519526430510043, 0.17012617058676877, 0.16510342651566734, 0.1601552700697466, 0.15525224782565472, 0.15045928510161688, 0.1457227725369028, 0.14108332846742086, 0.13651983829057196, 0.13205376962676468, 0.1276426917689276, 0.1233019264804108, 0.11905296616928415, 0.11488495809236944, 0.11077290092188292, 0.1067722527930681, 0.1028292629045291, 0.09899574439320463, 0.09524412444406152, 0.09158862884128527, 0.08800176514729577, 0.08447961235102606, 0.08106616488552418, 0.07773779107364642, 0.074548390589268, 0.07138524471796596, 0.06830917839551086, 0.06532585744290438, 0.062432128181104676, 0.059566738529487594, 0.05685995402356097, 0.054239311432044794, 0.051705269295132035, 0.049258207638771936, 0.046898432644262536, 0.044626180944947795, 0.04243452077209875, 0.04033866478210451, 0.03833026384412684, 0.03641114545076583, 0.03457752557947102, 0.03282611223396841, 0.031168100419103444, 0.029597008637318793, 0.028183679034423054, 0.02677683985961811, 0.025403380983183385, 0.02418323326433681, 0.023048330744396106, 0.021973423102076516, 0.02101094413023526, 0.020205609074652447, 0.019398528045948087, 0.01867753461212776, 0.017989229731431258, 0.01744400854487539, 0.016950537001457242, 0.01656868715550558, 0.016264276011295244, 0.016110597501895398, 0.015950486655926265, 0.015809298752528508, 0.015816123774904132, 0.015897355611843952, 0.016078088036460967, 0.016302866566125434, 0.016570313645768324, 0.01694550531387117, 0.017390675139094196, 0.017960972113734004, 0.01853662216020084, 0.019177566628153144, 0.019893764682401067, 0.020677564908451188, 0.02150902717649619, 0.022426508810053637, 0.023360506825366344, 0.024408060018998434, 0.02551341826036299, 0.02669353761263421, 0.0279097940473811, 0.029136093957148817, 0.03046948935654254, 0.03185422918275724, 0.03332412542495462, 0.03480465918813125, 0.03631451274461114, 0.03789769980676218, 0.0395277027029003, 0.04119181106275369, 0.0429133600053744, 0.04471474548582027, 0.046515488818423885, 0.04835846150631658, 0.050274951582941506, 0.05219354645603543, 0.05407252072173517, 0.05607808749891445, 0.0581150240218003, 0.06017778028157645, 0.0622746362832576, 0.06439381143267632, 0.0665454258164677, 0.06873613814382323, 0.07093450148086235, 0.07315603867923334, 0.07539577596168233, 0.07765982878342037, 0.07992656805403385, 0.08222854779632027, 0.08454542883313032, 0.0869460303894633, 0.08927986060605236, 0.09158677276250811, 0.09395355844717411, 0.0963289854219278, 0.09867604249736979, 0.10106875788515664, 0.10351692312994619, 0.10590607298157846, 0.10829798933767569, 0.11070876486583728, 0.113099011051535, 0.11548013969483926, 0.11786743507559001, 0.12024978841883424, 0.12260789250241767, 0.12497799032511946, 0.12729054345342924, 0.12964430303832486, 0.13198232357743245, 0.13432678019063823, 0.13662764255653342, 0.13895740419161648, 0.14121670847384477, 0.14345897187268164, 0.14560540501247274, 0.14781876556054616, 0.1500417780473256, 0.15219814643222698, 0.15432905727553267, 0.1564644615227239, 0.15853716987430314, 0.16058105743781126, 0.16259856858182262, 0.1645863189609022, 0.166470279580165, 0.16840407823450937, 0.1702978115311384, 0.1721566208129001, 0.17397679740341085, 0.17579239949354478, 0.17752920134309078, 0.17925949518946238, 0.18091440141388196, 0.18253082623991237, 0.18407656931054098, 0.18561663853776197, 0.18711504410017255, 0.18856729235781783, 0.18997478270710955, 0.19133859444921195, 0.1926542763960086, 0.19388154601894667, 0.19510849174655737, 0.19628514591186658, 0.19745564061851692, 0.198525301695096, 0.19952059003563655, 0.20049560362055674, 0.20141928186427557, 0.20225041729140594, 0.20307550182672932, 0.20386987052839484, 0.20458255254000812, 0.20524187620820888, 0.20586980670306676, 0.20641892432272455, 0.20687353986787158, 0.20732201409438378, 0.2077146646686536, 0.20804442563936165, 0.2083264320601151, 0.20862600542928975, 0.20878653350245782, 0.20889524598365877, 0.20887883262543153, 0.20889167574004075, 0.20887662194864554, 0.20877166398218291, 0.20861173629759758, 0.20840487557706286, 0.20813416351354902, 0.207835785548558, 0.20745316671522332, 0.20701790393632494, 0.20645888837922222, 0.20592713521468273, 0.20539994642235945, 0.2047477122678402, 0.20404351669346193, 0.2032741716479314, 0.2024681744907307, 0.201644626239272, 0.2007302712078684, 0.19976645948715283, 0.1986823148030581, 0.19762908598709047, 0.19657631846390247, 0.19541162797159467, 0.19419888216453668, 0.1929464974657439, 0.19163794682771088, 0.19028406865691713, 0.18888344652918607, 0.1874376425827405, 0.18595252711104235, 0.184417352237109, 0.1827795457705895, 0.18116620383624724, 0.17950761914420912, 0.1778413425348467, 0.17609108807580973, 0.17429034393570592, 0.17246254631913172, 0.17059589438552555, 0.1687472235794993, 0.16679849952550796, 0.1647679492562503, 0.16275987997247868, 0.16071707733967738, 0.15873197145602808, 0.1566110885140972, 0.1544697763605811, 0.15229507861241562, 0.1500947000635764, 0.14786725753838134, 0.14561700478732006, 0.14338057459812129, 0.1410774243163915, 0.13875340186351587, 0.13638409662976217, 0.1340229080746191, 0.13165081975448803, 0.12924794974359155, 0.1268267709515062, 0.12441479758820595, 0.12195630903480079, 0.11956366245332198, 0.11706771129296839, 0.11456377238502462, 0.11201034470518614, 0.10949651124243885, 0.10706483112050569, 0.104521734776519, 0.101976299572985, 0.09942166056481286, 0.0968732837285157, 0.09437562585665722, 0.09181792628138608, 0.0892628395962272, 0.08674091029874144, 0.08418841909423558, 0.08164785016630373, 0.07910640500050473, 0.0765719576695505, 0.07408503041884275, 0.07156132326010012, 0.06908433278009782, 0.06657902273400304, 0.06408797033608925, 0.06157604155435724, 0.059119244001322, 0.05678537110561715, 0.054343158955226706, 0.05192274096380424, 0.04947099031299608, 0.047101461273317005, 0.044857205719279154, 0.042514481503539044, 0.040199191226233645, 0.037859092227285104, 0.035605842331959486, 0.03343025928206552, 0.031221853380336752, 0.029043502859732312