0.02601402511260362, 0.0257667004908567, 0.025501157014316295, 0.025300124338432692, 0.025113065764432934, 0.02501868520205427, 0.024843391914236245, 0.024664722012209567, 0.024515707014965925, 0.02437520974432842, 0.024167139746877883, 0.024049489267429926, 0.023931418797766127, 0.023815995843648557, 0.023701411831172074, 0.023575734785032932, 0.023464504920692866, 0.023430003208305565, 0.023310251344887862, 0.023195766434704935, 0.022999465396542466, 0.022905640086232495, 0.022877355528587526, 0.022775248185995082, 0.022677747201877572, 0.022589366848207084, 0.022500626214017116, 0.02239149390863948, 0.022316136668589726, 0.022244588718100065, 0.022117343657258464, 0.02206198284541446, 0.02207987019449165, 0.02201909460522985, 0.02196530010372803, 0.021867701494336582, 0.021834557547042034, 0.021855190881289465, 0.0218251408306994, 0.02180327029566927, 0.021764188833829152, 0.021762034502634763, 0.02174435676039135, 0.02175915642186183, 0.021780159744433793, 0.021830236990018567, 0.021862061123508542, 0.021848670943232975, 0.02190474291879217, 0.021966730474455888, 0.02201276575453586, 0.02209108434720518, 0.02221151843060869, 0.02229831501767138, 0.022394469770706173, 0.022512140775180586, 0.022626052196690734, 0.02274603143912027, 0.022881677659088103, 0.023027741587255478, 0.0231783368720338, 0.023346286168849, 0.023521618136975262, 0.023710841951927457, 0.023910561212912594, 0.024080544331536637, 0.02430684347686523, 0.024595701199194315, 0.024833063586111467, 0.025083052264827245, 0.025285783562757087, 0.02556848896030018, 0.025842444726660706, 0.026146321414043782, 0.026459339155380124, 0.02683740797528092, 0.027163321351333196, 0.027450631357277995, 0.027810650785814794, 0.028151520101589465, 0.028537286084556062, 0.02893294759300354, 0.029403425558813555, 0.02981245345436896, 0.030259024410189978, 0.030695330468905005, 0.03114784301610707, 0.03156846069888227, 0.03205879938955146, 0.03258304081069914, 0.033096916091843925, 0.03362544629704315, 0.034149250802662776, 0.03470976178681126, 0.035270596085800764, 0.03586062815503488, 0.036464162967001244, 0.03703215219365661, 0.03766987504550942, 0.03834614920597056, 0.039004357731078375, 0.039676923510642864, 0.04037162495186207, 0.041072823476850345, 0.041800078392692355, 0.04253127655488677, 0.04327894356343409, 0.044085013223832736, 0.04486045087757809, 0.04555160524232211, 0.04637768872684937, 0.04721636822760279, 0.04814604660796682, 0.0490018315200172, 0.0498776888126554, 0.05077022494756019, 0.051681021555581255, 0.05252312854282119, 0.05348090512138374, 0.0545264030862964, 0.055501131985926565, 0.056494054613614494, 0.05744665980940037, 0.058482869164928356, 0.05953354707110321, 0.060599036574020076, 0.06167963188838638, 0.06277259042239675, 0.06388448353644118, 0.06500895209676319, 0.06615252007664187, 0.06731177626084407, 0.06853172306324147, 0.06971700999489466, 0.07089234797768151, 0.07211785567471522, 0.07335961313196912, 0.07463850753127199, 0.07590993103177528, 0.0771910917820637, 0.07849763768402526, 0.07982047553340828, 0.08113249877822605, 0.08249079485282954, 0.08382893255646118, 0.08522012227372329, 0.08662368483258709, 0.08807429327108666, 0.08949898271831554, 0.0908967070193902, 0.0923563704983054, 0.09382825347864533, 0.09530053274276021, 0.09679875370827347, 0.09834322156515919, 0.09986086968445208, 0.10139244343263643, 0.1029182259514991, 0.10447929985502001, 0.10603443210145409, 0.10762166849789624, 0.10921962396922734, 0.1108447224250144, 0.11246189811494461, 0.11414137281135348, 0.11577471236427979, 0.11742178821627038, 0.11909087613506572, 0.12076222880350139, 0.12241142938681608, 0.12411098700564425, 0.12581958782943792, 0.12755337769732272, 0.12927704781762023, 0.13095139444302237, 0.13270003464354466, 0.13445352787614248, 0.1362029353130679, 0.1379673330923555, 0.13978990794567744, 0.14155610686726086, 0.14332954884418034, 0.14513512002675003, 0.14691820650281276, 0.14861561002062343, 0.15042386154238763, 0.1522325960514624, 0.1540688455235293, 0.15587538473521276, 0.1577304176998468, 0.1595350345282698, 0.16134377016680662, 0.16307214218400917, 0.16489763050559805, 0.16673547282280593, 0.1685539042798171, 0.17037060193376496, 0.1722512007696659, 0.17405549398364323, 0.17583413475461304, 0.17764356559428093, 0.17945115860259742, 0.18128331243804657, 0.1830822377940536, 0.18479547870568575, 0.1866004547284276, 0.1883973869117447, 0.1901937521689261, 0.19197358112714238, 0.19373961889354616, 0.19550436538625252, 0.1972604820534013, 0.19908103034008215, 0.20080984462547322, 0.202527318776995, 0.20424524854541795, 0.2059556761641756, 0.20764135618147475, 0.20933652876375752, 0.21097762345552307, 0.21265633579689702, 0.21432080573122803, 0.21599776647985183, 0.21762972279374657, 0.2191809331823291, 0.22079404776925438, 0.22238894464275216, 0.2240554227365221, 0.2256025721733371, 0.22706763542395064, 0.22859608878795962, 0.23010572756590142, 0.23166364583639623, 0.23312642262002284, 0.2345299948888658, 0.23596576344694786, 0.237381609164909, 0.23876065271939992, 0.24013746057107435, 0.24155647059012514, 0.24288058334857932, 0.24418555299660394, 0.2454376115615616, 0.24670594417282882, 0.24792693385451745, 0.24915103120808854, 0.2503494847537692, 0.25156992316120885, 0.25271028106051746, 0.25379248440996266, 0.2548890268494887, 0.2559585768796738, 0.25696489900841457, 0.25798401178789704, 0.25896414268381834, 0.25992433131464027, 0.2608538777161606, 0.2617931311488035, 0.2626561143192972, 0.263538355789795, 0.2643375866669695, 0.26510997064485053, 0.26577539603607075, 0.2665017157568671, 0.26722139301269576, 0.267877156210252, 0.2685008130378133, 0.2690382242437062, 0.2696036406139149, 0.27020790310950227, 0.2706921127598507, 0.27114484852562304, 0.27153416878151165, 0.2719263950625116, 0.27233030220937715, 0.27264710525677777, 0.27293148532973355, 0.2731425130017627, 0.2733655970094733, 0.2735854411623153, 0.2737319817457103, 0.27384406507219144, 0.27383158581662564, 0.2738851155001025, 0.27391617916470934, 0.27388707573444826, 0.2738882676918575, 0.273773628118215, 0.27362472323478004, 0.2733872981270115, 0.27317553015096335, 0.2729284135457511, 0.27263975199106544, 0.2723132339961834, 0.27195645260597306, 0.2715536060812313, 0.2711256080982886, 0.27064704329420775, 0.2701321057904119, 0.26960318739106953, 0.2690125381836789, 0.26830440024902796, 0.2676535715850436, 0.26696261182805203, 0.26628594376386255, 0.2655095569820321, 0.2646961220123421, 0.2638488267461117, 0.26296593117383527, 0.26205049052860324, 0.2610962249379516, 0.2600663805511917, 0.25904694899593667, 0.2579902789629019, 0.2568938400238729, 0.2557644354873195, 0.2546318635521296, 0.25342656758000576, 0.2521878871936343, 0.2508950178196542, 0.2495926613915375, 0.24824875442074637, 0.24687957867172644, 0.24547666279854802, 0.24406587558349266, 0.24259356463713036, 0.24105432654253203, 0.23952473202764749, 0.23796256389381615, 0.23640727543118714, 0.23477669412169141, 0.23308892397255632, 0.2314046184272219, 0.2296904028222864, 0.22794228707043193, 0.22617031258196915, 0.22445494609220193, 0.222615388510372, 0.22075301798570934, 0.21878539800669072, 0.21688743357709744, 0.21497230184313107, 0.2130184763105073, 0.21103906649662993, 0.20904217836112707, 0.20701252798771097, 0.20500745642442034, 0.20292572100529796, 0.2008245024346127, 0.1987518637798453, 0.196606246504126, 0.19437723497682088, 0.19220794237440858, 0.1900187979258842, 0.18785385272304495, 0.18562151939472618, 0.18332141785467787, 0.1810652256384519, 0.17879139958312681, 0.17650227783327324, 0.1741955070170689, 0.17190060068366464, 0.1695610863134606, 0.16720959122628803, 0.1648496643208951, 0.16247551873409785, 0.16015711317334982, 0.15775505438585788, 0.15534778861398577, 0.15293689968334925, 0.15051937338649857, 0.14808375277956123, 0.14565896032976103, 0.14322942283085774, 0.14085399779484156, 0.13840915827888817, 0.1360407771226717, 0.13358673930541273, 0.131137487557914, 0.12868521501520266, 0.12624564310654993, 0.12377396149868038, 0.12134663635887079, 0.11892141479664485, 0.11652281311088998, 0.11410054656552784, 0.1117733352247605, 0.10935078377479499, 0.10693957471907112, 0.10447522682967986, 0.10209451123775712, 0.09978726532465877, 0.09741421226145701, 0.09505392034471413, 0.09265872795337686, 0.09033072991618417, 0.08805406896445639, 0.08574365874679556, 0.08344808212088906, 0.08122917089685812, 0.07895702485807056, 0.07666734771742793, 0.07443977718857002, 0.07223027387535448, 0.07007381401791635, 0.06789782255220571, 0.06575857066485201, 0.06362460688684317, 0.06151403456233536, 0.059513960216132554, 0.057440253734005874, 0.05543186546101029, 0.053412216285983444, 0.05142365899194372, 0.04946291089746561, 0.04753617349741536, 0.045677263801329686, 0.0438067277290484, 0.041968959864994715, 0.04011602466850176, 0.03834976514397892, 0.036689997367841336, 0.03497506788202953, 0.03329581930410772, 0.03160888085745385, 0.030006612910145815, 0.02850820232666464, 0.02696471983464588, 0.02545992339669972, 0.02393252340262353, 0.022513078501201333, 0.021226486714206835, 0.019866702356191715, 0.018549450033085065, 0.017207336993467163, 0.01598353411982199, 0.014823943250083292, 0.013675166762185598, 0.012567951059456987, 0.011577549802192092, 0.01054535598912046, 0.009522891752743488, 0.008589555373094459, 0.007701056950510005, 0.006886127695264515, 0.006084647627737196, 0.005403879361916782, 0.004688061852966539, 0.004024045813452296, 0.0033291487584181886, 0.002778043222860159, 0.002367463385217249, 0.0018975115320021226, 0.0014801566955589662, 0.0011285993373520236, 0.0008140205526876869, 0.0005387587676829948, 0.0003312764627491793, 0.00017554546266667829, 4.918272771645082e-05, 0.0, 8.340506431354091e-08, 5.293765662270747e-05, 0.0001571127071987464, 0.00040120210513633163, 0.0005978243234874248, 0.0008367067826585036, 0.0011492471255092696, 0.0015174134580488957, 0.001911130722210481, 0.002393914212881712, 0.0029527464055841344, 0.0035401039398748973, 0.004182716633961462, 0.004843187732451847, 0.00560106959542078, 0.006482478359874809, 0.00733823142036454, 0.008251788089089532, 0.009194433811653597, 0.010226364664843501, 0.011393043713092568, 0.012525905303781832, 0.013718757549528188, 0.014893202921936617, 0.01621414082467535, 0.01759359611616305, 0.019022240696270763, 0.02051604117183434, 0.02205285025239227, 0.023645151037629052, 0.025304903932377904, 0.027006638417250213, 0.02883329538490057, 0.030638393682568262, 0.03250317499956877, 0.034373083968728346, 0.03636201644996267, 0.038395234768287836, 0.04049491718355095, 0.04264857832557644, 0.04491453771012761, 0.047168675186024765, 0.04949039220340343, 0.05185686062554872, 0.05427994454059293, 0.05678001819318458, 0.05931201193871433, 0.0619136623765586, 0.06455570222494106, 0.06725346515268057, 0.06999432562602764, 0.07280312562902479, 0.07563522363898828, 0.07855381201837998, 0.08152309209177112, 0.08452345621452771, 0.08759608525787298, 0.09079109380757586, 0.09395254321081557, 0.09716703362563274, 0.10041739441394586, 0.10373794729663621, 0.10705024715216176, 0.11047789129392989, 0.11395141711687554, 0.11753217655484002, 0.12108969619382967, 0.12470689758910943, 0.1283608856038146, 0.13206343840394963, 0.13576151973897577, 0.13956582651122426, 0.14340333632165828, 0.14729612925783486, 0.1512315947630698, 0.15521554063802886, 0.15923502259121658, 0.16330882774790345, 0.16741116308476936, 0.17155581234379225, 0.1757108665727158, 0.17994263044048509, 0.18425981538422712, 0.1885635292838934, 0.19290830494284475, 0.19732483765138345, 0.20174561001751515, 0.20619061960334106, 0.21069391932141696, 0.21523514635133834, 0.21975521995211295, 0.22437749273866864, 0.2290681665067412, 0.23375066495901248, 0.2384671758304479, 0.2432425268760806, 0.24802202610915097, 0.2527977342672096, 0.25764836200997576, 0.26252887866266866, 0.2674163619643677, 0.27235802991848046, 0.27735973764916727, 0.282351138760964, 0.2873707598494652, 0.29243436276311413, 0.29750625950453496, 0.302606715013923, 0.3077317244660253, 0.31288225086905047, 0.31800662487942716, 0.32321222355802287, 0.3284246553585948, 0.3336721986347799, 0.3389385367945823, 0.344230827928912, 0.3495327964342551, 0.3548588612504167, 0.36019578742740693, 0.365550115057048, 0.3709541488150092, 0.37633727519426213, 0.3817751800480876, 0.3871874155624909, 0.39261731899967706, 0.3980098586947957, 0.4034784448083931, 0.4089912333877262, 0.41447764774975204, 0.4199760101066944, 0.4254405622183712, 0.4309658900039131, 0.4364711548412469, 0.44201316575834837, 0.44755959384431276, 0.4531669970519413, 0.4587141422378479, 0.4642439330157602, 0.46980638381292017, 0.4753723207826155, 0.4809066779893515, 0.4864819619790813, 0.49208523641364804, 0.4976556569424395, 0.5032263996048167, 0.5087653442721838, 0.5143385926121321, 0.5199322200639889, 0.5254948674154751, 0.5310543507281688, 0.5365590904584714, 0.5421165358081174, 0.5476777853514216, 0.5532170788073332, 0.5587482084381339, 0.5643245294512764, 0.5698309821123589, 0.5752962897896073, 0.5807926093354442, 0.5862782699764999, 0.5916658279305314, 0.5971391222222352, 0.6026831261285311, 0.6081101543967593, 0.6135245128009688, 0.6188834449544043, 0.6242751779009162, 0.6296388675348735, 0.6349963005602202, 0.6403345824149242, 0.645627829408572, 0.6509296416171358, 0.6562513225978314, 0.6615034654265016, 0.666735230974127, 0.6718949981073675, 0.6770901823199249, 0.682185083551179, 0.6873384384509865, 0.6924614132427368, 0.6976304954982072, 0.7026835165687297, 0.7076313939200274, 0.7126420168402073, 0.7176208958790478, 0.7225484970981491, 0.7274660144415839, 0.732363680560885, 0.7372127262594945, 0.7420288636829943, 0.7468102132724372, 0.7515595295365967, 0.756273082942645, 0.760953570439941, 0.7655987096752568, 0.770148132065591, 0.7747285425803153, 0.7792895525961386, 0.7837865241397052, 0.7882440549549844, 0.7926288290657322, 0.797010398728756, 0.8013807933367117, 0.8056729794309553, 0.8099238310361995, 0.8141312741454209, 0.8182979035153828, 0.8224213574467703, 0.8265010519025996, 0.830536399910048, 0.8344564978457903, 0.8384102798578257, 0.8423678668970205, 0.8462147148793663, 0.8500144326891496, 0.8537709359208422, 0.8574741114336705, 0.8610449219353529, 0.8646609257254314, 0.8682224633295856, 0.871811919236094, 0.8752543497926835, 0.8786141124098765, 0.8819604441102566, 0.8852537040604649, 0.8884096896415599, 0.8916061289684122, 0.8947569848257928, 0.8978338720160369, 0.90085287773972, 0.9038109931629741, 0.9067145133142261, 0.9095448269941697, 0.9123336207832744, 0.9151079223872975, 0.9177722193563651, 0.9203794737323071, 0.9229351601920177, 0.9254260589422644, 0.9278213657841108, 0.9302001020434129, 0.932517548144503, 0.9347765286533302, 0.9369704970334539, 0.9390354710559671, 0.9411143779399185, 0.9431273668057899, 0.9451510386987649, 0.9470233797379808, 0.94874652360761, 0.950507674921288, 0.9522019883876996, 0.9538880869436686, 0.9554421154667079, 0.9569003226922171, 0.9583323466794492, 0.9596989331671416, 0.9609775925553597, 0.9622159820786237, 0.9634443414413868, 0.9645418801417056, 0.9655758995833233, 0.9665235505970782, 0.967432182663386, 0.968288388336472, 0.9690634163982177, 0.9697730806500853, 0.9703707965412018, 0.9709550034702099, 0.9715081010108317, 0.9719507953008111, 0.9723275316517634, 0.9726247403289863, 0.9728709690560884, 0.973047239284568, 0.9731599782507123, 0.9732057182910624, 0.9731770807853506, 0.9730900788141167, 0.9729135374525751, 0.972695355229762, 0.9724091728237655, 0.9720014916165718, 0.9715871788370483, 0.9711088507605716, 0.9705545242581544, 0.9699319534214518, 0.9692073005679028, 0.9684542638137508, 0.9676476020681462, 0.9667562356844728, 0.96579852797281, 0.9648198581212752, 0.9637252517304428, 0.9625861759473394, 0.9613645106657982, 0.9600815690735044, 0.958695426162161, 0.9572951676980288, 0.9558447714109013, 0.9543160321744226, 0.952725295035249, 0.9510698795955808, 0.9493564732904849, 0.9475624269662664, 0.9457294736648126, 0.943835000730642, 0.9419094843946958, 0.9398898456646759, 0.9377820889928092, 0.9356501388634153, 0.933458937883799, 0.9312195526979089, 0.9289103042309921, 0.9265202274719236, 0.9241007262880221, 0.9216240074136253, 0.9191162217468504, 0.916523992253703, 0.9137838377516161, 0.9110966637094065, 0.90835151260808, 0.9056005290611804, 0.9027367504011631, 0.8997526441715523, 0.8967952162188775, 0.8937837466700209, 0.8907314197952375, 0.88761393278693, 0.8844210935124254, 0.8812079227009393, 0.8779452479187457, 0.8746416282339312, 0.8712821851223307, 0.8678827327157359, 0.864431431143677, 0.8609362170232527, 0.8574532355513982, 0.8538655570088828, 0.8501795686821874, 0.8465228416520704, 0.8428249773656024, 0.8390808891179141, 0.8353041839823601, 0.8315051107714005, 0.8276495813082109, 0.8237579486337948, 0.8198758428338158, 0.815908579327105, 0.8118366884245345, 0.8078164632443205, 0.8037616742016537, 0.7997332627970336, 0.7956050461542709, 0.791445844325344, 0.7872625610314572, 0.7830522392849564, 0.7787437097673882, 0.7744903484278213, 0.7702872268061106, 0.7659670392965653, 0.7616248092931807, 0.7572296945664053, 0.7528491182815328, 0.7483957127074602, 0.7439785798229902, 0.7395385024352037, 0.7351172172612324, 0.7306301191863318, 0.7261546450491967, 0.7216312256614332, 0.7170943534102483, 0.7125207419641734, 0.7079619730923891, 0.7033754865153193, 0.6987940194801824, 0.6942008017367693, 0.6896133296622197, 0.6849976309534175, 0.6803622042604848, 0.6757333590448168, 0.6710978033398549, 0.6664609852364733, 0.6618143101911944, 0.6570937095966315, 0.6524495987529606, 0.6477997140809458, 0.6431425122908985, 0.6384857295769123, 0.6338196521206829, 0.6291614530069657, 0.6245034929156572, 0.6198709214906705, 0.6152139933642965, 0.6105262139414013, 0.6058847995456481, 0.6012481355963342, 0.5966308045248778, 0.5920052409048818, 0.5873554735803503, 0.5827523605388644, 0.5781578234369347, 0.5736208224775006, 0.5690405879271797, 0.564497159135823, 0.559943371743856, 0.5554063272253902, 0.5508355493036258, 0.5463396214367909, 0.5418408821252556, 0.5373783824042118, 0.5329317359440828, 0.5284974139366109, 0.5240858749981563, 0.5196822125436044, 0.5153095675041999, 0.5109563878564475, 0.5066235538790707, 0.5023119019792911, 0.4981030165562674, 0.4938258663813348, 0.4895767142430444, 0.485276313910464, 0.481093372609441, 0.4769178096978085, 0.4727854412280089, 0.4686775841753405, 0.4646115654676737, 0.4605532068780866, 0.4565137596394952, 0.45251289997172894, 0.448540575020988, 0.4446318046466252, 0.44071399694570734, 0.43681642349486066, 0.43296477914472303, 0.4291571316550424, 0.4253683861088875, 0.42161304475077854, 0.4178644233157951, 0.41418003465983033, 0.41053127714562765, 0.4069122574451078, 0.403326956106531, 0.3997623007232762, 0.396247293736968, 0.3927424248773249, 0.38929903285947315, 0.3858892151834949, 0.38252700246013144, 0.3791842755568824, 0.3758968696602068, 0.37262373730231724, 0.3693881588308383, 0.36621865713547586, 0.3630548787838848, 0.35992304331885916, 0.3568389072449026, 0.3537934957256138, 0.35072990709782126, 0.34776898789884736, 0.3448674079176873, 0.3419746888213174, 0.33911950571926464, 0.33630946383579025, 0.33352875833722867, 0.3307100148667777, 0.3280154783614646, 0.32535490454520577, 0.3227318704971086, 0.32014050931013277, 0.3176565851740799, 0.31512771069574796, 0.3126390579666884, 0.31011094880326645, 0.3077116236273506, 0.3053679055188433, 0.30303555142645666, 0.30073955688629483, 0.2985203117786404, 0.29629188030603437, 0.2940286493818284, 0.29188607412949474, 0.2897770464770811, 0.28770623656571787, 0.2856642177252902, 0.28368328524807984, 0.28170614409140543, 0.2797645640243764, 0.2778342751335353, 0.27596583569090544, 0.2741515315372453, 0.27234665596112273, 0.27057577742316447, 0.2688040882987408, 0.26710435506337205, 0.26552075339868886, 0.2638718110486351, 0.262258196006066, 0.26064609762696206, 0.25910466083815226, 0.257549284662579, 0.25607491926930465, 0.2546280046815753, 0.2532697610226214, 0.25186959428503525, 0.2504818909048674, 0.24914410158586953, 0.24783430087181807, 0.2465340118442034, 0.2452808921796015, 0.24408162393061747, 0.24287539773297503, 0.24169544960943298, 0.24051572579781613, 0.23938970419260397, 0.2383121515611132, 0.2372286125065611, 0.23616877613556175, 0.23507369063736472, 0.23406683546049936, 0.2330831199018827, 0.2321128989078172, 0.23116132963957636, 0.23021471611187472, 0.22930142270016657, 0.22840373041433068, 0.22752459915507597, 0.22666199834219974, 0.22580367406466256, 0.22497475779208614, 0.22416224283818795, 0.22336266806944968, 0.2225774871356212, 0.2218123250276792, 0.22105407060766716, 0.22030340711591184, 0.21957258204301097, 0.2188540290988683, 0.2181368244902784, 0.21744277202377654, 0.2167739707570196, 0.21609820449910783, 0.21543274363202228, 0.21480096773795593, 0.21415141983929092, 0.21355673600477756, 0.2129207345525428, 0.21229577721530088, 0.2116793193965516, 0.21107356351517956, 0.21039653307610387, 0.20981599243622842, 0.20923738033568295, 0.208648618606071, 0.2080750118376105, 0.20754411831938177, 0.2069667506376442, 0.20639229856995678, 0.2058037880085927, 0.2052357090229146, 0.20466212421159483, 0.20409541121165664, 0.20352814086647794, 0.20300488780537787, 0.20242989694159388, 0.20181403197288558, 0.20124568187301853, 0.20067466253862912, 0.200145584613563, 0.19956273082643966, 0.19894298861703122, 0.1983620626123144, 0.19777688772430804, 0.19713482474671085, 0.1965469433559091, 0.19595403847494977, 0.1953498946623279, 0.1947381475112234, 0.19413977096867757, 0.19351021954776598, 0.19290264898643128, 0.19225638042169654, 0.19160479237599773, 0.1909264742366598, 0.19026552766029903, 0.1896326803307761, 0.18895136572641033, 0.18826383341619926, 0.18759202949073, 0.1868877805607178, 0.18613232708471728, 0.18542054860323998, 0.1846988650072775, 0.18391781345333638, 0.18318228700870667, 0.18251759492086406, 0.18174589650626483, 0.1809665345272762, 0.1801566222850818, 0.17936348245650952, 0.17850038173452046, 0.1776944418359462, 0.1768747795575945, 0.1760657125798231, 0.1752166747873161, 0.17440414240693558, 0.17352638033209505, 0.17264006282343944, 0.17173887550407688, 0.1708352576835554, 0.1698725169301467, 0.16895547722347976, 0.16802562457473488, 0.16715506399850713, 0.16619136195139644, 0.16512094746527572, 0.16415344026731254, 0.16317178222384382, 0.16218400743752018, 0.16117471145334086, 0.16015768463924732, 0.15912373832781554, 0.1580785068590453, 0.15703721681898763, 0.1559683039110294, 0.15494504951735255, 0.15384984772022675, 0.1527482669901542, 0.15156816482657728, 0.1504619747920653, 0.14935353871138124, 0.148224184380597, 0.14708491830641593, 0.14591509316083476, 0.14475953522431065, 0.14364162989490636, 0.1424600166356675, 0.14130912709988802, 0.1401094364196399, 0.1389052105953391, 0.1376573131903779, 0.13644828137071163, 0.13527089318365274, 0.13404267765667274, 0.13280988505324814, 0.1314976574184463, 0.13026505177485442, 0.1290984448116197, 0.12783944255780627, 0.12657713610051755, 0.1252756130508634, 0.12401126002848349, 0.12268783026355666, 0.1214202461243999, 0.1201452061335513, 0.11893085126387043, 0.11763478179996507, 0.11635078317734288, 0.11505034203205967, 0.11374952423889882, 0.11237956748495992, 0.11108690285667147, 0.10986058388423342, 0.10855179057688008, 0.10724433313059696, 0.10585897246786842, 0.10456440508841594, 0.10325800447215817, 0.10195964052355232, 0.10065942535351015, 0.09940897538953712, 0.09810082204314721, 0.09677482037582, 0.09547570337521143, 0.0941789079798423, 0.09294017327759248, 0.09164216351377817, 0.09032526825509869, 0.08904347818818721, 0.08776667220639693, 0.08645316209248444, 0.08519223903825227, 0.08393459095531124, 0.08268078960844842, 0.08143137330793417, 0.08020929097499144, 0.07896730286926573, 0.07777279567275398, 0.07654012529322683, 0.07531731297264257, 0.07407586270221568, 0.07287618998023583, 0.07172059335545351, 0.07053299035763665, 0.06935611191769811, 0.0681196244874729, 0.06697306731016192, 0.06586774686266825, 0.0647311349480571, 0.06360451938002494, 0.06249565822242028, 0.061388918337227455, 0.0602964068421326, 0.05921196533653225, 0.058139339102893574, 0.057044302924369406, 0.056000215281346695, 0.05501445009482889, 0.053985674840428016, 0.05297094004549783, 0.05191939969342769, 0.05093925810621514, 0.04997490701795259, 0.04901728174995494, 0.048072130439809534, 0.047204153217524865, 0.04627689428307841, 0.04526351429476568, 0.04438329661394693, 0.04351398062809222, 0.04272955449806961, 0.04187474393327041, 0.04105174623999654, 0.04022864647259854, 0.03942305469314867, 0.03865573142532998, 0.03788198419951199, 0.03703668996414862, 0.0363104552883065, 0.035596897330760296, 0.03496536263307321, 0.03426998060842237, 0.03359703993371515, 0.032936812842677646, 0.03229444775950545, 0.031669771132815036, 0.031062632847705166, 0.03046691895842289, 0.02989524282015053, 0.02934043099485396, 0.028730636087042207, 0.028218529894713587, 0.027744596135643264, 0.027255303509895204, 0.026781208557797823, 0.026298584901606917, 0.025858510282147824, 0.025447783538668264, 0.02503490012205861, 0.024637809887139688, 0.024307470851004112, 0.023935782729386144, 0.02359789866396136, 0.023261613841063022, 0.02294425877925219, 0.022645378864489325, 0.022364558601493407, 0.0220056684046988, 0.02177196226185143, 0.021549888504704736, 0.021335429144340497, 0.02113852345025456, 0.021042459456211648, 0.020859841017314806, 0.020695291442627422, 0.020548286921140614, 0.020418341910868172, 0.02023169744843094, 0.02014381720047539, 0.020067617027954582, 0.02007213648083075, 0.02001120377279154, 0.019888527695316755, 0.019869062128425288, 0.01986036396278809, 0.019898545954454224, 0.019907409594844234, 0.019907078468296754, 0.01994504312993729, 0.019994531930777607, 0.020068952066455974, 0.020139588019971722, 0.020294066955965126, 0.020379449306598824, 0.02048041459723023, 0.02056172913873158, 0.020695806559204173, 0.020793385095215826, 0.0209559022188144, 0.021126393841521904, 0.021382704139491917, 0.021559417134802018, 0.02164976956111602, 0.02186305219725707, 0.022081872327745656, 0.022387231315204766, 0.02260749388785526, 0.022785937397250305, 0.02303331437713515, 0.02328714720467597, 0.023584737078410918, 0.023846429127951145, 0.024116311977229514, 0.024393926331534727, 0.02467883461420333, 0.025006524863902133, 0.025300245841936034, 0.02555120829353796, 0.025866919511906526, 0.026186618453425542, 0.02650266945198433, 0.026830812807753467, 0.027200924254830654, 0.02753016451115901, 0.02786439196906408, 0.02817022543736835, 0.028517212296158778, 0.02883609061975833, 0.02919035423434897, 0.02954447287627096, 0.029907504605177517, 0.030260401945722507, 0.030609295101168853, 0.030963625686118254, 0.03131796277481486, 0.03170361808865823, 0.032053657327345664, 0.03239162381295952, 0.03274573550740025, 0.03309967298884143, 0.03351300706422546, 0.03385821484838886, 0.03416989026306331, 0.03452363813951123, 0.034876313497805365, 0.03520812853987575, 0.03556011735511843, 0.03587755430864312, 0.03622710810138664, 0.03657147949871442, 0.036930217666339936, 0.0372620290270578, 0.03761986543115516, 0.037939946003847806, 0.03827843889450784, 0.03859039935910996, 0.03890021577453886, 0.03918342621904876, 0.03949045010240631, 0.039779073370752184, 0.040077713988280396, 0.040370244265803976, 0.04069547397350318, 0.040970595442495976, 0.04118615494583237, 0.041459446532010905, 0.041724631026914795, 0.04204913060507531, 0.04228985975902465, 0.042536956209983934, 0.04276764134153775, 0.04299384011406876, 0.04317765265069513, 0.04339816579410147, 0.04357185283256525, 0.043781372466902446, 0.043980671517381005, 0.04417000993561538, 0.044349610200218985, 0.04457052780572032, 0.04472475711556986, 0.04487258327411429, 0.045016698503018024, 0.045150470301171884, 0.045217351713701504, 0.04534435411155754, 0.04546049453947214, 0.045622913845009196, 0.04571097456622001, 0.04577716438475225, 0.04585302861016328, 0.04592063775679197, 0.046017304462652245, 0.0460634176199509, 0.04607321775530407, 0.04610997242188632, 0.0461379855707555, 0.04618415753521869, 0.046191204668508096, 0.04615206295269001, 0.04614922629583481, 0.04613650950582428, 0.04607218005200364, 0.04604546154959999, 0.04608923806588817, 0.04602900337841535, 0.04596248055715845, 0.04580111306152569, 0.04573235290708011, 0.04566208330015987, 0.04556857313334513, 0.04546468888082946, 0.045409125185044745, 0.04527812408094242, 0.04514695123592288, 0.04500266803239421, 0.04485217226735462, 0.04470873320210733, 0.044543558740519566, 0.04432307299062831, 0.04415205215953284, 0.04397194571805949, 0.043812941490762286, 0.04361166346193014, 0.04332743144399931, 0.043122474480312936, 0.04290656358756519, 0.0426893049340559, 0.04245217907484548, 0.04223174771566426, 0.041974320022510635, 0.041710328331081056, 0.0414997356881441, 0.041215407087952974, 0.04091924980132425, 0.04062998553492981, 0.040336692239231094, 0.04004816569453165, 0.039745177564447606, 0.03940831756619862, 0.03910106891223873, 0.03878794344379422, 0.03841375756427016, 0.038096392487006976, 0.037827412574500556, 0.03748654761620757, 0.037141592345559075, 0.03679110968456938, 0.03643835213121668, 0.036065175830072904, 0.035706679296570544, 0.03534351278389671, 0.03497592654707879, 0.03460416024039448, 0.03419253792845496, 0.033817631975713074, 0.033437194164939066, 0.03307415913465334, 0.03268125791659812, 0.03230937777804267, 0.03190781460219592, 0.03150506347472371, 0.031145994327443954, 0.030735172453751864, 0.030301756769834827, 0.029896321821014114, 0.029490291510000943, 0.02902828628783687, 0.02862801258461205, 0.02825694174549325, 0.027845565706802848, 0.02743324826582888, 0.026976744128818616, 0.026568452190518427, 0.026187127705425313, 0.02576963304069603, 0.025351796716542904, 0.024906853328806076, 0.024492223821319964, 0.02413007258364265, 0.02370623446453202, 0.0232847307350564, 0.02283850028120024, 0.022424702380650224, 0.02207424708209869, 0.021653678512110062, 0.021237455537593198, 0.020781833202749834, 0.020378767575111634, 0.019963236180669416, 0.019564014101761607, 0.01916531925009943, 0.018839209495533422, 0.018433211886982392, 0.017983092424504864, 0.01759345817875208, 0.01720560785780454, 0.016846602316594624, 0.016459307066089415, 0.01605624512747379, 0.015678680552141826, 0.015303544325559163, 0.015004251937613134, 0.014625025924097753, 0.014234709626460514, 0.013870993465406323, 0.013512232846772759, 0.013141764668236364, 0.012794415997683868, 0.012546341737044584, 0.01219396808969487, 0.011850564661612531, 0.01146155298606521, 0.011140843306084024, 0.01087059785808992, 0.01055218610005823, 0.01024046289052795, 0.009981460253991596, 0.009676271587778156, 0.0094363607210822, 0.009140280445927332, 0.008854791260803525, 0.008570069424704032, 0.008304482095448562, 0.00807822403580002, 0.007824052939322451, 0.0075787677576314265, 0.007337344656025951, 0.007108885843348888, 0.006865283843352639, 0.006654008736294691, 0.006448332523315922, 0.006278218992274154, 0.006080106812287786, 0.005913400738292236, 0.005727057972981701, 0.00554928569636606, 0.005472584558157964, 0.00529951244007206, 0.005178505515688295, 0.005025994693853821, 0.00488725385032325, 0.0046835646787999514, 0.004579574478633924, 0.004579875020843197, 0.004477763602156181, 0.00438834264255005, 0.004282527538130172, 0.004220215340154818, 0.004228681300263536, 0.004177358455239411, 0.0041386996262802, 0.004149571774863094, 0.004130004895954311, 0.004084980249788796, 0.004096636845294342, 0.0041289772079959285, 0.00415966620359165, 0.004201064868668928, 0.0043458591307590074, 0.004396778838515484, 0.00445005711615839, 0.004533618944694798, 0.004630953795922787, 0.004750664600858139, 0.004873370634669098, 0.005058836036279738, 0.005201846623279133, 0.005360619189033157, 0.005566064180521133, 0.005750965584203152, 0.005893808638476522, 0.006118168334956953, 0.006354649134026727, 0.006676719066370541, 0.006928673978972812, 0.007183936359072212, 0.007470758440443054, 0.007772921381142526, 0.008136689796244108, 0.008463381420604354, 0.008824282448727312, 0.009184049964332901, 0.009561877829654312, 0.00992751689178356, 0.010344345764274895, 0.010802237031770575, 0.011247234792249436, 0.011709567195947271, 0.012266999286375478, 0.012754115815520077, 0.01322556468751975, 0.013760338530908627, 0.014313773988687462, 0.014906778658901814, 0.01549482430846375, 0.01607281003081863, 0.016704281920114875, 0.017353828297100325, 0.01808603945301138, 0.018764388840163973, 0.019514601240415708, 0.020231462181170633, 0.02097319381233571, 0.021683945176125347, 0.02248103291611398, 0.023388462582360093, 0.024215584942977708, 0.02506880038594103, 0.025854895088973425, 0.026770755851653786, 0.027721389921766988, 0.028675547645320196, 0.029651463890889185, 0.030689935474744762, 0.031705465542941375, 0.03279259463952947, 0.03385276609431414, 0.03494092386042028, 0.036082257951921555, 0.037222515985993465, 0.0383961578194469, 0.039593388499568914, 0.04081934155404044, 0.042012536089290044, 0.04330332910566343, 0.04465506996140068, 0.04599193150728107, 0.047356882188981396, 0.048751620889247574, 0.050173189026485876, 0.05170288761399914, 0.05317234938629409, 0.05467559786664672, 0.05618234168853886, 0.05775592567789674, 0.05940265351910339, 0.06103355677768512, 0.06269831387113964, 0.06441022193374885, 0.06614054776695329, 0.06785879287204084, 0.06966347818695696, 0.07149971723216081, 0.07337986134338792, 0.0752788413424016, 0.07719174033673563, 0.07916019365447888, 0.08116148681133957, 0.0832529169878141, 0.08531402439921407, 0.0874034763541925, 0.0895403025289107, 0.09171387109989812, 0.09385246218061073, 0.09610889293229785, 0.09843577683987716, 0.10075430719635166, 0.1031093814565442, 0.10551328097397122, 0.10794085530196725, 0.11046638876543996, 0.11296280838735306, 0.115501061901732, 0.11805990244895863, 0.12068362482106515, 0.12335474868669274, 0.1260573895123405, 0.1288004345243118, 0.13157191237684548, 0.13439729164096456, 0.13729686416075212, 0.1401976063410828, 0.14314035645224366, 0.14604419521008757, 0.14908081392822708, 0.1522413760257814, 0.1553419657852469, 0.15848573631044854, 0.161584204870863, 0.16482488872711012, 0.1681271916192509, 0.17144079634802037, 0.1747945271005799, 0.17825297816214697, 0.18167958320206112, 0.1851416405476048, 0.188657891325157, 0.19221741053078506, 0.19585739474578792, 0.1994981250396296, 0.20312681042319278, 0.20686388323627286, 0.2106417041810869, 0.21446485035153406, 0.21832384612235894, 0.22220310216997327, 0.2261471491369526, 0.23013119554958633, 0.23416285239869655, 0.23822630777455753, 0.2423379487760844, 0.24648183740910828, 0.25066676539692684, 0.25488661207498914, 0.25915395261794577, 0.26349296412036455, 0.26783670987399, 0.27222219446633544, 0.27659962740525873, 0.2810735849083308, 0.2856167042809881, 0.29016218605070626, 0.29474714813055686, 0.29935480538829345, 0.30401981733575223, 0.30871789231803315, 0.31345835633833746, 0.31823565892129546, 0.32298673405324413, 0.32784493836867645, 0.33279552379384714, 0.3377114330831115, 0.34266354295949236, 0.347578094095024, 0.3526105058774625, 0.3577484134339516, 0.36283284965379237, 0.3679522873761804, 0.3730477129700915, 0.3782425337591926, 0.3834685848145401, 0.38872249196500214, 0.3940057727803778, 0.3993255899447535, 0.4046656709918479, 0.4100329555536515, 0.4154301136615848, 0.42085483462467316, 0.42626766289711643, 0.43175072733517117, 0.43720355884956336, 0.44274036177289, 0.44829706037817224, 0.45386915817743423, 0.45946608529396726, 0.465142167503323, 0.47076989179685247, 0.4764196823721304, 0.4820951274415057, 0.48778577465941925, 0.4934840469617012, 0.49921443571170354, 0.5049618261890422, 0.5107044063606184, 0.5164858335842232, 0.5222206019092268, 0.528035225710997, 0.5338267487838307, 0.5396616590448552, 0.5455023964771333, 0.5513771530749163, 0.5572251474689668, 0.5630720844976976, 0.5689331286357839, 0.5747986443594117, 0.5806573870699618, 0.5865308081281251, 0.5923667661926313, 0.5982471636033974, 0.6041251458189019, 0.6100135956960445, 0.615883225867674, 0.621717819715508, 0.6275832953381666, 0.6334415703404987, 0.6392784679085366, 0.645121844940379, 0.6509579397755055, 0.6567796169614833, 0.6625895841813059, 0.6684063841975016, 0.6741877111148714, 0.6799510898800106, 0.6857048887171133, 0.6914426148777376, 0.6971451587660913, 0.7028495289968006, 0.7085108783107895, 0.7141758879862722, 0.7198169582620613, 0.7254780698046762, 0.7310628419848263, 0.7365306177548686, 0.742077270591917, 0.7475917600171114, 0.7530615295674286, 0.7585113653641802, 0.764010161616258, 0.7693790682818542, 0.7747163988203556, 0.7799937313639427, 0.7852668700373419, 0.790502540974386, 0.7956995618315021, 0.8008567513449636, 0.8059848991122364, 0.811057378944458, 0.8159884317789392, 0.8209867610652465, 0.8259343537296816, 0.8308966014643376, 0.8357330087580674, 0.8404550022156775, 0.8452013750492294, 0.8498931066405313, 0.8546073555983479, 0.8591780009792017, 0.863660394251988, 0.8681294787336971, 0.8725414270755317, 0.8768398457690334, 0.8811414060307182, 0.8853796130708833, 0.8895538816476424, 0.8936635769348492, 0.8977499113407276, 0.9017230936833996, 0.9056199473895561, 0.9094648148289406, 0.913242454857588, 0.9168755968873527, 0.9205255258632272, 0.9241893292887183, 0.9276789825697969, 0.9310984778098316, 0.9344331953276391, 0.937710652763074, 0.9408435367833271, 0.9439804399494248, 0.947037303607201, 0.9500721564624589, 0.9529605620493553, 0.9556948137183049, 0.9584362499111863, 0.9610937628915227, 0.9636581402460518, 0.9661481868050088, 0.9686337525739868, 0.9709427627401453, 0.9731704340320629, 0.9752843498908788, 0.9773503756137509, 0.9792586581074743, 0.9811613160087581, 0.982972861160896, 0.984760646272204, 0.9863814897004934, 0.9878236779229171, 0.9892806258104657, 0.9906438033413828, 0.9919313236112829, 0.9931051150724418, 0.9942328430913845, 0.9952157594881083, 0.9961085670431093, 0.996886803185646, 0.9976008837775253, 0.9982100873982986, 0.9987396500776416, 0.9991752179697083, 0.9995526087733055, 0.999795388441131, 0.9999414550739593, 1.0, 0.9999654112863127, 0.9997566790023495, 0.9995454123765428, 0.9993167203322322, 0.9988993571078764, 0.9983893613286985, 0.9977267062315229, 0.997038511072758, 0.9962643955833625, 0.9953825330888435, 0.9944057353786182, 0.9933463033116331, 0.9921791218807228, 0.9908723073601715, 0.9895247328951384, 0.9880818272242622, 0.9865981178075135, 0.984959722559069, 0.983178596448407, 0.981366264773594, 0.9794610284602171, 0.9774127064659923, 0.9753301369426026, 0.973156824419465, 0.9708874750960551, 0.9685266433296852, 0.9660603150336711, 0.9635212147101273, 0.9609882816059664, 0.9582588911057232, 0.9554472183390331, 0.9525040427828136, 0.9495345717663615, 0.9464044153718143, 0.943276576013455, 0.9400615920050742, 0.9368581022079089, 0.9334606536071944, 0.9299675702415638, 0.9264174797392701, 0.9227896619255469, 0.9190369519235416, 0.9152618953243618, 0.9113921973700482, 0.9074640453470696, 0.9034591536866029, 0.8994296832855521, 0.8952687372032628, 0.8910033040000102, 0.886707372540064, 0.8823411062793896, 0.8778832302965383, 0.8733826291773498, 0.8688019616712561, 0.8641680259483573, 0.859467997046127, 0.854775095919896, 0.8499380046634916, 0.845026552825868, 0.8400765058936016, 0.8350692319128453, 0.8299339346250333, 0.8248243658350538, 0.819626762490963, 0.8144064370419668, 0.8091296471546161, 0.8038550865044294, 0.7984636436372898, 0.7930257654625422, 0.787539484515778, 0.7820077960020696, 0.7763840514143906, 0.7707712918001158, 0.7651455721699668, 0.7594417337840542, 0.753698542688118, 0.7479352804120791, 0.7421151031925621, 0.736218686880667, 0.7303363032662048, 0.7244196315318073, 0.7184388273565772, 0.7124622478876301, 0.7065275761496159, 0.7004806900387801, 0.6944099944390602, 0.6882178299254536, 0.6821152785774378, 0.6759897114432796, 0.6698367328869986, 0.6637261057057636, 0.6575228357307937, 0.6513047433060392, 0.6450296179575724, 0.6387909104620911, 0.6325504905686488, 0.6262844778245455, 0.6200085643839033, 0.6136957382610875, 0.6074078431478295, 0.6011320982385673, 0.5948287469264442, 0.5885223485794688, 0.5822486791469265, 0.5759359198437803, 0.5695363349191037, 0.5632418501221057, 0.5569473815955114, 0.5506996192365752, 0.5444048571785954, 0.5381402781337415, 0.5318594051094488, 0.5255900064896654, 0.5193091830674519, 0.513068884341429, 0.5067670560556745, 0.5005640189619589, 0.49437254839655964, 0.48822737512476716, 0.48206023384177954, 0.4759670395347496, 0.46983137829695043, 0.4637199657976168, 0.45756326010176207, 0.45151157715201307, 0.44545265453645844, 0.43945150900543006, 0.4334740878919856, 0.4275458450927151, 0.42161731509267786, 0.41577651275813327, 0.40990046640272915, 0.40405923464513854, 0.39823691446290355, 0.39246907738627507, 0.38665906277977635, 0.3809730433913045, 0.37531976135157835, 0.3697783729019141, 0.36418472585459416, 0.3586305206470273, 0.353119439488739, 0.3476502249295789, 0.3422129362995336, 0.33683037865448134, 0.33143535027359333, 0.32614618070792667, 0.3208980174245609, 0.3157502461301831, 0.3105797645303608, 0.3053921436998425, 0.3003245535944484, 0.29530129307889746, 0.29029632285864765, 0.2853677290286017, 0.28049040955928695, 0.27565255565849855, 0.27086207819215047, 0.266154096579825, 0.26145608557163336, 0.25675247044391714, 0.2521643927666373, 0.2476248563389318, 0.2431809115253504, 0.23873453481532853, 0.23430070514832727, 0.22996540872669535, 0.22568095448838912, 0.2214626913929952, 0.2172791402154593, 0.213170717385976, 0.2090898190900243, 0.20506306999298715, 0.2010574348494087, 0.19714277657070814, 0.19331594719663753, 0.1895007219045791, 0.18573964793610453, 0.18201154021346214, 0.1783606970635039, 0.17475462763967586, 0.17120916202033565, 0.16771535233824889, 0.16426116359355525, 0.16087194848716824, 0.1575453942387143, 0.15425599004545898, 0.15101778976439012, 0.14778717402378305, 0.14465614439773442, 0.14163146212265582, 0.13858910406771321, 0.13559805281490542, 0.1326831973126698, 0.12978991443618276, 0.12693128492753367, 0.12414156063747671, 0.1214005625082, 0.11872119071824938, 0.11607425034890906, 0.1133868323787435, 0.11084596096889104, 0.10834659052244237, 0.10593665001713697, 0.10351430988008707, 0.1011450579213561, 0.09880924928710033, 0.09651692645868101, 0.09423601182588925, 0.09203264725628306, 0.08984806275485463, 0.08772637102507976, 0.08564233960374644, 0.0835627242300348, 0.0815571296268584, 0.07966250022229199, 0.07771637593845011, 0.07580869931248871, 0.07389960591128958, 0.07207085908650264, 0.07024260918323774, 0.06848423321924364, 0.06675616908071762, 0.0651283318750566, 0.06345074388332395, 0.06181053955048944, 0.060197058690276015, 0.05861452242993836, 0.05698703148098123, 0.05547258495043088, 0.054025068945137054, 0.052551810396083434, 0.051103648223364516, 0.049663261491917944, 0.048264781092482854, 0.04686095368339997, 0.04550831330549611, 0.0441742695436363, 0.04284481583203108, 0.04154800343313541, 0.04034209849633858, 0.0390674985079243, 0.03781208654208292, 0.03657165716882304, 0.0353514034598367, 0.034145161825094424, 0.03295504591732862, 0.031778250524778805, 0.03060630065182855, 0.029454134044316155, 0.028291014832431963, 0.027160619054397466, 0.026037329015693833, 0.02490850831795175, 0.023798931012699923, 0.02270273644763395, 0.02160024384126261, 0.020501459363526247, 0.019423641178139394, 0.018327916520808774, 0.01722284916741188, 0.016133047542076246, 0.015043535219893253, 0.013884784443105386, 0.012802432958862908, 0.011795189423164999, 0.010691126748289042, 0.00958558440883538, 0.008426795423786786, 0.007322057307658313, 0.006229830741805676, 0.005108361891042227, 0.003980231345009448