0.03878436892643415, 0.038554047939251886, 0.038387884132041215, 0.038177024246254465, 0.03796985966193226, 0.037784268742796785, 0.03760758719604395, 0.03742170794401291, 0.03726109612059322, 0.0371589395674923, 0.036999763533488716, 0.036846838282773735, 0.036600622026138, 0.03647015877112667, 0.03644242035817897, 0.03629606175291924, 0.03615466782310079, 0.03599166308761641, 0.035862050900207346, 0.035632320449991366, 0.03552014210697706, 0.035404467930593306, 0.03537738539186475, 0.035245755896477, 0.03500463814908114, 0.03489542841518194, 0.03478383762270121, 0.034700573901564516, 0.034583144448481304, 0.03446566289425566, 0.03435252897092465, 0.03424194425149042, 0.034085894375790564, 0.03398763733600028, 0.03400752392831705, 0.03389686637121547, 0.033794940112539605, 0.03369202786523691, 0.03360756608350934, 0.033420423227534815, 0.03336394573501222, 0.03330811111759914, 0.03336163979272165, 0.03329563655847822, 0.03311738157178708, 0.03308381787282375, 0.0330515779791025, 0.03315168441257333, 0.03310771126067261, 0.03297193552808084, 0.03296150985276501, 0.032954894016966045, 0.032982283196111004, 0.03298071657832419, 0.03304158544979119, 0.0330462024314917, 0.03306065934236349, 0.03299335478227969, 0.033037899651929374, 0.033110346539390136, 0.033159732633564386, 0.03321511757058305, 0.03328787531776118, 0.03335444756930601, 0.03343566426384846, 0.03351576865992283, 0.03360364237775965, 0.03368999672594948, 0.03379464952473046, 0.03395502652782704, 0.03406833487428357, 0.03419192268017162, 0.03432737800950877, 0.03447051689039029, 0.03448561464995838, 0.03466541320624912, 0.03484690010222898, 0.03511671545872863, 0.03529369340515664, 0.0355171274263187, 0.035707888969517654, 0.03591004215752196, 0.036026541089734646, 0.036262996894904476, 0.0364675454694014, 0.03671998751656341, 0.03697687090026923, 0.037248313656348946, 0.037515244707789414, 0.03788982219937602, 0.03815879533150384, 0.03844146001787267, 0.038731803957702565, 0.03904132791692823, 0.03937054994784091, 0.039703403790741554, 0.040048496069101644, 0.04036092753767677, 0.04073550375216358, 0.04108945666180748, 0.04148634755870386, 0.04189116978020227, 0.04229132828620148, 0.04271491894556178, 0.04311895972151353, 0.04356323641185351, 0.04401509710426186, 0.04457932702282642, 0.04503475164087134, 0.0454938905481992, 0.04598002110435863, 0.04647951991057118, 0.04699024922165564, 0.04751592493254671, 0.04805785715195336, 0.04860796077037766, 0.0491704922548497, 0.04976018731370842, 0.05034524740129784, 0.0508500983640471, 0.05147242935098428, 0.05210199213882851, 0.0527970756011475, 0.05343549347295607, 0.0540207861581303, 0.05469141768476462, 0.055370279672132, 0.05615648667290796, 0.05684065679003976, 0.05750070729530084, 0.058219257616059894, 0.0589496333049618, 0.05969733041429366, 0.06045038954849749, 0.06115204440090299, 0.06193674539239712, 0.06272953213441922, 0.063491709874705, 0.06430673474023206, 0.06513796996822606, 0.06596617153916456, 0.06680280839203664, 0.06764074720286546, 0.06849607329624414, 0.0693564581410447, 0.0702300283534769, 0.07110137231656122, 0.07199438167160373, 0.07289594679297301, 0.07394581888162398, 0.07484723828025115, 0.07573370975847166, 0.07667142034401853, 0.0776219545200408, 0.07850835068739737, 0.07949230276689495, 0.08043834838570639, 0.08144160083715167, 0.08244931309360566, 0.08359591313152852, 0.08459674924131869, 0.0855249503793537, 0.0865617185941809, 0.08760500517537537, 0.08870317202421972, 0.08975325216463309, 0.09076028273847622, 0.09183460912729129, 0.09291414711329621, 0.09408079472738097, 0.09516036484497258, 0.09615844870487317, 0.09726826051062716, 0.09838126841012018, 0.09947897354189941, 0.10060103028278845, 0.10176082773326667, 0.10288331076032516, 0.10401040102884189, 0.10511208490586635, 0.10625145454591699, 0.10741538340822902, 0.1085563637259771, 0.109700764782549, 0.11088369668926436, 0.11202969244240941, 0.11318030671576518, 0.11433498199453843, 0.11549319145141324, 0.11666002012783161, 0.11782311945349942, 0.11898864125449682, 0.12015610892055434, 0.12132506930765088, 0.12248392184994131, 0.1236560016626684, 0.12488354610861799, 0.12604751872048187, 0.1272136649341463, 0.1282974840400321, 0.12947641002506063, 0.13065820289903446, 0.13182711695481353, 0.13299200031701242, 0.1341230142907596, 0.13528340327387925, 0.13651973683165333, 0.1376579600985548, 0.13879497712239394, 0.13995433211644243, 0.14108395516225844, 0.14215045755516167, 0.14328371674285165, 0.14441040524551427, 0.14557318875212535, 0.14668086581330678, 0.1476815063620901, 0.14879226648729796, 0.1498915672967651, 0.15096857581605197, 0.15204729657603167, 0.15320033009430203, 0.15424581121216052, 0.1552851346681887, 0.15636422424442223, 0.15738354564522772, 0.1582784463286256, 0.15930134383789116, 0.16031052768688284, 0.16138994732926468, 0.1623616122798895, 0.16323529980608448, 0.1642003467640814, 0.16515048081235495, 0.16617891051548592, 0.16708781211436763, 0.16788304004858107, 0.1687854882760894, 0.16967118049766908, 0.17067431372154887, 0.17151001991970613, 0.17233684985343203, 0.17315374337321413, 0.1739597323581169, 0.17463666489089893, 0.1754330947678018, 0.17624311193795794, 0.1769957360360372, 0.17773079459419952, 0.17851145756442233, 0.1792030165620833, 0.17982618739736564, 0.18049509126194827, 0.18114528233027788, 0.1817096222836663, 0.18233046595218233, 0.18295634477670591, 0.18352827223746493, 0.18407957901147806, 0.18467357548630028, 0.18517567831749718, 0.18567186354091242, 0.18613781778681715, 0.1865862272851259, 0.1869997691262399, 0.1874135445307262, 0.1877309481698557, 0.18811396109283796, 0.18847205222711644, 0.1888502456582339, 0.18915383876719422, 0.18949360413916963, 0.18974667543915716, 0.18998112969656933, 0.19018704058554883, 0.19038364211568462, 0.19053336972229648, 0.19069126565120323, 0.19082618052976044, 0.19089149231376673, 0.1909860736991072, 0.1911311377956448, 0.19116470833223026, 0.19117730206529646, 0.1911071119978058, 0.1910844201902554, 0.19111260912696706, 0.19102963265905162, 0.19092595127573872, 0.19070807033530487, 0.1905735270402772, 0.19043427975994964, 0.19024330754228527, 0.19002745130091125, 0.1898408936601325, 0.18956903396129177, 0.1892200356275463, 0.18891236617371776, 0.18857975625359144, 0.18827644154506076, 0.1878878728197102, 0.18740364952580685, 0.1869818689727601, 0.18653429696213725, 0.18603160199752142, 0.1855375258817547, 0.18513077151163812, 0.18457047976065036, 0.1839914550101495, 0.18327972137186624, 0.1826763629523741, 0.1820896201710972, 0.18142912886854987, 0.18074612979946064, 0.18005014576788694, 0.17932159760528726, 0.17858659096037666, 0.17781359284465936, 0.17702035369616506, 0.1762236560867192, 0.17538793084562299, 0.1744846691203405, 0.17361674511894246, 0.17272692687019117, 0.17183425022116108, 0.17089953866524174, 0.1698837681812227, 0.16891778420480452, 0.1679291815658021, 0.16702293376512456, 0.1659780675945653, 0.1648384448970527, 0.16377401915360554, 0.16268995889650284, 0.16168544223121498, 0.16055118886052477, 0.15927590614684695, 0.15813237299390476, 0.15696845651807748, 0.15584085561000888, 0.15463162357335114, 0.1534484905870312, 0.15220462470203563, 0.15094871250064265, 0.149673252046617, 0.1483940723804467, 0.1470540173263094, 0.1457561467442921, 0.14444341032942254, 0.14316480378452812, 0.14181799408475934, 0.14045704909939072, 0.1390900385874797, 0.13773694502603592, 0.13634655986916377, 0.13494776984828058, 0.13348483154808674, 0.13207663075796824, 0.1306610354097127, 0.1292307946763795, 0.12779095243171623, 0.12633092998545048, 0.12487504947007154, 0.12340693933841952, 0.1219351504271809, 0.12045589130602291, 0.11894558331183995, 0.11745627823500458, 0.1160269455686192, 0.1145158433973314, 0.11300292469349837, 0.1114138678068343, 0.10990716505387145, 0.10846383699684276, 0.10693825585562426, 0.10541263954973425, 0.10387599477568567, 0.1023522735465528, 0.10077265554688548, 0.09925622567375741, 0.09773729792967016, 0.09629858044764339, 0.094766674055006, 0.09322983932461283, 0.09170788345204078, 0.09018986267842886, 0.0886908464116986, 0.08717937572422235, 0.08568818238005123, 0.08418573492230737, 0.08268981114870937, 0.08126377777345807, 0.07977318040276504, 0.07826137623743838, 0.076795338374172, 0.07533742408851661, 0.07383562946191238, 0.0724009393454607, 0.07110221182985944, 0.06966302408904118, 0.06823808324220061, 0.06678599224156535, 0.06539349231978, 0.0640845109614813, 0.0627048568836225, 0.06134058911285058, 0.059987644975749196, 0.058653700231444124, 0.05731372490834317, 0.056011214043044155, 0.05472197492609699, 0.053431358234514566, 0.05217129959559522, 0.051047335970501595, 0.04979866567678473, 0.04857100472853466, 0.047352633879420715, 0.04616687170920433, 0.044944346265794966, 0.04380366284868917, 0.042678719029826756, 0.041597881205561744, 0.04050222206101701, 0.039508963939958, 0.03844020391541157, 0.0373952309464124, 0.036345703693206784, 0.03535067140234381, 0.03438432531491673, 0.03343089709631036, 0.03249929448981771, 0.03169569291043317, 0.030794590751537815, 0.029889954912498372, 0.029048388109872404, 0.028231911182962345, 0.027531540572470772, 0.026753204714995663, 0.026025174470560224, 0.025303166068865415, 0.02461078439736346, 0.024023694428422664, 0.023379088473479158, 0.022757497557469322, 0.022177787332841616, 0.021628190542365547, 0.02107093819346254, 0.020584770713447196, 0.02017746548391726, 0.019738268325496466, 0.019328929110176262, 0.01895104219330538, 0.018600463731803, 0.01834256719564747, 0.018042707462997267, 0.01777571114470407, 0.01758577521705704, 0.01737753086581724, 0.01722213735073872, 0.01707944973123242, 0.016971029621081535, 0.01696152541101816, 0.01691200850885369, 0.01686013097851751, 0.016888270469179126, 0.016949594391786837, 0.016999255920102298, 0.017132142749995718, 0.01737541518386365, 0.017559230723346697, 0.01777859474094048, 0.018009013718770554, 0.018301719894588755, 0.018635382308065624, 0.01899425609933013, 0.019387255987237666, 0.019866568785567345, 0.02032145619314366, 0.020849024959859977, 0.021373772171937522, 0.0219372848147421, 0.022542820282416467, 0.02318207985385662, 0.023864740741191392, 0.02457865347109462, 0.025330206417332975, 0.026055904277080346, 0.02689016593945065, 0.027772927822259794, 0.028672957322178203, 0.02960826542247149, 0.030679619209486135, 0.031673518505407436, 0.032714638010185024, 0.033790507908651936, 0.03490722368742138, 0.0360698942946154, 0.03726624480991282, 0.038513712927745955, 0.03978822937984992, 0.04110273815610095, 0.042456936685542325, 0.04385057775152809, 0.045281601394472785, 0.046753809741026525, 0.04826488265509503, 0.04971981718402182, 0.05132043112960021, 0.053053091497864704, 0.05470877333003294, 0.05640481677664555, 0.05805168546209611, 0.05983921099995214, 0.061667188229341356, 0.06352435261841642, 0.06541784854790392, 0.06738905921058679, 0.06935128612779752, 0.07134398138992609, 0.07338689542530044, 0.07546898302444796, 0.07757352784394905, 0.0797361800576158, 0.0820060188122914, 0.08423673878830468, 0.08650990612635766, 0.08875805709731906, 0.09112327937327974, 0.0935576121012902, 0.09599398382303795, 0.09847000007987623, 0.10094647342825387, 0.10350643124955478, 0.10613147993362067, 0.10876247596625603, 0.11143262961627273, 0.1141418756939002, 0.11689014678707639, 0.11970343275027882, 0.12252624802642317, 0.1253893355695002, 0.1282551820163767, 0.13120268800710508, 0.13415780621818682, 0.13718394329284847, 0.1402459355194926, 0.14341665263153844, 0.14654195564789815, 0.1497320744923945, 0.15293511585538114, 0.15617929468745156, 0.15940076162356476, 0.16273358448528205, 0.16615271929169914, 0.16955138749636833, 0.1729686122301482, 0.17644757165641384, 0.17996371977026512, 0.18343501212154306, 0.18703546420542855, 0.19069041770342626, 0.19435289052840887, 0.1980497293569743, 0.20181275462284026, 0.20557480807835563, 0.20936222892643416, 0.21319855950275188, 0.21707038187098524, 0.22105574933595043, 0.2249882803683587, 0.2288299739794271, 0.2328571031899276, 0.23691485300678244, 0.2410854995043512, 0.24519518227829099, 0.2493726245357628, 0.25355004229848455, 0.2577643836563145, 0.26201494276667636, 0.26630106380023405, 0.2706165514510938, 0.2749727087433064, 0.27936239594298956, 0.2837442022030151, 0.288204767527881, 0.2926226506219783, 0.2971521422158807, 0.3017072907311489, 0.30630716208927194, 0.31091252933734803, 0.31558475887916154, 0.32024076433695514, 0.3249267498677924, 0.32956787383929426, 0.334322067819488, 0.3391120510205821, 0.34391426482408055, 0.34874202520253483, 0.3536343663598126, 0.35850805662728236, 0.3633737930233724, 0.3683062577248417, 0.37326310256042355, 0.37825897465124875, 0.3832619268353562, 0.3882892519434053, 0.39334048198637905, 0.3984151351815245, 0.40348851898203153, 0.4086115828390998, 0.41376077817636336, 0.4189238978840935, 0.4241071792892057, 0.42932134897803215, 0.43454219411743983, 0.43974334820184524, 0.4450073387693355, 0.45028734112803986, 0.45556817286651774, 0.4608811628618485, 0.4663051168896679, 0.47163391822500805, 0.4769816872067222, 0.4823453986527103, 0.4877279039849363, 0.4930738277265918, 0.49849300307371347, 0.5039228411189614, 0.509286523224355, 0.5147458094699063, 0.5203346203735382, 0.5257878128488427, 0.5312528257023699, 0.5366447672938409, 0.5421406714236785, 0.5476646421077598, 0.5531648945053025, 0.5586696648576868, 0.5642025314317445, 0.5697114009695907, 0.5752186508785697, 0.5807352916925137, 0.5862538658662916, 0.5916600278824723, 0.5971944240395954, 0.6027238431169333, 0.6082444399988466, 0.6137584146721217, 0.6192842611639481, 0.6247821862044705, 0.6302869362577662, 0.6357702842997127, 0.6412470694043639, 0.6466477017049964, 0.6521178865351996, 0.6575623799764546, 0.6630086510868073, 0.668440965518671, 0.6739353399586355, 0.679329107052697, 0.6845910665361697, 0.6899773566945497, 0.6953437750244447, 0.7007013529582292, 0.7060260983127925, 0.7114053351540399, 0.7166802247816176, 0.7219382372695687, 0.7271390498371079, 0.7323645734284657, 0.7374724646330814, 0.7426637360743608, 0.7478252553535958, 0.7529587593770224, 0.7580600568354581, 0.7632408407173286, 0.7682671499986803, 0.7732683496758659, 0.7781759750934574, 0.7831311156288605, 0.7879973306972452, 0.7928925913846597, 0.797750062991436, 0.8025879873896484, 0.8073663366191159, 0.8121643130160743, 0.8168584939522227, 0.8215163635649935, 0.8260957264271342, 0.8306824503106387, 0.8351319985594563, 0.8396454153475629, 0.8441096060411707, 0.8485952227773601, 0.8529516732450585, 0.8572828036703724, 0.861544150411669, 0.8657590016242811, 0.8697978324764521, 0.8739326873412028, 0.878107430791468, 0.8821162491326061, 0.8860735067853199, 0.8898739944625191, 0.8937384078120739, 0.8976356019317566, 0.9013675744010534, 0.905044199257765, 0.9085825614846806, 0.9121558274735181, 0.9156438385394721, 0.9190938032641089, 0.9224789580462729, 0.9257618528025989, 0.929021359787701, 0.9323378184750828, 0.9354459327689734, 0.9384930010138471, 0.9414312332855024, 0.944358390781453, 0.9471661919355948, 0.949964761757398, 0.9526917702779452, 0.9554269879038318, 0.9579999034026019, 0.9603931373381046, 0.9628431558489429, 0.9652169196262324, 0.9675665296456951, 0.9697810778494766, 0.97195184562556, 0.9740149031200154, 0.9760048824703166, 0.9779153870622579, 0.9797575237772883, 0.9814606772169983, 0.9831587851778155, 0.9847764019194484, 0.9862818202614356, 0.9877422332619483, 0.9891052077731851, 0.9904025198511788, 0.9916166219425288, 0.9927774362103627, 0.9938217223991166, 0.9948238361634444, 0.9957004289786547, 0.9964974986351093, 0.9971568034645011, 0.9978005513301915, 0.9984084498859546, 0.9988776419588044, 0.9992653957287335, 0.9996085740679221, 0.9998276889640713, 0.9999385566022917, 1.0, 0.9999785256305007, 0.999896288000879, 0.9997056442656915, 0.999319354245237, 0.9989786084718156, 0.9986308345997126, 0.9981026395984658, 0.9974915770891898, 0.9967380693071654, 0.9959687965865114, 0.995087313595152, 0.994149596903932, 0.9931253635057646, 0.9920190554889246, 0.9908234304913385, 0.9895453875052166, 0.9881815411344701, 0.9867346421234893, 0.9852833851946426, 0.9836620335048583, 0.9819188608843962, 0.9801487262578291, 0.9782987411997945, 0.9764120891219363, 0.974398127578214, 0.9722408919601582, 0.9700829718320456, 0.9678452867851872, 0.9655565210258168, 0.9631580572368192, 0.9606873851176354, 0.9581371098522007, 0.9555121825768707, 0.9528466539888141, 0.9500698536386145, 0.9471605824641768, 0.944249822901554, 0.941265360294994, 0.9382677347785588, 0.9351312539278913, 0.9318174963427558, 0.9285604714108882, 0.9252308456472786, 0.9219436379191507, 0.918458817419354, 0.9147891690241756, 0.9111963344547754, 0.907535513302771, 0.9039162010168771, 0.9001103020278213, 0.896125919889352, 0.8922208439624718, 0.8882525751702335, 0.8843399959355512, 0.8802352972407753, 0.8760581785145912, 0.8718526882571584, 0.8675951982081689, 0.8631953197881848, 0.8588478648124638, 0.8545184730133181, 0.8500544531912445, 0.8455432728379383, 0.8409728904876088, 0.8363720306999345, 0.8317058550327096, 0.8270190787951789, 0.822288675934201, 0.8175699896483872, 0.8127495876868971, 0.8078926508127225, 0.8030000850031974, 0.7980728454258321, 0.7930858728949767, 0.7880956227534293, 0.7830183769734012, 0.7779702439720704, 0.7728887164556668, 0.7677643920083047, 0.7626227355102639, 0.7574801317578832, 0.752278929294207, 0.7470538191231852, 0.7417689791787273, 0.7365049670403627, 0.7312154212855064, 0.7259099342327858, 0.7205857347196533, 0.715302146684786, 0.7099380491044136, 0.704585561170724, 0.6991982347505034, 0.6938035625600865, 0.6882945087483755, 0.6829016150311373, 0.6775950150653254, 0.6721708018313733, 0.6667452788063403, 0.6612077573881482, 0.655796754361444, 0.6504519898374247, 0.6450250389977529, 0.639601443935823, 0.6341805912045646, 0.6287676845888093, 0.623283587305411, 0.6178957949995945, 0.612513105375845, 0.6071876462426435, 0.6018143338608721, 0.5964394180434003, 0.5910957976256178, 0.5857670822108394, 0.5805104385302788, 0.5752084196537867, 0.5698985501410889, 0.5646449573098449, 0.5594132516480138, 0.5541337975961059, 0.5489580956370158, 0.5438128920363604, 0.5386800423145267, 0.5335721199346931, 0.5284868221398304, 0.5234334274336098, 0.5183697527772525, 0.5133802073362774, 0.5084198039281279, 0.5035887017170078, 0.4986785430097051, 0.49379617077726506, 0.48896581895423297, 0.4841747999642138, 0.4793306834507081, 0.474632029058564, 0.4700662332908105, 0.46542889447219843, 0.46083580951515685, 0.45626139533760596, 0.45176156467690737, 0.44722783974740704, 0.4428272034970429, 0.43846793206528134, 0.43413647374149145, 0.4298657386728043, 0.42572303772061215, 0.42153145215278115, 0.4173911437759135, 0.4132112562427441, 0.40918609652992766, 0.405278901642023, 0.40134036120303096, 0.397455128728781, 0.39354538116231724, 0.3897777078984236, 0.386069304758782, 0.3824013391297385, 0.3787856862935157, 0.3751802464816566, 0.3716767017894406, 0.3683701958639703, 0.3649528640154794, 0.36159717321073565, 0.35825052222216275, 0.35502331964840367, 0.3518275088781989, 0.3487186075015245, 0.3456658922052641, 0.3426138128580623, 0.3396813663563145, 0.33678970286610804, 0.3339671584344828, 0.3311988637097758, 0.3284853790293643, 0.3258271743683705, 0.32332142868564323, 0.32076262926477067, 0.3182654779410639, 0.3158219251980423, 0.3134472358050251, 0.3110334146524329, 0.30878979207999147, 0.3065992683201446, 0.30458320208886513, 0.30248459379799014, 0.30040762866943155, 0.29843457495781417, 0.296518405258984, 0.29467356669835076, 0.29286794941494, 0.29106845817288135, 0.28938139134985746, 0.28774675471847844, 0.2860992483381146, 0.2845772091596409, 0.28322620576239343, 0.28178524346997214, 0.2803997402735979, 0.2789459007232296, 0.27768405279574015, 0.2764847913882599, 0.2753126284608797, 0.2741874093446102, 0.27310149599043565, 0.27207046042105665, 0.2711801058411411, 0.27022824757444264, 0.2692485886600782, 0.2684061726476646, 0.26760739546062473, 0.26692250417952745, 0.2662005612832911, 0.26542226786072703, 0.26480414769920496, 0.26422399804507674, 0.2637839142629818, 0.2632658451521538, 0.2627457628970424, 0.26231735854655464, 0.2619265462010101, 0.26160783651482195, 0.26128516257947887, 0.2609548049599368, 0.2607105992601924, 0.2604985862988486, 0.26028637710581964, 0.26014049287700297, 0.2600450628713131, 0.2599520385529857, 0.2598872349741381, 0.25982749260275256, 0.25981946857851124, 0.2598842883961774, 0.2599183499284014, 0.25997815886607767, 0.26002348017770405, 0.26013630894948503, 0.26024883749852207, 0.26040382920079824, 0.2605762713002523, 0.2607226958481149, 0.2609334446295831, 0.26123533825715456, 0.26146171847306326, 0.26170454913708885, 0.26195334601626996, 0.2622267451281157, 0.2625144686824438, 0.2628115205611448, 0.26311907407098234, 0.2634063141428361, 0.2637355498107037, 0.26407055237650257, 0.2644105631624385, 0.26475480504304644, 0.26517135679987147, 0.26551296228069865, 0.2658546662245391, 0.26620696594004284, 0.2665619436139894, 0.2668737145966155, 0.2672361106545301, 0.2675170054604314, 0.2678819211949151, 0.2682376812278397, 0.2686027964323502, 0.26893750078110384, 0.2692449349548859, 0.26956420875861553, 0.2698728004713105, 0.27018706960098116, 0.2704709533959942, 0.27073447583561544, 0.27099677847410436, 0.27124619366531016, 0.271472818304981, 0.2716958312040009, 0.27201714744762273, 0.27219476406225035, 0.27236238304187166, 0.2724124104645465, 0.27256907065971037, 0.2727633067964731, 0.2728720686701327, 0.27296322316156757, 0.2730452249058917, 0.2730974741289195, 0.273161852416079, 0.2731702678544352, 0.27315938378473253, 0.2731449853225342, 0.27309055517073194, 0.2729778501379604, 0.27288513488986077, 0.27276756257513635, 0.2725167181116921, 0.27236174486410314, 0.27229183765209686, 0.272058123326705, 0.2717996823081658, 0.2714265551206416, 0.27112816992321515, 0.2707611264050053, 0.2704048345636481, 0.27001546983180424, 0.269701449900446, 0.2692335875305685, 0.26865611018107016, 0.26814653014385925, 0.26760524881553066, 0.26705106424279235, 0.2664445477617267, 0.2658860160687724, 0.26520918292255735, 0.2645064554365976, 0.26378461096944333, 0.26302723227547753, 0.2622091119465343, 0.26140100123844257, 0.2605628577197359, 0.2596890145633665, 0.2587912938600211, 0.2579058807256337, 0.2569417877173019, 0.2559497132226921, 0.2548214437014735, 0.2537863600445855, 0.2527166593774474, 0.25161312938004415, 0.2504764990490362, 0.24929255431400296, 0.24809359149301402, 0.24685328521427977, 0.24559210213385982, 0.24429966730258248, 0.24298781583700238, 0.24163342273476093, 0.24033590589812862, 0.23891365690433242, 0.2374683812566024, 0.23599424481821912, 0.23450294852298836, 0.23299150902636714, 0.2314520181829206, 0.2298889418475635, 0.22821674080225846, 0.22661762464685198, 0.22499982765030693, 0.223344473370087, 0.22166343660165713, 0.22003564963819922, 0.21829559919238736, 0.21648059991205224, 0.2147094538984756, 0.21291624484714206, 0.21112207321001844, 0.20928402097656795, 0.20746042525343447, 0.20558049255074776, 0.20368431726289513, 0.2017348936917472, 0.1998116573453824, 0.19781320029770655, 0.19586288501656926, 0.19389313568208108, 0.19202048500023078, 0.19000059958989327, 0.18787604348586853, 0.18584872877167322, 0.18380651607942708, 0.18179130857026995, 0.17971694659732357, 0.1775955179149869, 0.17550671789472466, 0.1734070716548406, 0.1713402545139881, 0.1692160693852862, 0.16711388361488286, 0.1649747811564722, 0.1628322617664877, 0.16058609089540707, 0.1584503365058178, 0.1563753776641909, 0.15421598326159425, 0.15205475227060686, 0.14982893894617522, 0.14767367571267223, 0.1455109675886809, 0.1433498191309523, 0.1411868624415682, 0.1390528951222282, 0.1368855540501736, 0.13482335797471556, 0.1326492538426724, 0.1304849457007696, 0.12831721317555703, 0.12617366930529, 0.12393466085653505, 0.12182201843186147, 0.11971270621116081, 0.11768416034895547, 0.1155751568237234, 0.11346950353103853, 0.11138337294513027, 0.10930832953413819, 0.10720015452434135, 0.10515431201525528, 0.10308308749635504, 0.1010625345402038, 0.09912609766059582, 0.09711651289761782, 0.09512282173482142, 0.09313418840625061, 0.09117471116627109, 0.08923713072376016, 0.08731003806206618, 0.08540050061940385, 0.08353127153013029, 0.08165527191888816, 0.07977886041780409, 0.07794581588565681, 0.07613218507433896, 0.07424906288703371, 0.07248687448330496, 0.07082042940436428, 0.06908066567655173, 0.06736327482485616, 0.06571882131108121, 0.06404074048297455, 0.0623329249102771, 0.060714012311520495, 0.05911790572243536, 0.057602735913274715, 0.0560462075741952, 0.05442759754539951, 0.052936798485992385, 0.051468093103946864, 0.05008918295844286, 0.04865820623578023, 0.047184247895858004, 0.04581770026353569, 0.04447491906893813, 0.043137875210590856, 0.04184667614931396, 0.04056861325165743, 0.03932800606399272, 0.03811215258088293, 0.03692531011825085, 0.035760030092793715, 0.03465462623622506, 0.033538172328530236, 0.03245056219341074, 0.031356388172640456, 0.03033080620594535, 0.02933193758295818, 0.028360003276020736, 0.02741518146212076, 0.026488303891122684, 0.025599263456425693, 0.024828331012835395, 0.023981671133778335, 0.023167218197178402, 0.022276319398989497, 0.021537912986170256, 0.020820025629596877, 0.02013090702339923, 0.019466421523019663, 0.018931042645856176, 0.01830329147204836, 0.017632101725513896, 0.01707503287006131, 0.01654332938030257, 0.016137449542480916, 0.015643570073954328, 0.015167416414672417, 0.014735754177213607, 0.014332311980819828, 0.013928480792166418, 0.013582993762947736, 0.01333297068527267, 0.013027670840085057, 0.01275041434698529, 0.012399796472224554, 0.012188739728955756, 0.011969706645243381, 0.01180218244275359, 0.011653212160385314, 0.011593769442733184, 0.011473615097637427, 0.011395113211325128, 0.011318158683820925, 0.011264255548921282, 0.01116947241322352, 0.011167771359561067, 0.0112507334449391, 0.01127580964643218, 0.011322143866544947, 0.01132763256669742, 0.0114222465340993, 0.011476883359916165, 0.011610182615291304, 0.01175596258281346, 0.011946132038484164, 0.012113577308362503, 0.012271612934627914, 0.012471457678570864, 0.012684222857641638, 0.012894906083891168, 0.013135007418506553, 0.013520724198676995, 0.013766934844866111, 0.014031936719116475, 0.014269742761435765, 0.01457412591349383, 0.014803632910952302, 0.015143591015782849, 0.015489862361723337, 0.015957896450027455, 0.016302265185405937, 0.016668665506496035, 0.017036240469625853, 0.01741499659469872, 0.017828118644689427, 0.01822320258559829, 0.018605638098012536, 0.019021892612589995, 0.019444594397903876, 0.01977996192174563, 0.020225226453850133, 0.02072552754979081, 0.021162257327996037, 0.021601522015119442, 0.02209500245559836, 0.022531435313814248, 0.02286033739144687, 0.023318346067544238, 0.023772592731195735, 0.024301405988142104, 0.0247386278900467, 0.02519720781116514, 0.025632947969547702, 0.026069433469083497, 0.026533820526776265, 0.026966019107890003, 0.02741326304107139, 0.027843026868071524, 0.02827212378767606, 0.02871644861958036, 0.029139588691436135, 0.029569934342495097, 0.02998688933730493, 0.030400722192892003, 0.030827434949715345, 0.031230719393091536, 0.031592532717487694, 0.031991330546307054, 0.03238244693795686, 0.032787934720742526, 0.033160028515630706, 0.033487661526742624, 0.033849576297837275, 0.034201362676437495, 0.03456716259356487, 0.03489545499472507, 0.035322742790159616, 0.03561918004159135, 0.03591218078038815, 0.03624158968693151, 0.03651934628561316, 0.0367278594770613, 0.03700456777798806, 0.03727146626693886, 0.03762688995948594, 0.037860783481893076, 0.03803373415200826, 0.038263493982743285, 0.038483165664414724, 0.03883019779735792, 0.03901144577086787, 0.03913003717424886, 0.03931136950240741, 0.039483916218192146, 0.039747740714238367, 0.03988873519035873, 0.039958460069543025, 0.04009837213067677, 0.040228351922051056, 0.04048408722383176, 0.04057650366165269, 0.040569421705024415, 0.040667546420034416, 0.04075547706503975, 0.04087044249277729, 0.0409333293786887, 0.041012451661980164, 0.041056183778719904, 0.04109304160761186, 0.041212140275559354, 0.0412233381512527, 0.04125082721575727, 0.04125429259404493, 0.041255159152071064, 0.0412155937527959, 0.041214289923723994, 0.041216183540568004, 0.04120154524649182, 0.04118150252676127, 0.04118966025151502, 0.041154928164065754, 0.04115622292776922, 0.04111040435008336, 0.04106375041172522, 0.04108121271423008, 0.041024156122917495, 0.040930519134186084, 0.040882961263361606, 0.04092799912216223, 0.04086783268913131, 0.04081269688320891, 0.04077510889266224, 0.04072699594913133, 0.04062955159739336, 0.040597339494900686, 0.0405664200904665, 0.04060051451417479, 0.04056551958513339, 0.040590763925721536, 0.04056149022011578, 0.04054165049609137, 0.040529145555714685, 0.040527819566682055, 0.04055594322591979, 0.04057008719307699, 0.04059466044315868, 0.040551591470213755, 0.04060731555682697, 0.0406994351479017, 0.04076558700564811, 0.04084193870546069, 0.04103528028027038, 0.041120701308165704, 0.04114620453489176, 0.04127789847884501, 0.041423310871400894, 0.04158128606555439, 0.04175649813771551, 0.04196049941964284, 0.042166327589357955, 0.0423901378127071, 0.04271633561078279, 0.042967461162694946, 0.0431557499597491, 0.043467236033168634, 0.04379855498582443, 0.044182226187248985, 0.04455182152149432, 0.04501075504096263, 0.04542106834987257, 0.045860397296514185, 0.04628043084937801, 0.046784242985415114, 0.04742465628350635, 0.047968823733666004, 0.04854730550763042, 0.04903706107410417, 0.049699250512731954, 0.05037744972412299, 0.05109650735436264, 0.05184427207981024, 0.05264046207763204, 0.0534465502855628, 0.05426321957896604, 0.055138781811243834, 0.056047614698975505, 0.05707629277230692, 0.05804365042216968, 0.058958742478279015, 0.06001961942603319, 0.06111641622795035, 0.06226687359166525, 0.06343630326041079, 0.06475336247879779, 0.06598918578928305, 0.06727212412410209, 0.06857404673889951, 0.06995420136151126, 0.07137393797364258, 0.07284537540603822, 0.0743621865906041, 0.0759489186152647, 0.07755448273065445, 0.07911480645495764, 0.08082799428059552, 0.08258421644009323, 0.08443287489959873, 0.08627199425901251, 0.08810569638456943, 0.09004918825077211, 0.09203904786070512, 0.09418407352219145, 0.09625546801540043, 0.098249457657057, 0.10044686193919637, 0.10269124392322951, 0.10502079118252973, 0.1073572117479427, 0.10969506039055907, 0.1121416194289427, 0.11463783587520648, 0.1172942836949827, 0.11987810546835005, 0.12246392924157751, 0.12517014726269968, 0.12793041890512896, 0.13074492967087623, 0.13361384515310776, 0.1365205588973872, 0.13950082087908358, 0.14253492810871965, 0.14561379734920407, 0.14875740763758993, 0.1519381552499818, 0.15519186091569964, 0.1584988714848775, 0.16185385741277017, 0.16526889529855257, 0.16879523799096252, 0.1723103362302223, 0.17588253195870496, 0.1794555793904907, 0.18314783368938947, 0.1868668228908692, 0.19066804261270612, 0.194520708887666, 0.1984510776064101, 0.20240386233095012, 0.20647695348122577, 0.21052765354306135, 0.21463497238228982, 0.21880183364994676, 0.22301956301104967, 0.22729184050625317, 0.23161794461763974, 0.2359971837404498, 0.2403786339703703, 0.24486851927078623, 0.24944772918175825, 0.2540289736945265, 0.2586604281784003, 0.2633451971698277, 0.2680747507802005, 0.2728230977654425, 0.2776529268583197, 0.28252837919900536, 0.2874751136169611, 0.2924372837045719, 0.2973652029741516, 0.3024283678658556, 0.3075314203337907, 0.31275619383507763, 0.31792837724141254, 0.32313342254314, 0.32839411456351486, 0.33369629635514014, 0.33905401054342665, 0.34443474143858155, 0.3497137787100312, 0.35519096097922004, 0.3606980260597624, 0.3663691664651534, 0.3719194325760793, 0.3773992610499476, 0.3830369425396582, 0.38870355573270016, 0.39438757389068363, 0.4001123015796241, 0.40587889998015275, 0.41165519934491646, 0.4174582279026305, 0.4232704621596143, 0.42912670545931375, 0.43500255982051084, 0.44090517114673333, 0.4468293129566106, 0.45276111256627066, 0.4587273859141363, 0.4646578096869542, 0.4706663001169304, 0.4766881038476661, 0.4827078008190591, 0.48875643318689166, 0.4948342975996356, 0.5009011485341962, 0.506978250389039, 0.5131651463346604, 0.5192470775626514, 0.525267391022504, 0.5313825038001626, 0.5375025265802152, 0.5436430302667414, 0.5497671917158219, 0.555915942457593, 0.5620404205136196, 0.5681656807522364, 0.5742604067802082, 0.5803864217389695, 0.586410232050954, 0.592536440324515, 0.5986493547532171, 0.6047782982554003, 0.610859377967029, 0.616848978717119, 0.6229123626012751, 0.6289560542149045, 0.6350038146729123, 0.6410036376952256, 0.6470691107334923, 0.6530172229517113, 0.6588495829956627, 0.6647742410651726, 0.6706728449448565, 0.676605964636096, 0.682442065025978, 0.6881485773434246, 0.6939456451699758, 0.6997085094571099, 0.7055277441296224, 0.7112086822597575, 0.716752290207539, 0.7223825888625304, 0.7279725502035714, 0.7335978162504929, 0.7390953535217181, 0.7445639020847069, 0.7499821841212753, 0.7553597447167129, 0.760669014486262, 0.7659639319245284, 0.7711191684393348, 0.7763314291745621, 0.7814894567994708, 0.7865890847824024, 0.7916376993610144, 0.7966377375370172, 0.8015727237606292, 0.8064507578560838, 0.8112635756797587, 0.8160261523455219, 0.8207064562536658, 0.8253511275456954, 0.829932864915144, 0.8344714122761774, 0.8389224575062021, 0.8432852083859652, 0.847610120003405, 0.8518675734438689, 0.8560083640499491, 0.8601345734083113, 0.8641825398022823, 0.8681636681590063, 0.8720708289240402, 0.8759760872124828, 0.8797245011195679, 0.8833287101722942, 0.8869418531592065, 0.8904769019031233, 0.8938997990792213, 0.8972812103213179, 0.9006907328314092, 0.9038944862092693, 0.907021945242605, 0.9100457338699193, 0.9130200280500971, 0.9159314614551989, 0.9187395693340866, 0.9214655210006077, 0.9240636904656562, 0.9266281773893734, 0.9290438858722563, 0.9314410035729535, 0.9337464646240533, 0.9360087392617171, 0.9381249375396172, 0.9400759500808578, 0.9420236093453104, 0.9438772316447395, 0.9456593503507099, 0.9473226072751958, 0.9488842003210437, 0.950363789752591, 0.9517502272162458, 0.95303040772271, 0.954231949745724, 0.9554510312975348, 0.956450168212262, 0.957361422916014, 0.9581075622618052, 0.958850060047389, 0.9595482146128952, 0.9600951531647502, 0.960550315895972, 0.9608835371253388, 0.9611578279316731, 0.9612688394884668, 0.9613630611886388, 0.9613591117098137, 0.9612427412262736, 0.9610462118994184, 0.9608492662194775, 0.9604467301301908, 0.9599536749213384, 0.9592786898836142, 0.958615589758754, 0.9578694768100946, 0.9570133701012634, 0.9560633710676564, 0.9549977040355517, 0.9538644184289441, 0.9526283390513575, 0.9513099797038198, 0.949899035532397, 0.948420463377267, 0.9468235442565562, 0.9451543658572701, 0.9433778173944537, 0.9415142375814141, 0.9395175016251828, 0.9374870071198677, 0.935377508996887, 0.9331701016668893, 0.9308766620571626, 0.9285984912125888, 0.9261226390720759, 0.9235594578527301, 0.9209287319103956, 0.918219558419022, 0.915443385057584, 0.9125768269169744, 0.9096521474426279, 0.9066301907578054, 0.9035334730654083, 0.9002749362359519, 0.8970411249534571, 0.893729173643127, 0.8903404482636549, 0.8868762933704663, 0.883382708567225, 0.8797660095865896, 0.8760114517587646, 0.8722664139163466, 0.8684504154305283, 0.8646450470163688, 0.8606816228622981, 0.8565408695407185, 0.852469000006866, 0.8483304034177612, 0.8442348823384676, 0.8399546390656749, 0.8355129572336625, 0.831136241570389, 0.8266998747700032, 0.8222242298784315, 0.8176714296523592, 0.8130409431682253, 0.808385688285445, 0.8036784919161458, 0.7989060831840328, 0.7941017089717206, 0.7892679216975911, 0.7843667784689334, 0.7794218892864165, 0.774404884709413, 0.7693804949658047, 0.7643297816425605, 0.759222700305142, 0.7540784446968363, 0.7489896554633252, 0.7437638040151762, 0.7384357027564428, 0.7331643439089001, 0.727862430042713, 0.7224978813246185, 0.7171433639972152, 0.7117885926598062, 0.7063758762205603, 0.7009398768203672, 0.6955210703346457, 0.6900377210121332, 0.6844667047071259, 0.6789594980090567, 0.6734335603163104, 0.6678738462644526, 0.6623176454759621, 0.6568491530319132, 0.6512524023990716, 0.6456501430855862, 0.6399259248945399, 0.6343299898420894, 0.6287729941196273, 0.6231539546737747, 0.6175319584376742, 0.6119679702223163, 0.6063367179717201, 0.6006578975038663, 0.5950432223582224, 0.5894319928366887, 0.58375114849807, 0.5781603944944212, 0.5725711862144298, 0.5669894300722309, 0.5614147838744681, 0.5558527623433166, 0.550297163920507, 0.5448526885943505, 0.5393111047451015, 0.533790569678455, 0.5282656733512943, 0.5227925301634205, 0.5172554449601786, 0.511837485971291, 0.506438400058844, 0.5010747742869129, 0.49571655754684824, 0.490466660374195, 0.48514831608721987, 0.4798600172609086, 0.4746063027850331, 0.46938559304334293, 0.46418925310839365, 0.45903777427935605, 0.45392832095879077, 0.44884588039465634, 0.4438000841731363, 0.4387358617927263, 0.433772737401895, 0.4287952035425817, 0.4239113675672546, 0.41906297934711173, 0.4143241669724257, 0.40954199771213795, 0.4047012840854465, 0.4000203961230286, 0.3953789334973754, 0.39075417827224573, 0.3861989542459717, 0.3817566435732524, 0.37727820190512384, 0.372848527961365, 0.3684700652926841, 0.3641394145706165, 0.3599095709008396, 0.3556741646532751, 0.35149310916324644, 0.34731434372483105, 0.34324878574628576, 0.3391548782464453, 0.33520337818654466, 0.3313001570989065, 0.3274798536900758, 0.3236722438146711, 0.31998674022005913, 0.31627744832956345, 0.31262631567541604, 0.30903510361787107, 0.30549977651790633, 0.3020224769137571, 0.298603146605786, 0.2952417414988905, 0.2918228220545135, 0.2885917663913679, 0.2854902571639678, 0.28235296172129226, 0.2792731243344926, 0.2762470817236321, 0.27328279011433165, 0.2703888974063576, 0.2675377279408569, 0.26474469852748717, 0.2620003834617833, 0.25932444559884543, 0.2566982956192932, 0.2541376922929936, 0.25163373620366203, 0.2491845105440813, 0.24679389013898587, 0.24436835521285075, 0.24210173200038057, 0.2398860116557873, 0.23772547313324902, 0.23561263916169037, 0.2335838872569683, 0.23157213224294856, 0.22961491099041687, 0.22768222389538773, 0.22583714229807106, 0.22411860557039898, 0.22236819562982107, 0.22067380528512637, 0.21895272236153063, 0.2173783150854572, 0.21595161354138098, 0.21446274088293074, 0.2130281972243385, 0.21165813252907142, 0.21032782157819696, 0.20904022540987827, 0.20781413852378258, 0.20663759873227827, 0.20548556174282656, 0.20440865841426892, 0.20330673356930382, 0.20232959888474245, 0.20139299954104345, 0.20049316015204094, 0.1996378617435746, 0.19887460994261888, 0.1980923270375144, 0.197352329752607, 0.19667429658548555, 0.19601388786761387, 0.19538706753043353, 0.1948086962543069, 0.19426901427351698, 0.19376341858421348, 0.1932989508598893, 0.19278099191808118, 0.19239869523870648, 0.19204556517084512, 0.19171031195078422, 0.1914164718188208, 0.19112820559267857, 0.19089273025596437, 0.19068327176883007, 0.19052377682722327, 0.19036245197644122, 0.1902368044061595, 0.1901263640511991, 0.19004141953822248, 0.19005560092905424, 0.19000973778792762, 0.1898811939717678, 0.1899020237971693, 0.18994094288617577, 0.18998630888220983, 0.19006133891976795, 0.19016341116259924, 0.1902682381398868, 0.19038843706761804, 0.19060146139974501, 0.19074031650537832, 0.19092273502168153, 0.1910918771130566, 0.1912771946728587, 0.19145111038867946, 0.1916675985134454, 0.19189633591151473, 0.1921322721678188, 0.19237655070311593, 0.19252575413794026, 0.19279656971796896, 0.19308742538782342, 0.19335464991191315, 0.1936222471713526, 0.19398842777429948, 0.19424292697042575, 0.194516780080398, 0.19477697874261632, 0.19503986117772962, 0.19521661714153166, 0.19549202940607777, 0.19575960003391493, 0.19602287378820596, 0.1962792070327842, 0.19650022598758146, 0.19674482566471102, 0.1969664606396443, 0.1971925468740071, 0.19740734227789164, 0.19769434324158894, 0.19787512278163993, 0.1980744443283224, 0.19823583725540014, 0.19838911678264534, 0.19845866778671475, 0.19860172997869535, 0.19869014892973016, 0.19880668967397686, 0.19890475519151207, 0.19910154244831782, 0.1991475696848572, 0.19908828078620514, 0.199120440120816, 0.19913293050384673, 0.1991441353508148, 0.1991142225938588, 0.19915056084231095, 0.1990706461282196, 0.1989753124062014, 0.19878155847928175, 0.19866253762002822, 0.19848511401543006, 0.19832431473350376, 0.19813813216196913, 0.19790246231230368, 0.1976688160424314, 0.19751283717227763, 0.19721305807872433, 0.19689288564817944, 0.1964603717342948, 0.19610879251635685, 0.19569803625907325, 0.19529557350247967, 0.1948641294433327, 0.19444874586263006, 0.19395473775003946, 0.19346869824638602, 0.19291923729539354, 0.19234583974238711, 0.19171087993682587, 0.19109316540610488, 0.19045208039676487, 0.18977973190434194, 0.1890805450352733, 0.18834334545993697, 0.1875918825039527, 0.18680923433960364, 0.18600342373477266, 0.18516270750585548, 0.1843030529594485, 0.18341578809038186, 0.18257369976425247, 0.1816226080682068, 0.18057408809612385, 0.17958606384422737, 0.1785701586942398, 0.17757138320224097, 0.17649506752667246, 0.17535898998418442, 0.17423830467426574, 0.17309117785778164, 0.17204077189181902, 0.1708261609208845, 0.1695091738340046, 0.16826725351415725, 0.1670007988764036, 0.16566537767105394, 0.16435624705696153, 0.16302458262710326, 0.161663127267752, 0.1602769152444407, 0.15895587141045495, 0.15751056691446946, 0.1560341768658407, 0.15455422518503562, 0.1530551996902743, 0.1515781244194812, 0.15003604732111583, 0.14842545147770606, 0.14685705534627666, 0.1452691974416554, 0.14370887746251554, 0.1420776221536279, 0.1403900046459913, 0.13873323575820262, 0.13705907861696867, 0.13531412355973346, 0.1336137327593668, 0.13191140526813672, 0.13017253753980038, 0.12841790989125051, 0.12663528198524016, 0.12485312567092219, 0.12304188421682952, 0.12123405016472089, 0.11941281033640576, 0.11763117189353356, 0.11577915570077639, 0.11387639622154853, 0.11201429217533114, 0.1101426008800177, 0.10824718149686259, 0.10636042592170449, 0.1045305791511853, 0.1026199138130188, 0.10070624789050354, 0.09879166709747039, 0.09687247770180842, 0.09488417159938164, 0.09296955997953658, 0.09104974945602541, 0.0891219339370978, 0.08719490475297637, 0.08536188920857547, 0.0834178980611413, 0.08147819306963162, 0.0795557943485017, 0.0776230541499569, 0.0756173236535868, 0.0737049162876547, 0.07179351628851591, 0.06991930935752663, 0.06800788252809625, 0.06612416109148546, 0.06422110519120253, 0.06232560015019263, 0.060478899317859484, 0.05859425870322977, 0.05661436853864538, 0.05476490041910496, 0.05292050585737555, 0.05105243016675287, 0.049224973270282725, 0.0475099318397183, 0.04568279972944206, 0.043870078044593315, 0.04209235366209205, 0.040306242357173665, 0.038510091789019395, 0.03675937919473997, 0.035023401491904506, 0.03324668453945223, 0.031548352555570716, 0.029924186055694798, 0.02824441462870592, 0.026582476445038732, 0.02494979888076163, 0.023322911099962415, 0.02165761107117906, 0.02007681794327325, 0.01851253324295765, 0.016998982930695003, 0.015465599409256405, 0.013846544230571078, 0.01236776327646508, 0.010904118834261164, 0.009501465128480638, 0.008065878437745498, 0.006708862183621876, 0.005308235735437938, 0.00393271938847176, 0.0024761976396656927, 0.00116429211639897, 0.0