0.04173767550230941, 0.0415938679599006, 0.04148232761092466, 0.0413787281925227, 0.041316892369274175, 0.041241467817890655, 0.04117967768275636, 0.04112200292463536, 0.0410825326032643, 0.041033554223741615, 0.04101086220601536, 0.04099288992913455, 0.04094417256767098, 0.04093817204313281, 0.04091097626590979, 0.040910142000527075, 0.04090927424744843, 0.04097328020814478, 0.04096506649589824, 0.040916641875810386, 0.040922956546834095, 0.04093100445602256, 0.04095850158506193, 0.04096878266798895, 0.040992696701119304, 0.041009302294151256, 0.04103057123864146, 0.04104422671831858, 0.041076862886251383, 0.04110651508035403, 0.04114933681442881, 0.041196807463570934, 0.041174720204090756, 0.04124195925910351, 0.041449857213809026, 0.04150337608485122, 0.04156792656894845, 0.04158348952984, 0.0416765954961994, 0.04170190292522931, 0.04181824269160463, 0.04193771752686238, 0.042130776124085986, 0.042250217734644886, 0.0423417520589655, 0.04248471863948326, 0.04263510500743699, 0.04282559771854445, 0.04298783941423259, 0.043110647848104054, 0.04329975066508922, 0.04349640763300268, 0.04370106681106721, 0.04391413471873145, 0.04414095134340386, 0.04437128333983094, 0.044611315729810155, 0.04483395130370448, 0.045097546385268625, 0.0453376704030298, 0.0456234397604708, 0.04591702181533247, 0.0462388985572188, 0.046547328120005546, 0.04683399449481063, 0.04716787162176891, 0.04751099899306634, 0.047943391478720024, 0.048296369499469576, 0.04861715153900398, 0.049005861838768774, 0.049406416440995055, 0.049838876074301916, 0.0502611316366538, 0.05070182825198465, 0.051150393127417204, 0.05161271648141384, 0.052034108289833465, 0.052530839734924714, 0.0530159064197768, 0.05353734822416362, 0.05406914984507936, 0.05464171402156084, 0.05519214689194173, 0.05570151463503693, 0.05628627389150399, 0.05688194627988491, 0.057598495409994975, 0.058203936902412774, 0.058718726606628115, 0.0593749604327245, 0.06004294881220868, 0.06069094652118621, 0.06138816310909552, 0.06216146448373712, 0.06287411363822103, 0.0636031197315556, 0.06435346230469081, 0.06511458526261228, 0.06587498751601412, 0.06667164505751844, 0.0674839757123743, 0.06832205938601053, 0.06916488527943118, 0.07002432873405064, 0.0709004206842228, 0.07179319421198045, 0.07269025764214487, 0.07361807128345177, 0.07455452118361065, 0.07551559916756648, 0.07640314214389009, 0.07740757674755855, 0.07842325212769116, 0.07949575874137584, 0.080530718968662, 0.0816115122369815, 0.08267492784015663, 0.08375640741214785, 0.08485833942556975, 0.08597534428941614, 0.08707547380175314, 0.08823260399945161, 0.08940548051270114, 0.09058682174005733, 0.09179262399382986, 0.09304400601036071, 0.0942776948851955, 0.09552907181966822, 0.09678803973648109, 0.09807558519209145, 0.09934252231264801, 0.1006680549854589, 0.10200802066244537, 0.10339494225921797, 0.10476028595044372, 0.10614984283267455, 0.10754758941743532, 0.10896217198243398, 0.11032376941621587, 0.11178012943119915, 0.11330589809341589, 0.11477986349504773, 0.11626989550004262, 0.11774343760486505, 0.11926894677078663, 0.12080548581338776, 0.1223583551791149, 0.12392459939480135, 0.12556135459081774, 0.12714701466916242, 0.12868447752954587, 0.13031058326941608, 0.13194838640628256, 0.13362772954203941, 0.13528517665774922, 0.136936061617461, 0.13862234044269792, 0.14032017967343902, 0.14205178628806941, 0.14376941664489953, 0.14541979407532676, 0.14717163838660455, 0.1489305127595923, 0.15080354146362127, 0.15256365851749398, 0.15426528202072384, 0.15606086595351426, 0.1578644234998185, 0.15973795675802907, 0.1615491837788462, 0.16329434639460225, 0.16513656004131702, 0.1669840391424623, 0.16887901113202985, 0.17073156497530506, 0.17261889133820887, 0.17448236847252938, 0.17635384447970218, 0.17819037504495508, 0.18008114099474715, 0.1819929442305543, 0.18388852472596318, 0.18578817052491112, 0.18767901278051013, 0.1895870344644405, 0.19146479098607713, 0.19338064445811504, 0.1952960341283032, 0.1972804425817124, 0.1991857454768014, 0.2009921495014249, 0.20291554910200146, 0.2048346974803504, 0.20682674348828745, 0.20872788974846462, 0.21063169823716196, 0.21253217323843474, 0.21443156659557516, 0.2163441045283481, 0.21823741453100462, 0.22009866353389632, 0.2219905240976687, 0.22387701362537998, 0.2257651412032877, 0.22763860087215348, 0.22949581266588784, 0.23135739611287826, 0.23321107898672686, 0.2350266045366079, 0.23686695033742347, 0.23865415088812214, 0.2404778344369986, 0.2422877881354759, 0.24416111405145335, 0.24593396911754298, 0.2476973856988782, 0.24945061024257165, 0.25119291479193034, 0.2529310509512976, 0.25464848180624455, 0.2563359650875261, 0.25802979113190694, 0.25970870798556195, 0.2613771698365508, 0.2630240940356309, 0.26463745192998905, 0.2662536911935101, 0.2678517008857341, 0.2693913259539615, 0.2709567233723918, 0.2725327686565798, 0.2740506618778349, 0.27554846712371456, 0.2770481083364198, 0.2785015741222237, 0.27993983531201405, 0.281351689611836, 0.2827424037253582, 0.2840864933352566, 0.2854361991111337, 0.28676403057761707, 0.2880643375698429, 0.28933968820345995, 0.29054743705152847, 0.2917770299772237, 0.29305266631687554, 0.2942157449848665, 0.2953543397735553, 0.29643292484140515, 0.29752479914524077, 0.2985359760653824, 0.2995771041041207, 0.3005861299222922, 0.3015705946352163, 0.30251467750778693, 0.3033973600709884, 0.3042819481100016, 0.30513303318685253, 0.30603022022753995, 0.3068044197681817, 0.30750244083896455, 0.3082239990559202, 0.308912603083296, 0.309590393263161, 0.3102095721279373, 0.3107913816936645, 0.3113459706731487, 0.3118670614213917, 0.3123319472371154, 0.3127878676742656, 0.3132354009443436, 0.31361629963235976, 0.31396277122588884, 0.31425210127463393, 0.31453153028351893, 0.31478176284068377, 0.31498684597731647, 0.3151554971011106, 0.31525276264167584, 0.31535247972237535, 0.31539596367893175, 0.3154203561118465, 0.3154052067755124, 0.3153756101413054, 0.31527892422901127, 0.31515217116596866, 0.31497944697189145, 0.31476952223754, 0.31450241247127003, 0.31422030707625087, 0.31390458839001123, 0.3135447837583234, 0.3131468619696528, 0.3127730023117807, 0.3122911337570115, 0.3117648446496927, 0.3112148347292661, 0.31062897694333247, 0.3099697641160581, 0.3093162897550332, 0.30861190833237934, 0.307883251755647, 0.30711583447864993, 0.30631990978942625, 0.3054746415838967, 0.3046045087907882, 0.303683298702868, 0.30272592442946383, 0.3017349965820666, 0.3007053756841707, 0.2996202829544547, 0.29852216016965816, 0.297382707961902, 0.29621285845928735, 0.2950070947404121, 0.29380558253604383, 0.2925241615214881, 0.291180426875563, 0.28983787039241976, 0.2884613373586772, 0.28703133535140785, 0.2855905374610072, 0.28415062518387296, 0.2826381755708287, 0.28109488568573404, 0.27951107401289554, 0.27790816482657826, 0.27628962262494244, 0.2746241495451146, 0.27292980213450563, 0.2712193206567245, 0.26946662055545734, 0.2676643929810199, 0.26586048792173683, 0.2640287742393419, 0.2621101353031554, 0.2602319436459295, 0.2583540289351625, 0.25641400080530213, 0.25444810137988705, 0.25247938473486053, 0.2504609609424363, 0.24841000266222701, 0.2463481231137914, 0.2442640549535999, 0.24219317515772817, 0.24006208248271582, 0.23782801319667926, 0.2356709661673487, 0.23349136810200485, 0.23130022786296686, 0.2290774218050713, 0.22686549875635484, 0.22460188849816123, 0.22232267998775435, 0.22007565132487328, 0.2177609571599256, 0.21543501416170407, 0.21309802691004653, 0.2107502555122483, 0.2084019519428178, 0.20603233380324834, 0.20357154099005123, 0.20119432952861968, 0.19880411228008255, 0.19641192930875429, 0.19399769367225392, 0.191626362982182, 0.1891878479852388, 0.18674473569772648, 0.18424029019463498, 0.18179652036409102, 0.17941341831555052, 0.1769492650873081, 0.17448435175113516, 0.17195691329934812, 0.16949947672242427, 0.16707380164465044, 0.1646068714738725, 0.16214076904296112, 0.1596413255096866, 0.1571831594897451, 0.15474315739182018, 0.15228524415071035, 0.14983087967185027, 0.14736835500372872, 0.1449248020651352, 0.14252847432474242, 0.1400903190824323, 0.137661068202638, 0.13525107265032707, 0.1328396270998029, 0.13042900178312214, 0.12804073019159976, 0.1256634765244686, 0.12326545478539928, 0.12091590041997623, 0.11856223482120892, 0.11623697300016499, 0.11392325897677356, 0.11160953789748143, 0.10932306585928762, 0.107126987255007, 0.10485833330343779, 0.10260903064408167, 0.10038172220450223, 0.09817132042210942, 0.09596111417998554, 0.09379362511729926, 0.0916456132600837, 0.08949268273995575, 0.08738814070754579, 0.08536518869934133, 0.08329236401301889, 0.08124377347880675, 0.07921703864969139, 0.07721758917744014, 0.07527000229899543, 0.07331637148062303, 0.0713892746587263, 0.06945396524994729, 0.06758452101932552, 0.06581448179042892, 0.06398574113532958, 0.06218690064479487, 0.06044015171929559, 0.05869781995194081, 0.05704097975075679, 0.05535318216133137, 0.05369896910303995, 0.0521126370523047, 0.05051980583680022, 0.04893646920082489, 0.04741497824778382, 0.045925551939039085, 0.04450537230636954, 0.04307512675749683, 0.04173855699800365, 0.04036857886798581, 0.03903555331033695, 0.037701609116042444, 0.03644554077220654, 0.035299929360856554, 0.03410095426956705, 0.03293977329352675, 0.03183821578747695, 0.030748283281568613, 0.02975821506749797, 0.02873544529406115, 0.027753095176932474, 0.0268377287110714, 0.025930568986066087, 0.02504601917933098, 0.024220425073158865, 0.02343268031252178, 0.022771962777688635, 0.022047795834778856, 0.021378248160582588, 0.02073606544234463, 0.020135244944788182, 0.019582561207903942, 0.019061592525944606, 0.018635365182874255, 0.018187172487934306, 0.017781315042112066, 0.017446890677584037, 0.017119871386454346, 0.016854899062861743, 0.016609034935621228, 0.016405237190002073, 0.01622300225001559, 0.01610408762970577, 0.016104076767435284, 0.01605365625961441, 0.016046721040986072, 0.016104883859133366, 0.016179936668382133, 0.016270444439624557, 0.01643389695130113, 0.016637416962844733, 0.01693792113029408, 0.017213657963945993, 0.017571827058655894, 0.017927280594107906, 0.018326535122176347, 0.01877629152363773, 0.019260042653624063, 0.019781072226817395, 0.02034940589868415, 0.02095869752402772, 0.02164337920383532, 0.022329153472380913, 0.023071813416437388, 0.023839143739294237, 0.0246483392593464, 0.02546907556916883, 0.026364335158365126, 0.02731338295945762, 0.028284420177281173, 0.029295003747258904, 0.030342460806160942, 0.03143191013529285, 0.032577661456085906, 0.03374260688697392, 0.03494721440711337, 0.03626829013682195, 0.03754178838507556, 0.038846195291989925, 0.040207135160032895, 0.04160920345405421, 0.0429897386016246, 0.044480391451903925, 0.04605448957601531, 0.0476117487928081, 0.04920811658431771, 0.050793593149418954, 0.0524736088644533, 0.05424630304996921, 0.055990302661277996, 0.057755954632811864, 0.05957991101587018, 0.06144128708346536, 0.06333248183570299, 0.06526921092308156, 0.067237552998472, 0.06924800813874621, 0.07129462466923911, 0.07341712975480032, 0.07553091973340817, 0.07767550859845132, 0.07986636957376789, 0.08209433727843561, 0.08433678523845971, 0.08664103736294569, 0.08897793479470435, 0.09135273504679166, 0.09376246317707068, 0.09627171325378597, 0.09874304647323687, 0.1012254973321474, 0.10377663051264006, 0.10636360603710675, 0.10894890535744858, 0.11161158153676673, 0.11428000910317417, 0.11701243440371888, 0.11977661804598005, 0.12260267179500958, 0.12542741921972353, 0.12822171002418775, 0.13112287123105354, 0.13405440494090728, 0.13707141927146543, 0.14005801129223763, 0.14305428838318543, 0.14611290635671545, 0.14920428759606552, 0.15230856685834582, 0.1554680198829587, 0.15864917255157973, 0.1618732873136034, 0.1651286973482202, 0.1684602769866082, 0.17177300143970364, 0.17508256291973917, 0.17846791464647854, 0.18188467077634865, 0.18529059735059009, 0.18877553120360163, 0.19233422004566642, 0.1958718350669743, 0.19944151961985673, 0.20297351549012005, 0.20661562658558852, 0.21034006454117354, 0.21403094905989925, 0.2177532547855742, 0.22147945759955306, 0.22526750301270107, 0.22905007858077525, 0.23290120146374146, 0.23677972679123327, 0.24069336612542527, 0.24462646321527742, 0.24857306983013938, 0.2525649350196412, 0.2565844303342263, 0.260654018138662, 0.26472618718271324, 0.2688124909928418, 0.2729444388761663, 0.2771041887903292, 0.281299101305446, 0.2855132054065482, 0.28966322636680547, 0.2939444899893586, 0.2982480312667488, 0.30255447755885945, 0.30690651831179605, 0.3113381246265701, 0.3157281457478998, 0.32014448687864827, 0.32455460418204723, 0.3290269474484755, 0.3335677758313272, 0.3380819388105147, 0.34262227042848264, 0.3471385967070847, 0.35173615469908015, 0.3563507415040052, 0.3609928810909566, 0.36565660622961105, 0.3703020633522089, 0.3750136801250089, 0.37974675078176023, 0.38449610945496376, 0.38926474374434017, 0.39407001564125443, 0.39887484104485654, 0.4036822557757853, 0.40852892849320016, 0.41339393738941915, 0.41830190528440575, 0.42319971704108267, 0.42806924205089314, 0.433010362090606, 0.437966703047871, 0.4429878149194264, 0.44796779536464276, 0.45292292374414156, 0.45794235080598017, 0.46297543401836766, 0.46799699122613836, 0.47305950853814777, 0.4780636146635389, 0.4831570636482924, 0.4882572907895126, 0.4934092718323217, 0.49851800814346114, 0.5035941786293184, 0.5087272004870204, 0.5138666465756786, 0.519099342863316, 0.5242400867849767, 0.5293690760394679, 0.534532814700503, 0.5397038246212985, 0.5448514641867026, 0.550038337298959, 0.5551910853911893, 0.5603884122291254, 0.5655856358940026, 0.5707849188666645, 0.5759805926264312, 0.5811726717987066, 0.586365931747441, 0.5915568806245112, 0.5967250636883779, 0.6019121488223671, 0.6070989487489665, 0.6122743760150399, 0.6174437420947989, 0.6225641460798739, 0.6277247440128261, 0.632939472352019, 0.6380705180372999, 0.6431938198738745, 0.6482213357663362, 0.6533369868593296, 0.6584915439870238, 0.6635684067026872, 0.6686318188326793, 0.6736709126594803, 0.6787058900454093, 0.6836942240482705, 0.688698456461026, 0.6936824250752869, 0.6986230917577448, 0.7035673053147408, 0.7084928306137621, 0.7133884872434192, 0.7182594879407163, 0.7230901666247876, 0.7279114389663423, 0.7327147838591097, 0.7374783225243255, 0.7422130291272986, 0.7469229746871298, 0.751596666343501, 0.7562266117267692, 0.7608382330930167, 0.7654158227662737, 0.7699634296507757, 0.7744695426112765, 0.7789465369980104, 0.7833775451155314, 0.7877703633283518, 0.7921263904085378, 0.7964392579244917, 0.8007058541823586, 0.8049356527586441, 0.8091216864635609, 0.8131908393462021, 0.8172953312917558, 0.8214035697689741, 0.8253988331798839, 0.8293452564836064, 0.833216963300644, 0.8370657794010579, 0.8409035441036572, 0.8446395973433526, 0.8483230636566873, 0.8519403207530951, 0.855516624631337, 0.8590013440694927, 0.8624674495569378, 0.865872789041141, 0.8691868241208855, 0.8724722347846673, 0.8757203334859899, 0.8788724527332592, 0.8819727708736964, 0.8849940295031186, 0.887950084827012, 0.8908350251079755, 0.8936584909184642, 0.8964534527455914, 0.8991344904814367, 0.9017477748683826, 0.9042623195662383, 0.9067404307598338, 0.9091283792607766, 0.911462379795218, 0.9137210930034896, 0.9159436707779243, 0.9180449397545067, 0.9199967481979358, 0.921956705576527, 0.9238357484472999, 0.9257007266487092, 0.9274086608550505, 0.9289963355391313, 0.9305527098539408, 0.9320269842737195, 0.9334783539567105, 0.9347795315920285, 0.9359434433623076, 0.9370907179155494, 0.9381529019429004, 0.9391917940373191, 0.940074941634167, 0.940823301480143, 0.9415470348398227, 0.9421836724445469, 0.9427279791472447, 0.9431902700382183, 0.9435519974315674, 0.9438393950479814, 0.9440375864373529, 0.9441713538770499, 0.9441877783250843, 0.9441236378506916, 0.9439628154845647, 0.943713898142527, 0.9433194658075956, 0.9429008504676378, 0.9424424648619846, 0.9418336427743764, 0.9411363981137623, 0.9403108253094369, 0.9394413813827849, 0.9384809811673136, 0.937429921697962, 0.9362884978309066, 0.935099255462392, 0.9337726520668729, 0.9323440451905112, 0.9308451192017041, 0.9292582685024596, 0.9276010895374962, 0.9258368220165811, 0.9239912770297041, 0.9220540459830454, 0.9200312184887827, 0.9179329558829583, 0.9157383905651678, 0.9134496584830216, 0.9110881874295103, 0.9086425650486875, 0.9060561054012743, 0.9034508753492199, 0.9008244494072414, 0.8980404725053701, 0.8951763886224303, 0.8921680736079437, 0.8891534785218157, 0.8860890924271627, 0.882907373136726, 0.8796476686315269, 0.8763729770636715, 0.8729520640516716, 0.8694394303011145, 0.8658777845505984, 0.862244128714533, 0.8584994499024377, 0.8547291101454664, 0.8508919101989934, 0.846978501194382, 0.8429959864790051, 0.838970410405392, 0.8348501282776813, 0.830596158339617, 0.8263575059762034, 0.8220529473058132, 0.8176742053056564, 0.8132440485206758, 0.8087150405231353, 0.8041681071902714, 0.7995607851819384, 0.7949397046512898, 0.7902115738298097, 0.7853987693198219, 0.7805713725050936, 0.7756925604251668, 0.7707689545607298, 0.7657916120369885, 0.7607580764796816, 0.7556910377504091, 0.750580282255226, 0.7454299120603404, 0.7402362457773475, 0.7350510362261462, 0.729775437057518, 0.7244668522187314, 0.7191314344881723, 0.713759844051787, 0.7082995858842327, 0.7028787712051638, 0.6974281817851301, 0.6919546252313612, 0.6864493457295648, 0.6809324413272704, 0.6753792236220905, 0.6698061128390796, 0.6641998133074424, 0.6585936546357953, 0.6529268921872909, 0.6472964015556482, 0.6416510177296947, 0.6360251361524681, 0.6303520866608933, 0.6246795163195171, 0.6189932509325246, 0.613303780272105, 0.6075729453286002, 0.601886910028826, 0.5962101983134789, 0.5905235973252504, 0.5848407493572916, 0.5791485120005789, 0.5734803395431805, 0.5678203207352777, 0.5621702772455772, 0.5565319961014594, 0.5509196587248074, 0.5453085660258103, 0.5397275368225212, 0.5341517182678276, 0.5285973646280376, 0.5230062758950035, 0.5175067353704859, 0.5119898878335709, 0.5065422130769236, 0.5011185456068649, 0.4957458575415902, 0.4903733249277917, 0.4850670694068296, 0.47975476078132495, 0.47447915375673166, 0.4692887523432295, 0.46408442024379987, 0.4588685891192498, 0.4537584033615318, 0.4486901195066998, 0.44367257907395474, 0.4386912849080194, 0.4337215894254165, 0.4288387225371747, 0.4240027606028916, 0.41919033257840005, 0.41445571322401614, 0.4098156215913766, 0.4051764542512658, 0.4005925646698277, 0.3960674620122068, 0.3915968662469913, 0.3872443488356465, 0.38288401904069136, 0.37858734043671083, 0.37428266821867306, 0.37012373099749124, 0.36597360721709116, 0.36194438515071775, 0.35797540091555385, 0.3540805062007794, 0.35023460183774285, 0.3464536141913022, 0.3427385869297817, 0.3390904938149575, 0.335467992302716, 0.33196176924951604, 0.3285549552643491, 0.3251799151872405, 0.3218758275351671, 0.31859857863751456, 0.31544386532422286, 0.31237918789924457, 0.3093630997776769, 0.3064198547825095, 0.30355492108887655, 0.3007581676136951, 0.2980781052684179, 0.2954251818551556, 0.2928496053212893, 0.2903785757939519, 0.2879538225247744, 0.2855478878263778, 0.2832872437303612, 0.28111592205972324, 0.2790023651119339, 0.27696430992290083, 0.2749818105446844, 0.2730970518517079, 0.27126154461339813, 0.26952814243008205, 0.267867410126571, 0.26630182175804207, 0.2647838488659956, 0.2633299691907432, 0.261961046631418, 0.2606650119878171, 0.25939437452970127, 0.2582492301794716, 0.25720817189472, 0.25619718922811296, 0.2552573177979277, 0.2544029974950021, 0.2536020060689632, 0.2528788807429148, 0.2522170565889858, 0.25162461883408094, 0.2510709306820559, 0.2506185828334265, 0.25022897963459706, 0.24990678785566803, 0.24964840450001424, 0.24946059793044018, 0.24932678233795205, 0.2491829281640389, 0.24918142312383743, 0.24923613302518466, 0.24942872013399323, 0.2495843325736532, 0.24979692855652758, 0.25007050573204226, 0.2504008425375976, 0.25080656187633726, 0.2512441247849158, 0.2517357812492353, 0.2522801065826636, 0.2528756923284568, 0.25347392279184416, 0.2541738257174969, 0.2549504933244406, 0.25573423360492875, 0.2565622224514426, 0.2573610559690031, 0.2582826597492019, 0.259287683581749, 0.2602749500998773, 0.26129945758801754, 0.26234251575680806, 0.2634398079072747, 0.2645470665389861, 0.26571065322009196, 0.26690288358027664, 0.2681226755944144, 0.2693688989737634, 0.2705956442918251, 0.27189682495685186, 0.273218289458613, 0.274631189919703, 0.275981271737723, 0.2773328242874991, 0.2787264291725256, 0.2801368974161992, 0.2815701870546632, 0.2830089442141142, 0.2844878245497377, 0.2859471361192117, 0.2874176586447166, 0.28883798526840404, 0.29033322919638527, 0.291851048083898, 0.29334798643455123, 0.2948463502526939, 0.2963770573326851, 0.2978700121829257, 0.2993471175531471, 0.3008384316220233, 0.3023247045578007, 0.30380944430324436, 0.3052806352620648, 0.30668556421825216, 0.30814432948314235, 0.30958790219405424, 0.31109734612462725, 0.31249727447789416, 0.3138612889381777, 0.31523524991817403, 0.31659106371682666, 0.3178999859502778, 0.31921877462974235, 0.3205062994699016, 0.32177731850537, 0.32302191924568396, 0.3242266426592542, 0.3254168777862618, 0.3266017473527184, 0.32772746999901503, 0.3288224949703278, 0.32989810354933063, 0.33092674962424756, 0.3318574120794608, 0.33282632209882795, 0.33375592723880965, 0.33474257112341915, 0.33557953283874764, 0.3363609155070822, 0.3371275643663114, 0.33785461694232577, 0.338513622377684, 0.33916165478445204, 0.33973555344254996, 0.34029799697299945, 0.34081299741342086, 0.34129500691786374, 0.3417118483868738, 0.3420657712056778, 0.34238789018254945, 0.34265999356505344, 0.3428816414679849, 0.3430523983739529, 0.34318674761416046, 0.3432525612463985, 0.34326706620879394, 0.34322229345928323, 0.3431336149475028, 0.34300915906294693, 0.34281157137934976, 0.34256108834414706, 0.34225228772129374, 0.34189533052315363, 0.3414317806610076, 0.3409723336471986, 0.34045501907644893, 0.33991234872898746, 0.3392758048229729, 0.338588737145674, 0.3378404796854751, 0.3370368416499605, 0.3361379773987101, 0.33522839660876425, 0.33427845748345364, 0.33325150391176606, 0.33216843965543735, 0.33097477542329234, 0.32978698182779387, 0.3285654760427468, 0.32725809100562825, 0.32589486395747225, 0.32445881713985447, 0.32298736609625406, 0.3215026146735495, 0.3199152950414096, 0.31827593735351867, 0.31655742686359306, 0.31481816187010425, 0.31300623628948476, 0.3111644931009628, 0.3092699951810428, 0.3073210042024724, 0.30532354565474523, 0.3032754179499633, 0.30117737803104166, 0.29903018238389795, 0.2968047658260343, 0.29456530880057286, 0.2923220469566114, 0.2899808691536178, 0.28759567305152356, 0.2851770195003465, 0.28270442103284765, 0.28019528746518096, 0.27763968274703965, 0.2750441578362041, 0.2723745888203211, 0.2697056739546304, 0.2670392657571393, 0.2642865862336252, 0.26149866198565475, 0.25869112925897997, 0.2558330475650489, 0.2529130368937086, 0.2499952429627943, 0.24704517549007626, 0.24404401574298942, 0.24103511856927165, 0.23805073659082948, 0.23497586285221375, 0.2318764061286208, 0.22872334623882246, 0.22558095263259056, 0.2224571024611437, 0.21926312832194025, 0.21605017465945586, 0.21286630980888907, 0.20961201728661183, 0.20630679729068768, 0.2030305199470521, 0.19978202959939323, 0.1964725367487663, 0.19315308610150433, 0.18984929797736042, 0.1865091558012411, 0.1832201009178436, 0.17986132294342766, 0.17650123014064986, 0.17311041268316027, 0.16975281427831954, 0.1664236157649112, 0.16306035273652494, 0.15969929540194305, 0.15638598347435217, 0.15302616008165584, 0.14973330243117491, 0.14638119289249596, 0.14304107408172037, 0.13977538276232937, 0.13645242961805967, 0.13311143988395185, 0.12982654498505772, 0.12655689109847987, 0.12340507900775939, 0.12015521519586006, 0.11689634518092051, 0.11369726778943233, 0.11052002437398596, 0.10740502231263273, 0.10426843243624387, 0.10120778683058275, 0.0981179340072018, 0.09505829217684296, 0.09204657686933608, 0.08904623064436516, 0.08608830679952609, 0.08315215379707297, 0.08025010872944827, 0.07739517924547254, 0.07456160024749048, 0.07183686578639595, 0.06906839676710848, 0.06634216416243768, 0.06370808298893098, 0.06106077738686514, 0.05845447466013163, 0.05589984577612401, 0.05339123435094432, 0.05098368296183173, 0.04856137622091194, 0.04618701038973041, 0.043866014922545646, 0.041595700359315944, 0.03943855907990318, 0.03726290483071392, 0.03521478438087203, 0.03314098864175801, 0.031126905373808945, 0.029129952206118404, 0.027239788217689666, 0.025463559201492642, 0.023680113730755837, 0.021957504160003777, 0.020333050897211467, 0.018727615683314502, 0.01717058585738743, 0.015693652034073937, 0.014279255039514903, 0.013017140203858768, 0.011717380810495292, 0.010384254352440562, 0.009234124300814897, 0.008146291745613569, 0.007260652974397498, 0.006281961146213591, 0.005340692230736424, 0.004510379803484921, 0.00374953940093542, 0.00303584522927153, 0.002416954618026051, 0.001913773775468422, 0.0014262419366107603, 0.0010105564796065393, 0.0006642093475234319, 0.00039250648671208663, 0.00022487485119727387, 9.271752516839929e-05, 3.43676501407338e-05, 0.0, 9.523371848869451e-05, 0.0002811275727231936, 0.0005157864775039966, 0.000823077965622756, 0.0012031689318615564, 0.001656216995487989, 0.0022618981246939943, 0.002851231161523568, 0.0035183838288920127, 0.004245423656760025, 0.005068871923788166, 0.0060025314773909854, 0.006972182829000663, 0.008018762636154544, 0.00910451978426814, 0.010308303155244442, 0.01159558593708585, 0.012945179958351058, 0.014368783759225717, 0.015886132041709303, 0.01745479671832932, 0.01904097462613087, 0.020765897787070556, 0.022561661841925124, 0.024428427859613376, 0.0263663055492162, 0.028452400570982455, 0.030522899033880842, 0.032668883650765215, 0.034817594540055646, 0.037121644481220406, 0.03953246766067678, 0.0419707856597598, 0.04448063031803217, 0.04702681002317997, 0.04968291059556493, 0.05240240797162346, 0.0551957379319244, 0.05805684688242816, 0.06096816317022702, 0.06396646473969309, 0.06700607110216315, 0.07013968015483701, 0.07333770057244937, 0.07665973149825549, 0.07997882136136099, 0.08330816739966819, 0.08676860790922312, 0.09029184083466847, 0.09387514246191112, 0.09752350797864143, 0.10124608854799193, 0.10501610118486027, 0.10884784105895542, 0.11269106500190545, 0.11665091084531345, 0.12070281394046466, 0.12477258963766895, 0.1289011213388861, 0.13308283652202962, 0.13732768394436798, 0.14159435333793302, 0.1459562188022054, 0.15037150164852695, 0.1548199495308422, 0.159343421018039, 0.16392539454822147, 0.1685496693208921, 0.17322465962264985, 0.17792748426922472, 0.18270515505361845, 0.1874809288021169, 0.19236006506751482, 0.19728329651606571, 0.2023200793061272, 0.20732221648780372, 0.21227477183118015, 0.2173829204917526, 0.22253111233041659, 0.22775648220733066, 0.23297952143383707, 0.23825642353710183, 0.24356007328537174, 0.24890444656507235, 0.25427875861126387, 0.2597032963190769, 0.2651231938439231, 0.2706275077046861, 0.2761654744747085, 0.28177887124253254, 0.28737733027000945, 0.2930027866023337, 0.29867014144223647, 0.3043696299491574, 0.3100829728588004, 0.3158462802332045, 0.32158838827693165, 0.32741424839190053, 0.3332643177543731, 0.33916555648898356, 0.34505939053277845, 0.3509701961127466, 0.3569130608502176, 0.3628783834303776, 0.3687784387640879, 0.37479743560507706, 0.38080936188745457, 0.3868616850406158, 0.3929277567753537, 0.3990049835480637, 0.4050984381745537, 0.4112322149715866, 0.4173478127577917, 0.4235491900900881, 0.429682355206668, 0.4358317755151232, 0.4419066088628173, 0.4480957854720426, 0.45423505902947864, 0.46044546025282623, 0.4666588192619806, 0.4728824324055817, 0.47910018742339755, 0.4853230409909863, 0.4915452241987339, 0.4977691295353759, 0.503974252728695, 0.5102022040971583, 0.516463556566676, 0.5226837374661082, 0.5289032571938231, 0.5350863613789237, 0.5413060729482133, 0.5474979102150961, 0.553708746795983, 0.5599114063854433, 0.566120224485249, 0.5723028666001174, 0.5784738125994563, 0.5846375203694744, 0.5907902053775825, 0.596871379027375, 0.6030070199651105, 0.6091157796957372, 0.6152183945011533, 0.6213026362071528, 0.6274276983486154, 0.6334662269118632, 0.6394409624139579, 0.6454512115930482, 0.6514400429199199, 0.657404274784059, 0.6633484626192987, 0.6693061886324995, 0.6751974169873172, 0.6810654455158157, 0.6868942546993085, 0.6927144652491041, 0.6984999173580443, 0.7042655330716784, 0.7100015646257657, 0.7156972022979489, 0.7213727121894774, 0.7269930936606113, 0.7326051104973376, 0.7381815000411982, 0.7437415028627001, 0.7492421676956478, 0.7547212187361623, 0.7601460636948996, 0.765533452458301, 0.7708326747989954, 0.7761484384385434, 0.7813911648583891, 0.7866237103021271, 0.7918102078227033, 0.7969577213001178, 0.8020499453010594, 0.8070852521586482, 0.8120841710064767, 0.8170343015901491, 0.8219425056963319, 0.82679229882449, 0.8315644982520844, 0.8363164883118637, 0.8410151746868398, 0.845719645579675, 0.8503024677619933, 0.8547888116208558, 0.859272665313015, 0.8637000223639035, 0.8681248473329789, 0.8724301480772635, 0.8766525076347909, 0.8808488739235347, 0.8849857803469959, 0.8891070890999875, 0.8931168142299069, 0.8969725715721685, 0.9008739937566331, 0.9047082649848136, 0.9084725788525061, 0.9121718537748864, 0.9157778912434965, 0.919343117809601, 0.9228376882600968, 0.9262737448626158, 0.9296245295854964, 0.9329416397309638, 0.9361452880167027, 0.9392790249066095, 0.942319631949517, 0.945313845939538, 0.9482841185476734, 0.951124152724247, 0.9538921286675857, 0.9565646810933083, 0.9591884289936355, 0.9617608794164506, 0.9642285155604076, 0.9666200805241495, 0.968885042386589, 0.971128316986176, 0.9733202090574594, 0.9753970011956963, 0.9773936499473582, 0.9793071091665784, 0.9811421255422169, 0.9828927587183842, 0.9845638190294987, 0.9861519115809396, 0.9876118834238576, 0.989038459627738, 0.9903982341060316, 0.991648917335924, 0.9928139819491277, 0.9938459837579393, 0.9948451107636516, 0.9957950642174335, 0.9966114473930959, 0.9973414030910297, 0.9979747531840051, 0.9985324094522319, 0.9989874871449431, 0.9993715700975077, 0.9996669020636518, 0.9998834269250076, 1.0, 0.9999886022298405, 0.9999336985400382, 0.9997881825722319, 0.9995672152869975, 0.9992393102143428, 0.9987974493635015, 0.998294545122695, 0.9977012734610966, 0.9970725814132283, 0.9962924552305907, 0.9953934835394056, 0.9944441596205185, 0.993406115623162, 0.9923590272476255, 0.9911339392077352, 0.9897977358768114, 0.9884081016412146, 0.9869323552543523, 0.9852859539990166, 0.9836485958884185, 0.981942788847942, 0.9801217653707954, 0.9782127358212714, 0.9762659547898479, 0.9741762710783534, 0.9719682158526273, 0.969715924432193, 0.9673784521319716, 0.9649712430047137, 0.9624631341560959, 0.9598723206492877, 0.9571992594013292, 0.9544444388031321, 0.9516034073888576, 0.9486872840040869, 0.945700710402461, 0.9426231945853838, 0.9394671632175658, 0.9362282596045924, 0.9329177003300733, 0.9294532417616705, 0.9259994629336443, 0.9224660280913545, 0.9189015748829293, 0.9152070552975589, 0.9114346578412739, 0.9075958510453824, 0.9036856693535505, 0.8997796388141518, 0.8957201921160858, 0.8915045330369809, 0.8873286032645374, 0.8830841498928227, 0.8787849103335926, 0.8744057548499592, 0.8699875128871348, 0.8654785076979121, 0.8609093063282645, 0.8562659807797313, 0.8515812564356747, 0.8467714435433403, 0.841980429418227, 0.8371300707501064, 0.8322668658133093, 0.8272973972875365, 0.8222985983500901, 0.8172241688839187, 0.8121018333120893, 0.8069227545814099, 0.8017092096744213, 0.7964506119765101, 0.7911482409876365, 0.7857835124513126, 0.7804000212360487, 0.7749755888990204, 0.7695614318849635, 0.7640533606656352, 0.7584296457317612, 0.7528657911888936, 0.7472659636291279, 0.7416071686373321, 0.735944072887242, 0.7302863483328371, 0.7245566732072597, 0.7188010308103507, 0.7129936344031206, 0.7071941641632213, 0.7014215405763106, 0.6955718280383529, 0.6897055392347778, 0.6838314377263891, 0.6779350040478881, 0.6720264155410309, 0.666106995820134, 0.6601780972285509, 0.6542063039765882, 0.6482670056531368, 0.6423453321361012, 0.6363901567681189, 0.6304325735402926, 0.624474070128806, 0.6185161437887552, 0.6125031379839971, 0.6065581158875885, 0.6006149974355378, 0.5946683073366847, 0.5887358263664838, 0.5828404374406935, 0.5769206129692095, 0.5710134618845457, 0.5651006571900307, 0.559226020608758, 0.5533799975912436, 0.5475378431162309, 0.5417159000468784, 0.5358933192421714, 0.5301191675358954, 0.524363511634153, 0.5186385747442385, 0.5129400955674981, 0.5072622403173052, 0.501622448081389, 0.4960358188833168, 0.4904563653691647, 0.48491207607280923, 0.4793346836898563, 0.47387347230035654, 0.46847975438359785, 0.4630866692013385, 0.4577341830448563, 0.45243117458761745, 0.44716317341364303, 0.4419353734312318, 0.436759597058303, 0.4316311932724043, 0.4265961394610431, 0.4215605213758716, 0.4165162931943317, 0.41159637299107094, 0.4067281002036701, 0.40191777328588957, 0.397156098576986, 0.3924253279057117, 0.3877794496080707, 0.38319017377940423, 0.37869107103483307, 0.37421463857001547, 0.36983750510303826, 0.3654812258722038, 0.3611906944479324, 0.35691172304938584, 0.3527610834728253, 0.3485951055276489, 0.34458386916633793, 0.34063424102149625, 0.336772580045354, 0.332947417979825, 0.3292490558093513, 0.32555161371159896, 0.32192650922716765, 0.31837904463994615, 0.3148989757273016, 0.3114229093774324, 0.3080990881448738, 0.304845479947461, 0.3016753218803936, 0.29856292003539536, 0.29556587455471245, 0.29259482774208384, 0.28970017331601033, 0.2868372153526668, 0.2841011132987904, 0.28140667931414753, 0.278822987982488, 0.2763121463368736, 0.27386721749760334, 0.27150449034443164, 0.2692826061974855, 0.26705921576337993, 0.2649139369081857, 0.2627842904518457, 0.2608020500022917, 0.25895303726057356, 0.257110560400861, 0.2553452309559677, 0.25360190323259535, 0.25199637274144054, 0.25047593273986485, 0.249014117299574, 0.24762551695282475, 0.24628998557043807, 0.24504949433427062, 0.24393982893375843, 0.24283392362298095, 0.2418020266423542, 0.24083337433824056, 0.23994829120947336, 0.23905716658602763, 0.23832310149661198, 0.23765424676015673, 0.2370479842007812, 0.23650937535031782, 0.23606748281699588, 0.2356532384895466, 0.23530440936301916, 0.23499537297208256, 0.2347781756686932, 0.23465241783960544, 0.2345540184359672, 0.23451752934510584, 0.2344549592782412, 0.23455025462430287, 0.23477655456021745, 0.23496967214244144, 0.23522025662023743, 0.23550228116247632, 0.23586741061544328, 0.23630742927768175, 0.23677377030137642, 0.23729184681012688, 0.23787532059988328, 0.23849122500823156, 0.2390788842683292, 0.23980073465866752, 0.2405642797055854, 0.24133147696288645, 0.24218076253957455, 0.24312679489030511, 0.2440420728734235, 0.24499637475505942, 0.2459510992384927, 0.24698418006802741, 0.2480253247588306, 0.24912631281235295, 0.2502566351728523, 0.2514451510834967, 0.2526274127775168, 0.2538251733529108, 0.2550634759780461, 0.25632622719383935, 0.2575847750066941, 0.25889591334218365, 0.26025080439754333, 0.26159543844387595, 0.2629580002089338, 0.26432710445397645, 0.26572243710272564, 0.26718794327363093, 0.26860068561354794, 0.2700268617775286, 0.27140743977782705, 0.27286214891805394, 0.2743141588276878, 0.27577804779475734, 0.2772437041687146, 0.27871981900223347, 0.2801839826548307, 0.2816441786803491, 0.2831043109385336, 0.2845600582871188, 0.2859876913094581, 0.2874334112138024, 0.2889017145930549, 0.2903227199323222, 0.2917334376591996, 0.2930926319630366, 0.2944834099894899, 0.2958448914448441, 0.29720241098025885, 0.2985401647011642, 0.2999093195513092, 0.3011978455455468, 0.30243905560106643, 0.3036895798870371, 0.3049504209391187, 0.30614638734816807, 0.30731743202955203, 0.30842481438102487, 0.30954639354836955, 0.31066405483507126, 0.31171864052917925, 0.3127414599084514, 0.3137138829091331, 0.3146717061059539, 0.3155583996037842, 0.31644696199194966, 0.3172952734911564, 0.31819709819896436, 0.3189509182511355, 0.3195608414272773, 0.3202526407847285, 0.32089855273601053, 0.3214807359542615, 0.32203571086426164, 0.322607025114601, 0.32305689734953413, 0.32346133520897175, 0.3238144170400586, 0.3241258064602276, 0.3243589395491935, 0.3245764545390441, 0.3247423400257477, 0.324885952156527, 0.32494341144338623, 0.32493213593584, 0.32488843748915724, 0.324791103582609, 0.32459245538271975, 0.32439246965144525, 0.32413489383846195, 0.3238197206490928, 0.32344692079652515, 0.3230611836564942, 0.3225673243317935, 0.32202812096930533, 0.32142200604662896, 0.32076035240511647, 0.3200253437810315, 0.3192536077074881, 0.3184217704240639, 0.3175349903613146, 0.3165902322029106, 0.3156172734924553, 0.3145526781208679, 0.31345160687871504, 0.3122715802801241, 0.3110359682652277, 0.30970724521768994, 0.3083645105556583, 0.30697600115306034, 0.3055155526942774, 0.3039981438488733, 0.3024587765363892, 0.30082370742936515, 0.29919152467095733, 0.29744071237339187, 0.29563897189920196, 0.29383571853688395, 0.2919250828147579, 0.28993098677337353, 0.2879270548144265, 0.285871919476668, 0.2838552400778781, 0.28168703574351167, 0.27950328576973227, 0.27724027629597137, 0.27493313532681185, 0.2725766542569248, 0.2701813236103346, 0.2677661835360895, 0.26527862182499495, 0.26274837856183836, 0.2601682511283093, 0.2575544653424405, 0.2549583294375988, 0.25225364192006927, 0.24951165332939998, 0.24678237641812126, 0.2439605456727866, 0.24109305819638982, 0.23820658293874183, 0.23528680989190934, 0.2324089092493461, 0.22941504832940568, 0.22640414177565432, 0.22335533522192216, 0.22028081655113546, 0.2172456873332497, 0.21411315376661863, 0.2109926656911362, 0.2078158300072211, 0.20462131942578393, 0.2013920820168196, 0.19816561324291554, 0.1950039962750293, 0.1917337373751469, 0.18845282314572467, 0.18516416129643473, 0.18186304368386685, 0.1786500501957368, 0.1753198887879363, 0.17198810830352326, 0.16861021944451413, 0.16528177789572382, 0.1620051491655096, 0.15866516182591991, 0.1553276520165455, 0.15204810692241125, 0.14871118785522447, 0.1453676719357957, 0.1420499494543783, 0.13874120060129827, 0.1354623590429388, 0.13217228526324432, 0.12894541288445444, 0.12567716691319428, 0.12242752567262556, 0.11916007404227225, 0.115955054720021, 0.11289371027938966, 0.10971324216028949, 0.10656207689084161, 0.10339846787537119, 0.10031290540076836, 0.09729845195056631, 0.09426649250589138, 0.09126827311475452, 0.0882849014497692, 0.08535972721720993, 0.08253996753413385, 0.07967900741946705, 0.07686053038449327, 0.074053083696718, 0.07132631427511145, 0.06862315251670048, 0.06598722169632662, 0.06339637713048395, 0.06089689851969284, 0.05839519530249327, 0.0559109013866105, 0.05351915772849102, 0.05118000088394856, 0.04893468140562841, 0.046700110894335956, 0.044532220040096104, 0.04241626559835924, 0.040362194642424756, 0.03836612057748031, 0.03643971398593169, 0.0345632981110011, 0.03276974280903317, 0.031042573844801826, 0.029388037497088397, 0.027796818187523588, 0.026293422599314973, 0.024842025172252973, 0.02346434820888974, 0.022129071970052917, 0.020905884523704565, 0.01981720469831237, 0.01873742635785332, 0.01773827286589434, 0.016773189526617223, 0.015943273108454125, 0.015188410820958231, 0.014520260695009283, 0.013933991753122144, 0.013435621238064714, 0.0130155817194024, 0.012740357711025111, 0.012483991005661806, 0.01231786043032017, 0.012197558962141452, 0.012218567221619398, 0.012266223842819668, 0.012473397278902008, 0.012767325236296687, 0.013181494668379786, 0.013648284696527744, 0.014234232979855946, 0.014881854914483912, 0.015624081849572112, 0.016401604332589068, 0.01734158008609684, 0.01839365957869638, 0.01951632947084859, 0.020733788183872594, 0.022083767594834332, 0.023487397790124497, 0.024981663057061475, 0.026582427606857834, 0.028280877422614002, 0.03006464023776674, 0.0319601764036302, 0.033883219412027425, 0.035981841058046554, 0.038238429531613626, 0.04051616802042585, 0.04289195756089142, 0.045303537818085014, 0.047882877451381416, 0.050531471145715205, 0.05330246443183002, 0.0561666768342328, 0.05914928900490956, 0.062197679059668574, 0.06533391379345291, 0.06857369331741378, 0.07190798993553194, 0.07530180560601936, 0.0788288664568069, 0.08246510752956555, 0.0861734475703907, 0.08997428920715031, 0.09385730386003477, 0.09784318919917512, 0.10192466713731509, 0.10609070734322497, 0.1103466721040391, 0.11467207170234636, 0.11910853394814074, 0.12361197227283875, 0.12822409400696289, 0.13292075874001938, 0.13774120960467193, 0.1426002981232824, 0.14752699590667603, 0.15255726195548538, 0.15766947252080155, 0.1628527597653461, 0.16812730320816663, 0.1734530171089509, 0.1788870930246563, 0.1843962214832145, 0.19001688495383923, 0.19566895233541742, 0.2013657696096172, 0.20716948662883786, 0.21304355514989923, 0.21903911414483668, 0.22504408812345478, 0.23111906363897497, 0.23726245238135465, 0.2434726844142918, 0.24971092575079326, 0.25605490712734436, 0.2624664677176756, 0.26892852913469495, 0.2754486533290869, 0.2819882162804846, 0.2886251254540994, 0.2952716606491751, 0.3020165595227935, 0.30880869853002263, 0.3156919408830215, 0.32257019789486724, 0.32943568120329497, 0.33641374922353806, 0.3434323645873562, 0.35048054272671497, 0.35757829999561475, 0.3647251115714527, 0.3718933724065358, 0.37909652750705336, 0.3863157673322636, 0.3935866292950147, 0.40088952963917973, 0.40821779195466873, 0.4155729146554086, 0.422928540246227, 0.43033597578897625, 0.43778165428118226, 0.4452271787625235, 0.45269166897556506, 0.4601983401536429, 0.46769268415544746, 0.47516513276387273, 0.4826930635140184, 0.49023050711764854, 0.497741095585184, 0.5052972160455037, 0.5129008339164063, 0.5204554580844802, 0.5280125750191399, 0.5355653932323268, 0.543122666153417, 0.5506518519053025, 0.5582040339544713, 0.5657480589606035, 0.5732227188491501, 0.580753267324046, 0.58827005279272, 0.5957666539421672, 0.6032448012300708, 0.6106783493098882, 0.618118800410637, 0.6255154888249059, 0.6329094588823981, 0.6402759040874203, 0.6476881965767409, 0.6549865395875368, 0.6622503394839484, 0.6694934947278336, 0.6767052650372211, 0.6838316277157125, 0.6909817564536236, 0.6980921476124878, 0.7051614596678211, 0.7121883222783928, 0.7192011648944412, 0.7261351561749009, 0.7329446062132079, 0.7397969499922947, 0.7465964809338042, 0.7533993638436601, 0.7600829933127021, 0.7666765836943117, 0.7732578025822994, 0.7797809814528507, 0.7861951526128073, 0.7926047361656793, 0.7989844585680346, 0.8052594369731846, 0.811469868989407, 0.8176194514838642, 0.8236963375054357, 0.8297424070728632, 0.835677073060566, 0.8415431166093187, 0.8473464025056989, 0.8530695367109153, 0.8586974785664576, 0.8642762892527215, 0.8697780685609752, 0.8751518919195248, 0.8805022634963073, 0.8858388251331688, 0.8910128611523092, 0.8961059006570092, 0.9010644116820087, 0.9059980907772562, 0.9108116777318014, 0.9155731131916258, 0.9202434237484419, 0.9248370135722633, 0.9293216354902277, 0.9337118752407657, 0.9380123150977214, 0.9422193134765569, 0.9463818968135317, 0.9503936922656009, 0.9542556481277814