0.029792775246273592, 0.02941696681379627, 0.029098611607828895, 0.02877395773886545, 0.028553958687929256, 0.028334522101252792, 0.028179083054274846, 0.028045357965513964, 0.02794021677171762, 0.027839069053865618, 0.027723885601554817, 0.027651714926893434, 0.027588083527726397, 0.027586017688953066, 0.02752971309999273, 0.02740364461304733, 0.027374900260300622, 0.027349590726953567, 0.027345560000469667, 0.02732590634420162, 0.027316242995176557, 0.027307653288249155, 0.02730580357920012, 0.027330200667385413, 0.02734098645101627, 0.02730421435152311, 0.027341586778775195, 0.02738619265133564, 0.027485810152315403, 0.02754193121388249, 0.02755817892774705, 0.027646979707014876, 0.027746628632526537, 0.027888783067285604, 0.028009071816324303, 0.02808326020378724, 0.028242473907662533, 0.02841465949301042, 0.028662247389828643, 0.02885563558236221, 0.028965987755036785, 0.02921123086029966, 0.029470684561050578, 0.029755736025130403, 0.03004567783026177, 0.030393041331729535, 0.030714690471017846, 0.0310580308560324, 0.0314424213252028, 0.03182779328122275, 0.03213754609324415, 0.032583231237262825, 0.03304747726332967, 0.03356782316281189, 0.034067460069322, 0.0346138223309534, 0.03515763639322757, 0.035727000079943755, 0.03626074430646021, 0.036889662084190956, 0.037500454950658, 0.038180902301982095, 0.038883285644499714, 0.039681665004970196, 0.04042149797285091, 0.04109062641435585, 0.04190059039751573, 0.04273401085838986, 0.043681050026940234, 0.044552992132037866, 0.0453669476315427, 0.046312586154537934, 0.047284534246658454, 0.04830993006147467, 0.04933358296297658, 0.05031714949504476, 0.05141028821807805, 0.05253045186424178, 0.05372978706704136, 0.05490039479084461, 0.05603636225067587, 0.0572810330619156, 0.05855522917000377, 0.05989783728738668, 0.06122884246919336, 0.0625573887775447, 0.06396157082590102, 0.06539853843887224, 0.06690841249260338, 0.06840786726402037, 0.06993537140471207, 0.07150978650780788, 0.07312095729342377, 0.07471216528765455, 0.07640493452012702, 0.07816429335869372, 0.07992259749747206, 0.08171856328318673, 0.08346046555622151, 0.08534449703337908, 0.0872708571967889, 0.08922195828436291, 0.09120913014811896, 0.09328871404841907, 0.0953432975959567, 0.09739681975254569, 0.09953955807349822, 0.10172150570143856, 0.10392558386046978, 0.10618951253376992, 0.10854993473840094, 0.1108860952843128, 0.11326584003389856, 0.11559406729560362, 0.11807276380686668, 0.12058511836379478, 0.12314117065626357, 0.12573636049494083, 0.12834056956228307, 0.13101957972531048, 0.13373313293790684, 0.13649116685983229, 0.13928901663932727, 0.1421987872195021, 0.1450685545220081, 0.14792779801528558, 0.15089432282533685, 0.15390212887628343, 0.1569031224941578, 0.1599999854118802, 0.16317665731406863, 0.16634650207480745, 0.16955824181590692, 0.1728454100574187, 0.17613639104094117, 0.1793845488704597, 0.1827728439998183, 0.18619884668778172, 0.18970229283273649, 0.19319943718158614, 0.1967312199246497, 0.20030980258527023, 0.20392797530493698, 0.2075182236823001, 0.21122324570460838, 0.21500413225021023, 0.2187740420414378, 0.22258148862028465, 0.22635746352673444, 0.23024773329827686, 0.23425985443411745, 0.23820436257380817, 0.2421867715387002, 0.24614494077295498, 0.25020869578963667, 0.2542944711357216, 0.258423800165444, 0.2625842983896577, 0.2668137205767276, 0.27103093278511153, 0.2752235042076584, 0.2795119477297472, 0.2838281149091175, 0.2882404355602333, 0.2926024662384495, 0.29691319230495744, 0.3013456845317533, 0.30580214483382084, 0.31033342285924836, 0.3148303362463163, 0.31933101708462663, 0.3238811795611395, 0.3284539774351911, 0.33299896653336575, 0.33762107160888016, 0.34235282399093914, 0.34699797476190813, 0.35166495371688145, 0.3563334728044551, 0.3610426930086198, 0.3657528402404404, 0.3704970672761971, 0.37525532078855395, 0.37993021271484484, 0.38472598632380467, 0.3895729276890907, 0.39437449798665203, 0.39918400391343745, 0.4040211631170354, 0.40884166174944425, 0.41369079368896805, 0.4185208918240498, 0.42335683362352217, 0.4281125881068305, 0.4329672164139664, 0.43783238205818537, 0.4426795691109378, 0.4475237177631888, 0.45231140485903387, 0.4571536890111942, 0.46209123105994604, 0.4669028078053886, 0.47162868725552476, 0.4764414231552929, 0.4812427109365618, 0.4860317392916219, 0.49080763925267673, 0.4956162694016087, 0.5003571891296633, 0.5050847091349704, 0.509800331550876, 0.5144964315934737, 0.5191151359652776, 0.5237824889233628, 0.5284262207706311, 0.5330205831831843, 0.5376174771450903, 0.5422713152701689, 0.5468009776787255, 0.5513058485344016, 0.5557053724264358, 0.5601658342022517, 0.5646274262430079, 0.5690146704446455, 0.5733681353562303, 0.5776924230001981, 0.5819738514143267, 0.5862487856224496, 0.5904506505108282, 0.5946144608505921, 0.5987138373439997, 0.6028001360066818, 0.6068366676574908, 0.6108346463378782, 0.6147859434883329, 0.6186645477960666, 0.6225221461279646, 0.6262858001223648, 0.6300447041710328, 0.633747750733979, 0.6374659194528292, 0.6410461836625782, 0.6445724934355935, 0.6480434721396802, 0.6514577773555381, 0.6548184849981612, 0.6581149912393615, 0.6613497724740954, 0.6645246832269172, 0.6676367733117177, 0.6706263899394823, 0.6736167246292455, 0.6764994969199907, 0.6793549021382677, 0.682137333534538, 0.6848902645930594, 0.6875199957491198, 0.6901100535461798, 0.6925911559501194, 0.6950004462118099, 0.6973499411150059, 0.6996105652810899, 0.7017734291745599, 0.7038871441150167, 0.7059229757792191, 0.7078274590209368, 0.7097116857619501, 0.71157256517491, 0.7132823007884932, 0.7149113957261223, 0.7164838218700638, 0.7179458960793911, 0.7192955104739073, 0.7205969868367911, 0.7218131273876521, 0.7228790224940271, 0.7239308859526491, 0.7249695959227876, 0.7258304069076358, 0.7266049114778486, 0.7272968114153181, 0.7278961496447726, 0.7283271290261268, 0.7287601510276203, 0.7290996176405006, 0.7293442438716878, 0.7294972815246068, 0.7295395753067091, 0.7295085332034723, 0.7293834975980213, 0.7291529883258923, 0.7288420619192904, 0.7284399797440937, 0.7279407708635531, 0.7273481167844761, 0.7266578159964461, 0.7258793697430389, 0.7250370005790189, 0.7240687446381865, 0.7230093830049642, 0.7218267295422559, 0.7205891825857796, 0.719308459512591, 0.7178792109378704, 0.7163605591648351, 0.7147261443304463, 0.7130319336954178, 0.7112644235496118, 0.7093866496297131, 0.7074197223416137, 0.7054092120107073, 0.7032590529382772, 0.7009749388095377, 0.6986594754867146, 0.6962557266701771, 0.693726265921957, 0.6911525261229399, 0.6884945854095711, 0.685744091880177, 0.682907196098388, 0.6800199059742972, 0.6770085417858746, 0.6739608405299775, 0.6707810923821764, 0.6675235872453773, 0.6640892965236737, 0.6606900648004368, 0.6572191150813395, 0.6536561047824244, 0.650014522626026, 0.6462854163329189, 0.6424918164884594, 0.6386404282655751, 0.6346952915413397, 0.6306784820294294, 0.6266584270763422, 0.6224933284109213, 0.6182317553913492, 0.6139427788286637, 0.6095891320572472, 0.6051456021624062, 0.6006692823782099, 0.5961375412284685, 0.5915362589291372, 0.5868755090914087, 0.5821055057682458, 0.5773364426572847, 0.5726042451570913, 0.5677086952626935, 0.562763962498122, 0.5577462032019189, 0.5527093391331704, 0.5475637236586575, 0.542441313150025, 0.5372709270372782, 0.5321202951376259, 0.5268514431645388, 0.5215513516957746, 0.5162057999564689, 0.5108247949584025, 0.5053248917676366, 0.4998877707436418, 0.4945052240217733, 0.48898666227112486, 0.4834413550726029, 0.4777887515240977, 0.47220429130985, 0.4666408117932354, 0.46099783375631076, 0.4553344623180601, 0.44958946554522244, 0.44389814915374076, 0.4382272955233168, 0.4324951351917776, 0.426750449703442, 0.420952583471346, 0.41519341599379894, 0.40948009022578585, 0.4036965421169621, 0.39791047625584797, 0.3920751741607208, 0.38629475601700075, 0.3806014369244152, 0.3748106557969305, 0.36902805016326984, 0.3631787773614835, 0.35742571054654787, 0.35171677987799993, 0.34597620364125775, 0.3402490940131707, 0.3345589435306596, 0.3288606919464883, 0.3231072849768472, 0.31745865126409695, 0.31182803849007656, 0.30624525048655626, 0.3006531922753967, 0.295095391166836, 0.2895548297030856, 0.28404349194181655, 0.2785014992720164, 0.27306091687039474, 0.2676886389884359, 0.2623058153693277, 0.2569358990179195, 0.2516301459509611, 0.24636238760443566, 0.24116351274112485, 0.23597295201027785, 0.2308282960802842, 0.22572771082928594, 0.22067418602153194, 0.2157128124760494, 0.21075155565860776, 0.20578062509299155, 0.20093452764776948, 0.19613979470544177, 0.19144459982626466, 0.18675081858016868, 0.1820522159021624, 0.17748334628253518, 0.17297076704753342, 0.16859920427604932, 0.16419280802722483, 0.15984116005209675, 0.15556657060134413, 0.15135751785494714, 0.14718106379995716, 0.14310939719849244, 0.1390990676098683, 0.13516036686897837, 0.13128903816791795, 0.12744361561706471, 0.1237151338784514, 0.12002653082732963, 0.11643801564688165, 0.11291780723649973, 0.10953143780642396, 0.10614324118819704, 0.10275428047218273, 0.09952660996692718, 0.09637072685803286, 0.09337824837261302, 0.09035733033444752, 0.08732677604926709, 0.08447618880076621, 0.08170010914464339, 0.07899633018099046, 0.07637170019442975, 0.07385985905068752, 0.07138359228990772, 0.06898654361254482, 0.06671263121331429, 0.06446863274293638, 0.06230933945664198, 0.06022815927385622, 0.058228190383685444, 0.05632514201438558, 0.05448445970036151, 0.052711649157075505, 0.05103420773445482, 0.04943611341060556, 0.047919943742086496, 0.04647912975553878, 0.045075836726555366, 0.04379670938748997, 0.04259293877720116, 0.04141034834798484, 0.04036381098274666, 0.039373086710095415, 0.038472556325285026, 0.03764328714214718, 0.036983339826472894, 0.03628445280737233, 0.03565797862040742, 0.035112278339251034, 0.03464121497079553, 0.034226340975451526, 0.033904056313816676, 0.0335840065301478, 0.03341152932085304, 0.03330458845970186, 0.03327900843373932, 0.033300248467649896, 0.03338104611980734, 0.03353319712887371, 0.03374909170360326, 0.034061651974890333, 0.03439862591212451, 0.03476680674864242, 0.035233457697003104, 0.03575941090581005, 0.03632038802080255, 0.03696519333924204, 0.037691507389016034, 0.038442553185346805, 0.03924856593281524, 0.040105474413831714, 0.04101832468745325, 0.04197223316851233, 0.042987769235026674, 0.044051618882515464, 0.04517140160961194, 0.04632728472378932, 0.04750650380844027, 0.048754382106000964, 0.05004366899959856, 0.05135858871784175, 0.05272903471854165, 0.05421105074238605, 0.05564496637186224, 0.057117771765062775, 0.05858964786582219, 0.06013964739776934, 0.06166407893551374, 0.0632827826880223, 0.06492693748449287, 0.06666868674883288, 0.06835159106662413, 0.0699733066949674, 0.07171863877626265, 0.0734821830507011, 0.07535508594131266, 0.07714049452248799, 0.07888192509894489, 0.08071429013223741, 0.08255970843135309, 0.08444469801134122, 0.08630891479316623, 0.08817659242966572, 0.09006172932290321, 0.09195414992118174, 0.09382607998769207, 0.09573201741238958, 0.09771248769744528, 0.09961083166398964, 0.10151223505196916, 0.10331982333937301, 0.1052338579670255, 0.10716508469958673, 0.10905973531305282, 0.11094622849125799, 0.11290083247474714, 0.11475757424270401, 0.11656737888511869, 0.11841232206083589, 0.12024394786381642, 0.12200823593544484, 0.12381572530135812, 0.1256028374138529, 0.12736867468481675, 0.1291123102346095, 0.13083864003056123, 0.13253425825573403, 0.13419485906391226, 0.1358411550951688, 0.13745999499281558, 0.13906356706777948, 0.14062291795318155, 0.14216724356696495, 0.1436643698858935, 0.14513050997521065, 0.14656594966298708, 0.14796643591247174, 0.14938959671163393, 0.1507131053049829, 0.15200332129152536, 0.15322513523043899, 0.15444864572431866, 0.15561084921253493, 0.1567574067060262, 0.15786145916435018, 0.1589252162518985, 0.1599417616341783, 0.1609241024476483, 0.16184978908329592, 0.16273025377669964, 0.1635925422944101, 0.16437689534637137, 0.16515496419662937, 0.16584196224270614, 0.16648376878608612, 0.1671494959752516, 0.16768897040422892, 0.16811558791971032, 0.16857409152863181, 0.16898201836626964, 0.16938415999084191, 0.1696836807805375, 0.1699469094355613, 0.1701451355273649, 0.17029327607206704, 0.17041698247450376, 0.17045973129903705, 0.17044923182080396, 0.1703910846863254, 0.17028131570163257, 0.17015314629027317, 0.16993476073093894, 0.16968321879860707, 0.1693607748064324, 0.16898782916599697, 0.16861222877369617, 0.16813109877396554, 0.1677006939704125, 0.1671091324196473, 0.1664823656700402, 0.16580068722429192, 0.16507362046638965, 0.16426827255841464, 0.16345247844333427, 0.16264628976608975, 0.1617253802561125, 0.1607590163026037, 0.15980687358711185, 0.15874138374517788, 0.15757349943872107, 0.15643031654717443, 0.15524076776984227, 0.15407253999892773, 0.15278315675029316, 0.15144249079599817, 0.1500724066115121, 0.14866102977812434, 0.1472731010912469, 0.1457723531100068, 0.14423543904653058, 0.14266250366424663, 0.1410538213342101, 0.13940978327506004, 0.1377308859302474, 0.13612589792702973, 0.1343654639287471, 0.1325782639728097, 0.1306970064695996, 0.1288648080812818, 0.12707551665394606, 0.1251746598347378, 0.12324968561420922, 0.12135661902545462, 0.11937792786662135, 0.1173361464705748, 0.11532487757495911, 0.1132927456310741, 0.1112641045680556, 0.10919025036434894, 0.10716425780327961, 0.10505031033105153, 0.10292550243849542, 0.10080502914819454, 0.09865850155215107, 0.09650401078723411, 0.09434233885435764, 0.09217436738020329, 0.09001422326019425, 0.08783497831005532, 0.08561968642591486, 0.0834409172422507, 0.08126004945713511, 0.0791063262992996, 0.0769221707863605, 0.0747901694561363, 0.07260902774115274, 0.07043711739320105, 0.06829440973167084, 0.06614153575080707, 0.06396260689831845, 0.061842567008864646, 0.05973582289880033, 0.05770084761068133, 0.055617882500318384, 0.053587994211101324, 0.05154382989009099, 0.04952451903235027, 0.04753534063587611, 0.04556794190286872, 0.043660712474593896, 0.04174633280343653, 0.03986396074862675, 0.03797358117862284, 0.03616322450179498, 0.03438992768232963, 0.03264580573135671, 0.030937492399052052, 0.029305873717625112, 0.027668440007994084, 0.0260689044011048, 0.024517697442139264, 0.02301077384237633, 0.021569805628034695, 0.020152499221886132, 0.018814997261949754, 0.01749310855613513, 0.016224252555504755, 0.014925995135944174, 0.013776462581294587, 0.012752651275980503, 0.011697707862383147, 0.01070142389618205, 0.009697527295081044, 0.008830006898505926, 0.008064209933256253, 0.007308446332421651, 0.0066160855016305755, 0.006008692327644246, 0.005443836213682767, 0.004968724409826738, 0.004537627898501921, 0.00417738201972832, 0.0038141619233480932, 0.0036072532400922893, 0.0035642763546656193, 0.003484550826702418, 0.003481751226354519, 0.003541738011946145, 0.00369610915386941, 0.003932502636863562, 0.004242271426386843, 0.0046312817853163294, 0.005028545480692349, 0.0055870227072311865, 0.006298659270656589, 0.007003016352450762, 0.00779111190032997, 0.00866045822027437, 0.00961771138237834, 0.010623305847071787, 0.011755412973108257, 0.012971262247338444, 0.014280353779728283, 0.01566471409283431, 0.01717773757148844, 0.018729786086863286, 0.020371464556559304, 0.022063396350200735, 0.02388961065679748, 0.02582545936802697, 0.02782472918799025, 0.02991372128805762, 0.03201072189474036, 0.03428993829624077, 0.036657591407566, 0.03910820420383781, 0.04164586746239135, 0.04430909955865128, 0.047017498279277835, 0.04981196050806456, 0.05270176267625908, 0.05568163298132527, 0.05871932454030276, 0.061883099807914975, 0.06521224128634262, 0.06854205377964451, 0.07196414950320995, 0.07544128473897285, 0.0790504925116446, 0.08267771734898667, 0.08647180329962421, 0.09034937349316713, 0.09429448208117393, 0.0983413562144282, 0.10254547344140033, 0.10674827870545607, 0.1110378205136836, 0.11537674622868897, 0.11984195375164682, 0.12435577568186128, 0.12898916376878272, 0.1337017628596847, 0.1385809132822688, 0.14343965359314978, 0.14831540296395118, 0.15334675237475312, 0.15845464013668206, 0.16359010516741232, 0.16885496011591855, 0.17427320488737016, 0.1796702889681411, 0.18514245967457085, 0.1906533302965438, 0.1962762090040471, 0.20193322792443774, 0.20769798127365727, 0.21352793282192967, 0.21942520741684837, 0.22538272158665296, 0.23136938105685811, 0.23745567154767475, 0.24360077028683105, 0.2498579266498775, 0.2561112076040361, 0.2624206643201926, 0.26879102568029983, 0.27521734003039605, 0.2816381942057722, 0.2881795516704475, 0.2947631904009607, 0.3014005197535536, 0.30808353031189806, 0.3148827418047588, 0.3216446604672223, 0.3283548162055614, 0.33521961867562006, 0.34212140269913166, 0.34914392285442886, 0.35610577067004656, 0.36311187457405764, 0.3701478680258227, 0.37721875889134543, 0.38425390862789677, 0.3913975135566834, 0.39860883533313396, 0.40579641758660473, 0.41291693810230395, 0.4201644904278592, 0.4274284207729236, 0.43473111596884595, 0.4420217452037882, 0.44929755449363484, 0.45661927581799266, 0.4639508521433227, 0.4713670137871713, 0.4787047669343686, 0.4859590406746418, 0.49332671423936536, 0.5006951123325456, 0.5080322801971137, 0.5154021749249138, 0.522774420863494, 0.5301322878898477, 0.5374831552824131, 0.5448446358012141, 0.5521748741102634, 0.5595255522363929, 0.5668297076328516, 0.5741219451862265, 0.5813886128642138, 0.5886526434557797, 0.5958675939238303, 0.603096944466561, 0.6103026015857351, 0.6174757224907319, 0.6246302964604666, 0.6317181018543105, 0.6388184367982654, 0.6458848130388021, 0.6529203666415573, 0.6599144741133173, 0.6668432068039345, 0.6737642165587906, 0.6806432213310833, 0.6874585212010992, 0.6942523574046273, 0.7009919022459511, 0.7076915149968387, 0.7143413219814021, 0.7210336713955057, 0.7275683660965346, 0.7340299099736652, 0.740469086222038, 0.7468545165376289, 0.7531099241937357, 0.7593921622070615, 0.7656772044768706, 0.7718241588876039, 0.777909772951434, 0.7839251320349733, 0.7898842136924301, 0.7957826957147638, 0.8016067149375691, 0.8073617873584836, 0.8129514761919037, 0.8185764557757098, 0.8241990285494837, 0.829657001219477, 0.8350396572781122, 0.8402565491484009, 0.845496054216338, 0.8506471209456867, 0.8557186084113539, 0.8607048049133653, 0.8656694915274145, 0.870475305098542, 0.8751143576873505, 0.87976266078171, 0.8843205394787562, 0.8888475001950373, 0.8932156175241706, 0.8975171845327528, 0.9017045482350315, 0.905802650693772, 0.9098015917165515, 0.9137189515107961, 0.9175316476589382, 0.9212636576582227, 0.9249003040196008, 0.9284218712222938, 0.9318680886024329, 0.9351895174179192, 0.9384416423900235, 0.941592888536047, 0.9446795691679268, 0.947623726549792, 0.9504259341045429, 0.9531757917307098, 0.9558226551727692, 0.9583166873013568, 0.9607634380671488, 0.9631259151326481, 0.9653577470894754, 0.9674850757940945, 0.969553215339524, 0.9714657883638226, 0.9732310506823876, 0.9749449846501232, 0.976553664838789, 0.9780440104377721, 0.9794440742632928, 0.9808114698703811, 0.9819909617513062, 0.9830691743795349, 0.9839375307811933, 0.9848257393677005, 0.9856100074259923, 0.9862816942069442, 0.9868466269312014, 0.9873068365241248, 0.98765975770547, 0.9878798668874254, 0.988026722224651, 0.988067964284415, 0.9881168604492537, 0.9879347284120155, 0.9875617742652815, 0.9871966750838647, 0.9867286218602164, 0.9861451324692766, 0.9854748518398079, 0.9846868058633103, 0.9838159590176628, 0.9828440552663587, 0.981846531882162, 0.9806657167415459, 0.9794096285953369, 0.9780380966600565, 0.9765739030776003, 0.9749456372852198, 0.9733059179312729, 0.9716318095972188, 0.9697937732471013, 0.9678654290892321, 0.9657639677537428, 0.9636671524347551, 0.9615107003369943, 0.959224469246176, 0.9568495402798417, 0.9544220191780375, 0.9518683314256075, 0.9491900753361772, 0.9464750598009832, 0.9436756965474125, 0.9407463948817331, 0.9377878167578766, 0.9348086925047931, 0.9316769233955454, 0.9284683708265158, 0.9251474720572008, 0.9217929548919623, 0.9183509494265375, 0.9148476884249553, 0.9112706960715214, 0.9076711153923733, 0.9039446782154089, 0.9001501072182623, 0.8962915072521637, 0.8923681859570666, 0.8882876698910176, 0.8842500241035623, 0.8802100803827276, 0.8760329922107871, 0.8717966864206054, 0.8675068348325008, 0.8631554093424454, 0.8586933540756411, 0.8542400773635451, 0.8497311855334184, 0.8451435850916238, 0.8405318365223176, 0.83588430882006, 0.8311686506801479, 0.8264056657568319, 0.8216101199420794, 0.8167556177355101, 0.8118344229938935, 0.8069008103542812, 0.8019268148089828, 0.7969228257028261, 0.7918717811733322, 0.7867768462142907, 0.7816581425015465, 0.7765067565002562, 0.7713183599471626, 0.7661068884356389, 0.7608435228622454, 0.7555795181040172, 0.7502887138930875, 0.7450064034126729, 0.739662722112282, 0.734347269252701, 0.7289587586436543, 0.723555539518835, 0.7181122166833813, 0.7126857143858206, 0.707266398856954, 0.7018120213705517, 0.6963188290056584, 0.6908501193490392, 0.6853724724165646, 0.6798682979360593, 0.6743794124728527, 0.6688277268459438, 0.6633360143492182, 0.6578383658318738, 0.6523674225284712, 0.6468597645101155, 0.6413680971685931, 0.6358628020587044, 0.6303625999884414, 0.6248643900846798, 0.6193787678727496, 0.6138959551373149, 0.6084296624275616, 0.602974232714065, 0.5974870971793876, 0.5920627754304771, 0.5866462605660361, 0.5812484492905229, 0.5758656614195826, 0.5705710090406778, 0.5652135948309618, 0.5598911875107655, 0.5545796580581065, 0.5492935998116195, 0.544023469875957, 0.538791747046129, 0.5335490654980317, 0.5283770936059262, 0.5232317371018029, 0.5181156200402104, 0.5130267598642407, 0.5079942900913458, 0.5029633034661344, 0.49796593335874645, 0.49294009534316136, 0.48802022979936055, 0.4831839351727819, 0.47832368093154437, 0.473501171379229, 0.4686995867346821, 0.46395694231319984, 0.45917717878379316, 0.4545227712958048, 0.449904626173855, 0.44539283223168713, 0.4408425649629992, 0.43626170060206193, 0.43180931398964617, 0.4273977650217812, 0.42310125652549085, 0.4187653824577591, 0.4144994464174825, 0.4102570965631274, 0.4060645434451197, 0.4019160444978692, 0.3978241604355237, 0.3937938157106579, 0.3898003480779307, 0.3858577990617761, 0.38195459468919124, 0.37811573679882526, 0.3743363096133541, 0.3705979053281398, 0.3669111319689975, 0.3632001288968971, 0.3596266942458531, 0.35605868988945905, 0.3525870179916915, 0.34916221591988106, 0.3457837550190039, 0.34245556202471766, 0.3391810060349094, 0.33595138787495205, 0.332772428894329, 0.32962115520925256, 0.3265476461808178, 0.3235654493195364, 0.32058792651180296, 0.31766380271508304, 0.3147608346607128, 0.311947300743223, 0.3092668978413617, 0.306545647280342, 0.3038804033611714, 0.30121495292879186, 0.2986667933956251, 0.2961871790208451, 0.29373868445170903, 0.29134189943708205, 0.2890169637448034, 0.2867200206773818, 0.28441352639708684, 0.28222751584065897, 0.2800888673713304, 0.27803557460722217, 0.2759867445663013, 0.2739462693875628, 0.27200071165774037, 0.27010118343976464, 0.26826798894250997, 0.2664573983566482, 0.264718210536583, 0.2629971195565568, 0.26132303543466023, 0.25971572924111097, 0.25813099535414935, 0.2565178024872675, 0.25503384842635396, 0.2535901542899634, 0.2522610813999187, 0.2508878446352932, 0.24947936803718185, 0.24820256515244474, 0.24696316723843456, 0.24581793069028443, 0.24464531122109026, 0.24352698638627376, 0.24243100499315762, 0.2413738034037132, 0.2403500405704856, 0.23936811247151957, 0.23839707452392173, 0.23748892039338007, 0.23661342321438855, 0.23576556997487003, 0.2349540436642696, 0.23411452682544734, 0.2333707257196929, 0.23265283830857666, 0.23198844087378326, 0.2313181988752112, 0.23071701346270945, 0.23009411519290524, 0.22949898928324683, 0.22897447925651418, 0.22842633814694557, 0.22791130444748792, 0.22741563893917924, 0.22694501209434173, 0.2264382513035289, 0.22602162580157492, 0.22558073280267996, 0.22520511579187694, 0.22484401803541154, 0.22451029589842073, 0.22417561405660033, 0.22389897603848818, 0.22358656223515683, 0.22328964255278314, 0.2230291750287521, 0.222757583297624, 0.22245309086875284, 0.2222140856078567, 0.22198420203800634, 0.2218081238617401, 0.22158883927307738, 0.221290107450351, 0.22110051731999844, 0.2209136210738601, 0.2207554876555858, 0.22056986139951235, 0.22036119301350401, 0.2201848263568342, 0.22000902052837537, 0.21984504667696428, 0.2196675773270816, 0.21958643505708883, 0.21939584619573133, 0.21920928689012234, 0.21899026937602734, 0.21881208625035822, 0.21862909531062535, 0.21844664344571188, 0.21826043862346248, 0.21802730924919156, 0.21783665349835202, 0.21765223369109662, 0.21744260712853855, 0.21722468530283795, 0.21700088299041315, 0.2167644758248442, 0.21649064141529142, 0.216237917610447, 0.215972941464012, 0.21573782100449201, 0.2154421036807441, 0.21517507235545696, 0.2148521226979816, 0.21451928940477397, 0.2141551793110494, 0.2138024538009851, 0.21337471813528833, 0.21300195976021083, 0.21261103439561763, 0.2122282430241787, 0.21179758808291307, 0.21140128091241228, 0.21093021736610063, 0.21044460499629306, 0.2099291239576272, 0.2094142181137065, 0.20883523454164163, 0.20829122914329573, 0.2076928752538382, 0.20711169154472833, 0.20650792166502938, 0.20593006676574702, 0.20527575931822795, 0.2045788324198985, 0.20388877527441332, 0.20317769921092727, 0.20243242478768503, 0.20168090082725734, 0.2009733210244914, 0.20016987431728764, 0.1993484145880844, 0.19845145219134144, 0.19759980157064774, 0.19679730896224173, 0.19589180072919385, 0.1949681204507828, 0.19400681725728702, 0.193047922225868, 0.19202917343655454, 0.1910343929093561, 0.19001682988244623, 0.18905569836997319, 0.1879834013373027, 0.18687161936125346, 0.18576659765459227, 0.1846420973265694, 0.18345858541339274, 0.18229997096067418, 0.18109620497624251, 0.17989739291941337, 0.1786762369314635, 0.1775122216397714, 0.17623800290805244, 0.1749371928080847, 0.1736313899704394, 0.17230839348175356, 0.17095800920122795, 0.16960207738028307, 0.16822861570234088, 0.1668378605644012, 0.1654300707530769, 0.1639952928838677, 0.16255558572350085, 0.16110501256781903, 0.15963155528003634, 0.15814255029561813, 0.1566486105715387, 0.15512836753517553, 0.1535533921619025, 0.15201105315519514, 0.1504532950451847, 0.14892320764099576, 0.14733131508999, 0.14573278673691115, 0.144118588027451, 0.14249422201635578, 0.14083514248255496, 0.13919452611398683, 0.1375901193001175, 0.13592302586405386, 0.1342491378617356, 0.13255549145714796, 0.13087029981636453, 0.12913296242180133, 0.12744026091939367, 0.12573904029277422, 0.1240257317065692, 0.1223104474071964, 0.12065454408890239, 0.1189189074083286, 0.1171820739290369, 0.11540184095461369, 0.11366859138671168, 0.11196024220672916, 0.11021838260409007, 0.10847649997716959, 0.10670722808286436, 0.1049700573097296, 0.10324135790143411, 0.10150316180385219, 0.09976651008915752, 0.09805830091526947, 0.09632316157245863, 0.09452407929619516, 0.09280751749094712, 0.09109260980446447, 0.08936861699082327, 0.08766131137309514, 0.08602496532054955, 0.08431749376897468, 0.08261927551859821, 0.08091011515428474, 0.07923382788080817, 0.07759430465410914, 0.07593298541086743, 0.0742832154106381, 0.07265842445435447, 0.07103093323635451, 0.06933036985806981, 0.0677403701348891, 0.0661591996219168, 0.0646433879715674, 0.06307572566582617, 0.06153445581604662, 0.0599950664067512, 0.05847174980569934, 0.05699986404620019, 0.05550509309716436, 0.05404530926030442, 0.052586350258747014, 0.05114730824931968, 0.04972378377291592, 0.04832513902990598, 0.046898027536298785, 0.045545186136155415, 0.044209750792643034, 0.0429171697458995, 0.04161516737331727, 0.04033075205749449, 0.03907045993222047, 0.03783115345323791, 0.03674474267372394, 0.03553179745199266, 0.0342605258567501, 0.03311671069973584, 0.03199602269543262, 0.03093083306558525, 0.02985297538331239, 0.028895732421556013, 0.02785702676164458, 0.026849240093871844, 0.025855573727809247, 0.024909624651209904, 0.024048900095689368, 0.023151902671154665, 0.02228585709397334, 0.021485253680583963, 0.02067500193482762, 0.01983626578053529, 0.019095908101320967, 0.018382571876101792, 0.01773728692727004, 0.017073135446353634, 0.016475208286501442, 0.015865617078257066, 0.015287456347004522, 0.014794440908052703, 0.01427125421650436, 0.013845944458997032, 0.0133811199098743, 0.012952330457480607, 0.012561557826030146, 0.012201785089382246, 0.01184071095010825, 0.011552353233106435, 0.011294734860137927, 0.011086741342082838, 0.010887883453895374, 0.010755674574553398, 0.010615339583874119, 0.010508238662996003, 0.01045153671017445, 0.010407616738853973, 0.010411581721126034, 0.01043199107658904, 0.010485833521348414, 0.010642910626586049, 0.010753700859527641, 0.010868759177820403, 0.011055687285275879, 0.01127577138232686, 0.011635395837967128, 0.011907354858415282, 0.012273156277292332, 0.01261361370531149, 0.012993494003433017, 0.013332606916714567, 0.013797726232119382, 0.014303328274624582, 0.014830580465691164, 0.015389707640032823, 0.016017065962041114, 0.016634782932819565, 0.017297638575934516, 0.01798035868355652, 0.018696420321015008, 0.0194527317258351, 0.02023339994455188, 0.02110669836022969, 0.021944849334485872, 0.022818442975238603, 0.023690197109087548, 0.024637177914261923, 0.025720851477079774, 0.026717196162516003, 0.027750498355690507, 0.028767123315669507, 0.029878092166773056, 0.03109640884010878, 0.03226016994793488, 0.033466352400249214, 0.034698604134649785, 0.0359648589419234, 0.03719280542840548, 0.03853416681821452, 0.039969498525023114, 0.04135903771903818, 0.04278068562947031, 0.04424862689521965, 0.04573139409019991, 0.04718746373746955, 0.048740763052511966, 0.050321777105748644, 0.051952580720868946, 0.053586671717782065, 0.055283709565998755, 0.05697210817495949, 0.05869154241590317, 0.060511827850784704, 0.06228343630494995, 0.06407151796523831, 0.0659125526601376, 0.06778506754551805, 0.06969002228669445, 0.07162386469387581, 0.07353969069994573, 0.07553972510436459, 0.07756660496470535, 0.07962921168333587, 0.0817089891211936, 0.08391579673077618, 0.0860382507332261, 0.08819389849480669, 0.09030883841251824, 0.09253778429411214, 0.09483752776664085, 0.09711484961894395, 0.09942164517241084, 0.10178829054304257, 0.10414922341898214, 0.10648348749500741, 0.10891185357569302, 0.11136649739844293, 0.11383144535756301, 0.11634098803692239, 0.11894051794645721, 0.1214934661938083, 0.1240760793668178, 0.12666314888890787, 0.12930720650543803, 0.13202390699482153, 0.13471684615580254, 0.13743958214399032, 0.14012740245532254, 0.14291674223267678, 0.14570931352719863, 0.1485520054599552, 0.1514191194932995, 0.15434027518630036, 0.1572536382613931, 0.16022331544122614, 0.16318715824334648, 0.16617975884249256, 0.1691453448806615, 0.17220184420659854, 0.17533163209183936, 0.17843241929968504, 0.1815615096772645, 0.18468365322816918, 0.18787330732371413, 0.19115755812189217, 0.19439046925623937, 0.1976534346345959, 0.2008890136736895, 0.20421806208339732, 0.2076342256396905, 0.21100711344041978, 0.214409480508892, 0.2178102648445856, 0.22127442764185593, 0.22478439171818107, 0.22829975086216822, 0.23184298505595785, 0.23534377991050706, 0.23895121936576466, 0.24257344374935838, 0.24622957321460076, 0.2499096466366635, 0.2536930334386829, 0.2574122449937257, 0.26113902632112157, 0.2649196459053812, 0.26872784952574763, 0.27248896804057166, 0.2763614296467401, 0.280312517941999, 0.28422461073268274, 0.2881638319060144, 0.2921695733644281, 0.2961578237455992, 0.30009915900514, 0.3041548200963701, 0.3082345460749039, 0.3123897783230792, 0.3165119473251805, 0.3206061946895422, 0.3247903810084632, 0.32899856535750294, 0.33319587336043116, 0.3374570757498944, 0.34175688828161865, 0.34606148640231393, 0.35039018624427487, 0.35476502343881094, 0.35913943636852175, 0.363542308674906, 0.3679672418001948, 0.37241750243784233, 0.37685632118012424, 0.3813611831803, 0.3859266447169052, 0.3904719385632057, 0.39504202514144987, 0.39961610848895246, 0.4042373813910339, 0.4088330758288763, 0.41350561503606215, 0.41819777231477545, 0.4228746535080562, 0.42761098816323695, 0.4324501387609238, 0.4372121014033165, 0.44199734924271566, 0.4467132335089341, 0.45155505481616603, 0.4564265345492644, 0.4612999213101507, 0.46619091627710063, 0.47114041287454106, 0.4760612779783932, 0.48098422947270075, 0.48594605069590885, 0.49092547669650916, 0.49586365266558163, 0.5008845204118872, 0.505908279681426, 0.5109567252008202, 0.5160177164633974, 0.5210619914123672, 0.5261516239083839, 0.5312840375840631, 0.536390857294539, 0.5415100446276678, 0.5465988012219674, 0.5517468337751197, 0.5569386193955767, 0.5620993894170383, 0.5672704001298332, 0.5723955226631584, 0.5775922810131445, 0.5827826675241231, 0.5879913572785713, 0.5932042546218296, 0.5984562065711291, 0.6036722994886162, 0.6089185016894335, 0.6141412553300934, 0.6193692190809079, 0.6245692872070129, 0.6298089135901929, 0.6350140572099285, 0.6402586656824034, 0.645500567387018, 0.6506823271726278, 0.6559246995327668, 0.6611275734707426, 0.6663592190113251, 0.6715813869754117, 0.6768247279434542, 0.6820238009514822, 0.687188332235736, 0.6923736730384615, 0.6975480513818686, 0.7027782225683977, 0.7079206357346661, 0.713020571283638, 0.7181483125222456, 0.723262904176436, 0.7282903466103554, 0.7333851426420513, 0.7384730726099019, 0.743525793630588, 0.7485584134655038, 0.7535191343070582, 0.7585160668775438, 0.7635113574320451, 0.7684548984741828, 0.773373888652299, 0.778241284716764, 0.7831122616964441, 0.7879958124119221, 0.7928042491331145, 0.7975852682968309, 0.8023377802578635, 0.8070606897865353, 0.8117221987492195, 0.8163864848888266, 0.8209620532006833, 0.82556306317672, 0.8301246651097112, 0.8346522282214941, 0.8391327634561849, 0.8436251895346373, 0.8480168686671314, 0.8523692577491321, 0.8565641665472908, 0.8608490529667163, 0.8651194934132598, 0.8693006287365409, 0.873433593141911, 0.8774752653201636, 0.8815150204129052, 0.8854814473161252, 0.8894175604100725, 0.8932985808114436, 0.8972044357232177, 0.9009636053909069, 0.9046632451998855, 0.90831757900796, 0.9119166751113852, 0.9154125548102379, 0.9189035140114743, 0.9223360012921522, 0.92570304139259, 0.9290073084259186, 0.9322275087448292, 0.9354063203382509, 0.9385552352051157, 0.9415958446922862, 0.9445706470629673, 0.9474259813290071, 0.9502727408911223, 0.9529892231091538, 0.955699218591618, 0.9583329945008641, 0.9609825069089354, 0.9634516962222985, 0.9658287147887357, 0.9681559892592816, 0.9704082637278321, 0.972539369501609, 0.9746448366362772, 0.9766424815958932, 0.9785909311476192, 0.9804568771409162, 0.9822239783712275, 0.9839261231013172, 0.985583421698806, 0.9871116974631895, 0.9885573383534152, 0.9899430942879112, 0.9912185997690189, 0.9923641191686365, 0.9934783364639547, 0.9945051821829156, 0.9954750196288278, 0.9963222247428942, 0.9970812891675629, 0.9977547231089006, 0.9983402314763953, 0.9987656604244829, 0.9991828355287943, 0.9994948907363037, 0.999726836131599, 0.9998649414250791, 1.0, 0.9999394001098524, 0.9996983105791128, 0.9994718982752072, 0.9991506504709026, 0.9988151719279268, 0.9982946657011877, 0.9976068826862218, 0.9969160599201335, 0.9961301252805638, 0.9953092512350512, 0.994326206729776, 0.9932228393609814, 0.9920610367875609, 0.99080599655298, 0.9894022282167817, 0.987967937959177, 0.9864916264610376, 0.9848588509099835, 0.9831341159697535, 0.9812707234036786, 0.9793682612454381, 0.977427108506126, 0.9753296974093425, 0.9731422627338409, 0.9707859510826085, 0.9684287599211436, 0.9660330718009187, 0.9634816256497293, 0.960840942091484, 0.9581289172257688, 0.9553086348309403, 0.952316470376364, 0.9493330282078944, 0.9462583992400356, 0.9431068252178396, 0.939851374059403, 0.9365232338829287, 0.9330921965518182, 0.9295764172023561, 0.9260234197769991, 0.9223344876373034, 0.9185233168296995, 0.9146804646446887, 0.9107562702310025, 0.906710673866568, 0.9026316004722253, 0.8984949354324895, 0.8942521865200741, 0.8899322331913553, 0.8855068499930092, 0.8810392267849843, 0.8764870456047195, 0.8718702305621217, 0.8671796641911098, 0.8624619754285721, 0.8576220916999603, 0.8527426561922324, 0.8477655084050815, 0.8427244333686517, 0.8376143354849056, 0.8324484629672075, 0.8271929977775438, 0.8219079755983669, 0.816561568664572, 0.81108927663218, 0.8056322783971142, 0.8002003365286441, 0.7946118934527988, 0.7889707371837252, 0.783260378050063, 0.7775192159242174, 0.7717364162391356, 0.7658946466613069, 0.7600056172031249, 0.7540019055322916, 0.7480309235655003, 0.742052225207503, 0.7359837883346638, 0.7298741494196688, 0.7236707206686022, 0.7174900203843082, 0.7112812843117705, 0.7050215848458504, 0.698726641010393, 0.692396740034228, 0.6860367100723728, 0.6796114312992501, 0.6731971907136778, 0.6667541586951804, 0.6603266515192581, 0.6538263918539061, 0.6472790233470146, 0.640741941261771, 0.6341854749851165, 0.6276127493386741, 0.6210222972667828, 0.614389694506223, 0.607775596634207, 0.6011487369482984, 0.5946015403989374, 0.5879430284364583, 0.5812674800829546, 0.574606937186119, 0.5679451308736058, 0.5612320879502064, 0.5545778345991108, 0.5479362805357813, 0.5412811463920514, 0.5346296614920504, 0.5279424337489903, 0.5213080316402877, 0.514719039510105, 0.5080933638434582, 0.5014794661721405, 0.4948904624849666, 0.4883029010541867, 0.4816823199928821, 0.4751357210912491, 0.46860564365657853, 0.4620952681176751, 0.4556031561266127, 0.4490975767888191, 0.44265470578573013, 0.4362345856645401, 0.4299384004424936, 0.42355647799002494, 0.41718462742291906, 0.41087337268248064, 0.4045958858220539, 0.3983005983931804, 0.39210048610047615, 0.3859007669881452, 0.37977443970803737, 0.3737752918505863, 0.36770915927518494, 0.3616865476941131, 0.3556146809519117, 0.34969331231999, 0.3438155526945665, 0.337976778251416, 0.3321819580244255, 0.32642227099749316, 0.32072082086856896, 0.3150594774324677, 0.3094550861184719, 0.3039002397003566, 0.2984312559794383, 0.2929746980104258, 0.2875819337689392, 0.2822350805086717, 0.2769452608989398, 0.27172921678747775, 0.2665534058697544, 0.26139947672103236, 0.2563487509991992, 0.25135678418522056, 0.2464521599226039, 0.24157658449108096, 0.2367446299689219, 0.23199717754195243, 0.22731221575499252, 0.22275028588700807, 0.2181845129779698, 0.2136029950639244, 0.20918295403713089, 0.20482591794194738, 0.20057504123776818, 0.19634087395265937, 0.19211132776030074, 0.18802031107515896, 0.18399371807230025, 0.18013021508099317, 0.17622217508255678, 0.1723421411073135, 0.16858308885718834, 0.16489291044247187, 0.16124104223714533, 0.15769287875041232, 0.15418882111367177, 0.15077892535538065, 0.14743579839434703, 0.14423878497317208, 0.14102035746407246, 0.13787852041525314, 0.1348035193256206, 0.13180013218239162, 0.12883723307185452, 0.12597969148543686, 0.12320542581646823, 0.12048321007749323, 0.11783016668839283, 0.11520651877131323, 0.11269588033116114, 0.11023224347791771, 0.10785599576196706, 0.10554458694322992, 0.10326588171988214, 0.10108822669326799, 0.09897348580714559, 0.09692175489451271, 0.0949330427443557, 0.09301166323905886, 0.09114814467159824, 0.08936353882846831, 0.08762333816134502, 0.08594619082986363, 0.08439148562835952, 0.08283119472706348, 0.08128734891951754, 0.07986141578371111, 0.0784952674395341, 0.07718678016658362, 0.07593837868664158, 0.07480464197023892, 0.07366362415421972, 0.07258201286416947, 0.07148404309215677, 0.07052707851785882, 0.06969344644994824, 0.06883031863246739, 0.06802184461224468, 0.06720106192718253, 0.06650670579646432, 0.06583500834692685, 0.06523824227954055, 0.06468640000605169, 0.06424480258461618, 0.06377303877146977, 0.06336147265624766, 0.06298095966741526, 0.06264590763434962, 0.06237261735797904, 0.06212257127258182, 0.06189631852265867, 0.06173295858586534, 0.061608742378833924, 0.061540121497083586, 0.06148871251496162, 0.06147126405719101, 0.06149278711133377, 0.0615486419207168, 0.06162599604024876, 0.0617485961437267, 0.06184010675834277, 0.06203008520715139, 0.06224492228130519, 0.06251188301054288, 0.06277133242414239, 0.06309349567317694, 0.06339664777644076, 0.06372481520641107, 0.06406506160134397, 0.0644410381832, 0.06479971223986951, 0.06522082604786443, 0.06565836033645672, 0.06610717009781675, 0.0665757908225589, 0.06709330369125009, 0.06758429818728344, 0.06808943365637687, 0.06862365706646457, 0.06915165790937747, 0.06960802622216852, 0.07016873518374529, 0.07073406453051567, 0.07129329752651377, 0.07186765450246374, 0.07251753855671109, 0.07308697330977641, 0.07366179871786102, 0.07419547201204552, 0.07478317007856451, 0.07537599709270117, 0.07596076412636586, 0.07654361818903435, 0.07708718770220734, 0.07766835923766642, 0.07822846896482753, 0.07879807073456037, 0.07935931248517827, 0.07996873128003155, 0.08050458078189142, 0.08105127860777694, 0.08157049222635317, 0.08208197148642256, 0.08254806802671906, 0.08304544376578664, 0.08348309684545915, 0.08395983495607627, 0.08441967891337729, 0.08490474599709609, 0.08532457390470718, 0.08572602532043724, 0.08611460283345602, 0.08648615460286176, 0.08691458494401219, 0.08724072592122642, 0.0875331251712011, 0.08783100026019759, 0.08811077815817935, 0.08833943825403812, 0.08858457031449869, 0.08882640573953272, 0.08902410512421356, 0.0891997319668925, 0.08933812326105064, 0.08946985716395921, 0.08960787339073796, 0.08968657174637683, 0.08974195235694263, 0.08971208478596034, 0.08972704324585608, 0.08968454403233621, 0.08964685335288267, 0.08957946983124815, 0.08949437800725363, 0.08936695487397386, 0.08917322884993042, 0.08899410169855893, 0.08878468943581477, 0.08854680917376838, 0.08827765960623704, 0.08804355700616127, 0.08770794445016727, 0.08734707701248047, 0.08697668602180272, 0.08656227407743544, 0.08606119928123016, 0.08560367246395219, 0.08511679418881526, 0.08459350765981023, 0.08404959539055205, 0.08348541496029063, 0.08288259698200365, 0.08224155091516762, 0.08158422723880916, 0.08089871800437294, 0.08025108628209174, 0.07950172269186859, 0.07867314242465602, 0.07788321392963901, 0.0770660562482691, 0.07630092917498053, 0.07542029360403693, 0.07446958594500579, 0.07355108489210745, 0.07260752376994459, 0.07163622584061947, 0.07064367852858504, 0.06957262812640162, 0.06853842745471059, 0.06747746690089815, 0.06650165175368553, 0.0653754987192496, 0.06414487422041014, 0.06299299222466348, 0.06181775250988906, 0.06062713004837722, 0.059406232629646255, 0.05820965895397967, 0.05694161201145401, 0.05565624847032752, 0.054378620827830564, 0.053056130016205585, 0.0516541304163888, 0.050309523657117196, 0.04894643061110662, 0.047562683367348944, 0.04616523943327024, 0.04479522373514009, 0.04336011805884234, 0.041912508784928304, 0.040420594933885105, 0.03895315719257283, 0.03746235300637169, 0.03597065006215304, 0.03446664728686617, 0.03296281465623182, 0.031435042223343874, 0.029963686699075592, 0.028409499563210813, 0.026850909280952906, 0.0252456286025774, 0.023683977080722708, 0.02213505624091705, 0.020559079221735835, 0.0189791488835583, 0.017401593527692102, 0.015814482223364065, 0.014219405428440747, 0.012629290536057056, 0.011037736663082574, 0.009433628135393262, 0.007842422289393958, 0.00626842867211455, 0.004675042488228798, 0.003083699768416209, 0.0015987361141624366, 0.0