0.03109015455521319, 0.03070978896327014, 0.030319360846802697, 0.029916452730809492, 0.02961023808446806, 0.029331350007186983, 0.029159407744715687, 0.028912764989003043, 0.028633248692611, 0.02843287320977124, 0.028244831346027267, 0.028083301488420958, 0.027912750165275294, 0.02766594933462797, 0.027522580810670622, 0.02738136458865722, 0.027241195606031252, 0.02710492958218896, 0.026986219315184024, 0.026854052090065358, 0.026726384378498346, 0.02664796566719849, 0.02652497248764452, 0.026337677372841407, 0.026240789050060408, 0.02614862479550432, 0.02611257705425912, 0.026026132363448154, 0.025858705772696357, 0.025804515265670604, 0.0257562044678609, 0.025696471930836982, 0.025665696228608464, 0.02572187268319923, 0.02569847365938721, 0.025689724943553066, 0.02564419201201106, 0.02567217755435495, 0.02565492403512191, 0.025716250924967994, 0.02578837337979018, 0.02593889197179791, 0.026027366179911825, 0.026038507720405345, 0.026174266082005848, 0.02632276081175625, 0.026497335363265567, 0.026672724576113426, 0.026864328430908063, 0.02707280125829874, 0.02729873703587633, 0.027505725995736544, 0.027772833515582067, 0.028145496002606855, 0.028435852863813834, 0.028749419162938654, 0.029015862289496118, 0.02938437831855068, 0.029813765002777822, 0.030215513215982114, 0.030639644912069337, 0.031089984418114915, 0.031558816110854204, 0.03201371338096264, 0.03253338519701488, 0.03307428847609877, 0.03362826668573017, 0.03421409664433766, 0.034854030667080226, 0.03548045059351939, 0.036131681820032374, 0.03677711173879465, 0.037482411909960316, 0.038137477979830116, 0.03889992469115243, 0.039682812555217176, 0.0405684621679258, 0.04138495721955842, 0.042159087117584586, 0.04304027921969177, 0.0439456692785721, 0.044855057231924705, 0.045813650801045436, 0.04688846709308943, 0.047886453135389404, 0.048916090454302605, 0.04991940258120319, 0.05101944077442815, 0.05216991183545808, 0.05332416622360965, 0.054508889266858415, 0.05571079868213579, 0.05695897111840591, 0.058248737120784475, 0.05955690135751126, 0.06089693526007612, 0.06217056566827633, 0.06358757800618522, 0.06514625348432758, 0.06660406579598144, 0.06809741911155455, 0.0695954568648842, 0.07116362242670458, 0.07272608318155364, 0.07436691530151758, 0.07603976601733863, 0.07768977313633983, 0.0794353089739153, 0.08128027212410162, 0.08307886664918748, 0.08491343654351032, 0.08673854852803449, 0.088651237754925, 0.09067656023153474, 0.09264737315027141, 0.09465731836297782, 0.09667041860860694, 0.09876240163721656, 0.10085265011317292, 0.10302247168347407, 0.10522681663717565, 0.10752889644387882, 0.10979548333698275, 0.11199769743292619, 0.11435529013035375, 0.11674568409244425, 0.11925325423151668, 0.12170043733199035, 0.12412268421718942, 0.12665589447784256, 0.12922405279857505, 0.13189145897170093, 0.13452212177953812, 0.13709709436270273, 0.13981763881592368, 0.1425712184362216, 0.14536315728755175, 0.14818329819873452, 0.15107466491311228, 0.1539588273638244, 0.15687956832672012, 0.15983170045756565, 0.16282542973474182, 0.16587189369925673, 0.16893417583762624, 0.17203240400022723, 0.17508364029814807, 0.1782629507715465, 0.18153392224574866, 0.18476585591266845, 0.18803175096762967, 0.1913349052626075, 0.1946670571417271, 0.1980087625336343, 0.2014093346818734, 0.20484064624162723, 0.2083356824834151, 0.21182343004136028, 0.21527761140555488, 0.21883642003208606, 0.22242205178613567, 0.22603566209842968, 0.22967449608868232, 0.23329794262510412, 0.23699479883068636, 0.24071524568072328, 0.24451593745672526, 0.24827631343046638, 0.25204720529930635, 0.2558619818605971, 0.2597010244300246, 0.2635206644378575, 0.26741198845190056, 0.27132711225952105, 0.27525790577907655, 0.27920840533985614, 0.28322253312502893, 0.2872055378293563, 0.2912044206704016, 0.29522875580389474, 0.29927182383541195, 0.3033414004236218, 0.30741830756904526, 0.3114453869745489, 0.31556315587347183, 0.3196920569803192, 0.32382187309108723, 0.32797313178236537, 0.3322162220957302, 0.3363752135159962, 0.3405471848176581, 0.34465824450591825, 0.3488617310089324, 0.3530323721634123, 0.35725081623748245, 0.3614713201405971, 0.365730506549819, 0.36994939778955205, 0.37421801723393927, 0.37843600320329374, 0.38265784607499925, 0.3868773666001191, 0.3911038182878676, 0.39532525243604666, 0.3995510132666516, 0.4037741594549196, 0.4079394367256704, 0.41216103201850046, 0.4164132265560948, 0.4206116066452594, 0.4247959709341075, 0.4289784021595997, 0.43315060448068793, 0.43731654033241457, 0.4414647625121894, 0.4455496215282606, 0.44967747726522955, 0.45378758970371946, 0.4578411600909761, 0.4619187121440908, 0.46600763532106426, 0.47003676691221113, 0.47404491052381803, 0.47800288046693795, 0.48197003110076314, 0.48592919744543844, 0.48984301092650806, 0.4937311150324345, 0.49763692258011244, 0.501465200696619, 0.5052243137062611, 0.5090045974593781, 0.5127537749428859, 0.5164980219544302, 0.5201787840420711, 0.5238222319548067, 0.5274376689559139, 0.5310181158513672, 0.534556319970784, 0.5380642959591093, 0.5414363914787751, 0.544878508271405, 0.5482745818749825, 0.5516305605177564, 0.5549330487484575, 0.5582197409323076, 0.5614246597343492, 0.5645836615863163, 0.5676540161811022, 0.570723906617728, 0.5738193003319425, 0.5767772707983174, 0.5796875336997831, 0.5824712521451612, 0.5852922295009828, 0.5881203626093178, 0.5908215841838504, 0.5934696428133822, 0.5959994183946369, 0.5985460637013968, 0.6010956483825767, 0.6035141399094145, 0.6058753285556376, 0.6081732626743558, 0.6104174336363843, 0.6125370216787939, 0.6146673482823858, 0.6167318338076312, 0.6187732906669473, 0.6206997198672507, 0.6225112401530719, 0.6243145013300675, 0.626049076366648, 0.62769374606811, 0.6292927264295974, 0.6308603392077108, 0.6323125935120139, 0.6336958831485684, 0.6349948675503, 0.6362404311368504, 0.637423189934262, 0.6385244199639037, 0.6395539307618753, 0.6405543820917624, 0.6414336749224554, 0.6422386797852766, 0.6429765140588292, 0.643642131663289, 0.6442201656076209, 0.6447415108749878, 0.6452017540370621, 0.6455717685656888, 0.645867290645446, 0.646000507296565, 0.6461570517217639, 0.6462541688823522, 0.6462477964943393, 0.6461631079553912, 0.6460471085855723, 0.6458004603048675, 0.6454097131201126, 0.6450213271840526, 0.6445535712042137, 0.6439736191206116, 0.643352585313899, 0.6426872370051397, 0.6419022437035776, 0.6410404192467286, 0.6401549724322313, 0.6391335317232524, 0.6379305936565055, 0.6367764710097159, 0.6355428850891534, 0.634325499869777, 0.6329234191859107, 0.6313706963802475, 0.6298348801845225, 0.6282227440123411, 0.6265571424927266, 0.6247915949490981, 0.6229578911876614, 0.6210460096698446, 0.6190622446272707, 0.6170390629361697, 0.6149088330921743, 0.6127025209405719, 0.6104360920212677, 0.6081011128801967, 0.6057250973082425, 0.6032508845848953, 0.6006432753271462, 0.5980466382818495, 0.5953812477323505, 0.5926727242962373, 0.5898696616873423, 0.5870095467926828, 0.5840774273417562, 0.5810828255655005, 0.5780388026293044, 0.5749199401765215, 0.5716455322072379, 0.5684205925549867, 0.5651322750088802, 0.5617944660125014, 0.5583824814557709, 0.5548913991711082, 0.5513670466189583, 0.5477859356755063, 0.5441630300053886, 0.5404708924132545, 0.536777379160866, 0.5329763037367053, 0.5291285662681977, 0.5251671912834391, 0.5212370372482427, 0.517268698048668, 0.5132426526586369, 0.5091719526606253, 0.5051317909539924, 0.5009663018364594, 0.496661915719141, 0.49243668066727964, 0.48817043646521346, 0.4838869675925909, 0.4795406993558097, 0.4751741575705921, 0.47075722781922535, 0.4663086937723609, 0.4618482097604587, 0.457337677883103, 0.45279028980214026, 0.4482280555401532, 0.4436404072513431, 0.4390334600595889, 0.43439793916545666, 0.4297174824779954, 0.4250430375310902, 0.42034813046972563, 0.4156514066051858, 0.41091758976871184, 0.4061561354620322, 0.40139446751772395, 0.39661926244870405, 0.39180107674219344, 0.3870067297324339, 0.38220237662389395, 0.37738697681802824, 0.37256352893626454, 0.3677064348888194, 0.3628747834124375, 0.3581032514086158, 0.35325466237823316, 0.34840779656275006, 0.343493462323827, 0.3386619835724027, 0.3338215414246865, 0.3289947263499891, 0.324171468502219, 0.31941865714939865, 0.3145990352612759, 0.3097962275166939, 0.30500068744777753, 0.3002191923505257, 0.2954711474394533, 0.2907182174728162, 0.28597336560512193, 0.28125837949871757, 0.2765624726444226, 0.2718028623140046, 0.2671586287739342, 0.2625908409319305, 0.2579754553882243, 0.2533605765822555, 0.2487970113461799, 0.24425812097934735, 0.23968723015621052, 0.23520861436408175, 0.23086088692277593, 0.2264203875416616, 0.22201387011483487, 0.2175753847110464, 0.21324695262434168, 0.20896039208655756, 0.2046959239935039, 0.2004663253578743, 0.1962159387234707, 0.1920662071212199, 0.188045902150495, 0.18395471208682707, 0.1799060599815093, 0.17589791074694425, 0.17193595130158498, 0.16799802727409777, 0.16412654223549997, 0.16029869747076736, 0.15652994169769224, 0.152789496965629, 0.149056060760085, 0.14541393860778523, 0.14181701218185275, 0.13822174193319353, 0.1347231674750852, 0.13130897470692035, 0.1278963733723612, 0.12453290664470265, 0.12116368689412511, 0.11790707499515106, 0.11473864099855913, 0.11157283661408894, 0.10845852142676256, 0.1053837655902829, 0.10237511241099678, 0.09946265652983358, 0.0965524983653992, 0.09369741741126243, 0.0908714963420714, 0.088129689406124, 0.08539086786778716, 0.08276257943906427, 0.08018524494553159, 0.07769263716785645, 0.07521448218497144, 0.07284466997132226, 0.07046799820011364, 0.06814856298121773, 0.06587975230181312, 0.06367423579840735, 0.06152925524561052, 0.059434000904633265, 0.057393974878852415, 0.055401430073587006, 0.053471732682102105, 0.05159949619737866, 0.049776583660552216, 0.04800707837343296, 0.04628696130921067, 0.044623759995491716, 0.04297704930172112, 0.04142246625394345, 0.039917441577219055, 0.038464381028320345, 0.03705793790398078, 0.03566022332860846, 0.034357444710846605, 0.03310127392381426, 0.031993965359386214, 0.030818084568342365, 0.029691938013453358, 0.028619755176413415, 0.02759765621396069, 0.0266284257978268, 0.025703325747725866, 0.02476182279557515, 0.023939244479155426, 0.023159008290995795, 0.022414645129458406, 0.021718890155070135, 0.021107162984668002, 0.02048739627195387, 0.019910122699071355, 0.019379434109145593, 0.018884022865193573, 0.018426422655655837, 0.01801100411390483, 0.0176339917471621, 0.01735243541010903, 0.017042400137877434, 0.01674933377124986, 0.016519074597846822, 0.016324156194817706, 0.01622760495037082, 0.01609223096452785, 0.016034672477475375, 0.015964405699392743, 0.015929556538011525, 0.01595802368341398, 0.0159853932923606, 0.01599466184587732, 0.016091596730797957, 0.016214970396591998, 0.016406880930164562, 0.0165746834128132, 0.016797968148363873, 0.017012607843705355, 0.017252354558173838, 0.01760696788412823, 0.017881333178750826, 0.018178307939384453, 0.018503851266304012, 0.018851844131920144, 0.019229321950926755, 0.019616480793270538, 0.019997516053057395, 0.02042346548236957, 0.020863945602637022, 0.021313055535849598, 0.0217803445626643, 0.022349013291687533, 0.02282706009410185, 0.02332002972774962, 0.023846148766405895, 0.02436214265353478, 0.02496394656692121, 0.02549307763099917, 0.02603568929856131, 0.02658511283898059, 0.027150237024396166, 0.027726250558485568, 0.02830663123455948, 0.0288931152142853, 0.029532637202216112, 0.03012204137842678, 0.030651921052004417, 0.03125983947746672, 0.03186746417322446, 0.032542025078680835, 0.03313898554625857, 0.033797109238167734, 0.03438969010580827, 0.03498573622833339, 0.03551127539433504, 0.03611965774407182, 0.03682242256330828, 0.03740967302538495, 0.03799758257696726, 0.03861582257209062, 0.03919791234571853, 0.03976951357678146, 0.04035052897438665, 0.04092837375846714, 0.04152077583687917, 0.04208778816681506, 0.04259032373090224, 0.043156056263909656, 0.04371303712089241, 0.04426863682532909, 0.04480712846983168, 0.045353257155798146, 0.04587291612071106, 0.04638499514132273, 0.04691519870215359, 0.047408394207320535, 0.04788397840832505, 0.04836523498536493, 0.04883881670465599, 0.04940808070107861, 0.049852953096735875, 0.050269875558641645, 0.05071300426425258, 0.05115103803651401, 0.051590979662078616, 0.0520168103055497, 0.05240378544200898, 0.05282240168198735, 0.053233185414629805, 0.05368189355701555, 0.054071831977754316, 0.054411556857486054, 0.054797867729272254, 0.055176834327581276, 0.05561658813863268, 0.05597348107457399, 0.05633665640374514, 0.05668766026481766, 0.05703664706929441, 0.05737003030179392, 0.0577166566740342, 0.058125888699550626, 0.058459192972990334, 0.0587940873560067, 0.059145190175965014, 0.05948101368035466, 0.05972669534162364, 0.06007866645114332, 0.06042777971092389, 0.06089073010852252, 0.061222225604094176, 0.06152681081190002, 0.061875143547354385, 0.06221070095990979, 0.0625705583702323, 0.06293478472013772, 0.06330895265434304, 0.06368325712270617, 0.06402726802188578, 0.06442023237900961, 0.0648191523153333, 0.0653272725498266, 0.06572820786992171, 0.06605515140077052, 0.06649682212903055, 0.06694858424728933, 0.06742131782608078, 0.06789508040851229, 0.0684022259394396, 0.06890175106447619, 0.0694178591291606, 0.06998454308679745, 0.07053184273917512, 0.07113187798663761, 0.07171706954005196, 0.07232584919450166, 0.07297087923459009, 0.07362638294767251, 0.07431971781989924, 0.07502512455288424, 0.07575766111270331, 0.0764463385322921, 0.07724357151943939, 0.07806051636005325, 0.07890883170810149, 0.0797838433268933, 0.08077416268388757, 0.08169496602421628, 0.08258179338191465, 0.0835816818535521, 0.08461349484874003, 0.08573123052926629, 0.08682328263065943, 0.08791139733574192, 0.08908516902056972, 0.09029565397606444, 0.0915881350011692, 0.09286924981681463, 0.09416277968162323, 0.09553211462574289, 0.09694285664923023, 0.09839951915694105, 0.0998950520973038, 0.10143215693523576, 0.10301682472827535, 0.10464688574646389, 0.1063193975411338, 0.10804295600001289, 0.10979297720587193, 0.11161472406834015, 0.11348415482702194, 0.1154095273950363, 0.1173759545642496, 0.11942991426619048, 0.12149352656968399, 0.12361115175841791, 0.1257326315571115, 0.12796569856180276, 0.13027439458213033, 0.1326097249284933, 0.1350000826569827, 0.13741885566985537, 0.1399241276096619, 0.14248799290322964, 0.1451032338466035, 0.147774811027901, 0.15050939801509047, 0.15329437440462157, 0.15617071445772648, 0.15906805314571593, 0.1620260372914047, 0.1650668616520876, 0.16814341260713664, 0.17122281933559208, 0.1744306508955342, 0.1776968666940848, 0.18108957153680877, 0.18446503115345245, 0.18781494296365392, 0.19132756064455714, 0.19489771941887277, 0.1986231592835231, 0.20229733817676845, 0.20601098467330947, 0.20981593031885643, 0.21368253098267442, 0.21753783248193992, 0.22153607462666733, 0.2256390690096106, 0.2297449616805196, 0.233910766971249, 0.23808942973217273, 0.24238020032269333, 0.24680626000134331, 0.25120004271420404, 0.25565475045100955, 0.26011547408621183, 0.2646967536067413, 0.2693091810466289, 0.27400489429106706, 0.27875446980756957, 0.2835466802041615, 0.28840488487913424, 0.2933107703654627, 0.29827456214652703, 0.3032901139687272, 0.3083841772297502, 0.3134987212348112, 0.31866285386151993, 0.3238810657572558, 0.3291496696624252, 0.3344235448562866, 0.3397961695814537, 0.3453066488714858, 0.35075804687656326, 0.3562590285085312, 0.36171460514384257, 0.3673224771519872, 0.3729730897332659, 0.37866065771685964, 0.3843874725319448, 0.39011710497131213, 0.39592473564737163, 0.40177468520268683, 0.4076506426054032, 0.4135606650332938, 0.4194879208615888, 0.42546557342602376, 0.4315476441617391, 0.43757611860431, 0.44363745246943076, 0.4496709352947748, 0.45580071099924524, 0.46198979748169744, 0.468163793937527, 0.4743623692904482, 0.48049540868202334, 0.4867500455126582, 0.4930840111246321, 0.49936037485583407, 0.5056540432347544, 0.511969741605216, 0.5182929280124039, 0.5246171093364822, 0.5309669563969586, 0.5373263796725367, 0.5436779380891783, 0.5500542342186305, 0.5563893011744789, 0.5627786998205769, 0.5691671654921336, 0.5754773018068571, 0.5818703899444796, 0.5883263987320964, 0.5946928162214874, 0.6010533893507545, 0.6073500421006658, 0.6137018024677403, 0.6200081705613236, 0.6263361982522893, 0.6326468951621618, 0.638925781393746, 0.6452006429259795, 0.651529484234862, 0.6577514725013863, 0.6639543096367557, 0.6701349463384267, 0.6762941999920721, 0.6823302948251913, 0.6884509978980734, 0.6945380436091345, 0.7006249831207605, 0.7066374646371416, 0.712593010981754, 0.7185373354737558, 0.724442770230514, 0.7303622206639043, 0.7361791252060297, 0.7418466014312712, 0.7475959374257287, 0.753295727976403, 0.7590214778890576, 0.7646098699234414, 0.7701391234011621, 0.7756311393912101, 0.7810711664054045, 0.7864367403452511, 0.7917708768722519, 0.7970707264191271, 0.8022852237235863, 0.8074407393440692, 0.8125333206884167, 0.8175667449144183, 0.8224763142428996, 0.8273889786168915, 0.8321901321870714, 0.8369679750810032, 0.8416721025533372, 0.8462945498445517, 0.8508503919808424, 0.8554213388134889, 0.8598128966174662, 0.8641321200251465, 0.8683356329754964, 0.8725110445841427, 0.8766074509091176, 0.8806238617270997, 0.8845592983029806, 0.8884177223019276, 0.8921877081267762, 0.8958876985938935, 0.8994879318908127, 0.903003503591199, 0.9064161618083183, 0.9097616060631676, 0.9129951159137194, 0.9161657047032258, 0.9192449711466558, 0.9222545691363274, 0.9251468398156988, 0.9278600401710396, 0.9305794412345755, 0.9332009775018654, 0.9357173410140971, 0.9381442726405189, 0.9404939511244319, 0.9427218520945471, 0.9448526974555315, 0.9469490638398874, 0.9488771361976311, 0.9506616889729589, 0.9524067433632257, 0.9540533670679673, 0.9556604728237219, 0.9571021533676974, 0.9584370634820509, 0.9596881464968431, 0.9608417463145157, 0.9618863964273877, 0.9628453489376847, 0.963704003184215, 0.9644648640324098, 0.9651264044196816, 0.965599925731376, 0.9660740233326105, 0.9665202522587002, 0.9667770423538721, 0.9669354602842397, 0.9669340280397293, 0.966903845696965, 0.9668424785324996, 0.9666013597107811, 0.9662642089461894, 0.9657387666139342, 0.9652216362703713, 0.9645816356002962, 0.9638669295965118, 0.9630522799389394, 0.9622262573341077, 0.9612039783234875, 0.960060324043029, 0.9588584416851729, 0.9575637221278888, 0.9560979788640457, 0.9546294967474893, 0.9530854528496157, 0.951425287917425, 0.949673598510965, 0.9478487159712568, 0.9459150422631173, 0.9438447565613122, 0.9417435278555043, 0.939554011797244, 0.9373612874196613, 0.9349885479949792, 0.93244372342624, 0.9299238093945403, 0.9273201963806744, 0.9247156085661966, 0.9219385866529116, 0.9190829378004062, 0.9161572143204866, 0.9131578044742006, 0.9100288977784754, 0.9068918697971786, 0.9037545674842279, 0.9004612944290692, 0.8971008772320603, 0.8936002463466304, 0.8901174431031351, 0.8865475585769809, 0.88293148688475, 0.8792489663518426, 0.8754943230015287, 0.8716849530854752, 0.8678260860573058, 0.8638932164622533, 0.859902565076473, 0.8558433457899652, 0.8517432698512474, 0.847620076192233, 0.8434098929439116, 0.83915072121785, 0.834875910529185, 0.8305187095024613, 0.8260518395424361, 0.8216178517473401, 0.8171392618455107, 0.8125660850731259, 0.8080100405075029, 0.8034079519861562, 0.7987697629217452, 0.7940931179513204, 0.7894378847391856, 0.7846828836848765, 0.7798306904744842, 0.7750266994569297, 0.7701921590401639, 0.7653166652918622, 0.7604282640409135, 0.7555893250421049, 0.7506419396574918, 0.7456767563225035, 0.7406949222115613, 0.735697614912732, 0.7306614059113881, 0.7256399060989018, 0.7206052359824923, 0.7154948164557554, 0.7104462989836106, 0.705424808882328, 0.7003484931961204, 0.6952658458115047, 0.6902165505896563, 0.6851208968150079, 0.6799897787026199, 0.6749002837390882, 0.6698113265932321, 0.6647034263906512, 0.6596225430210556, 0.6545194647375967, 0.6494507540505295, 0.6443873447356971, 0.6393124517123913, 0.6342669887923847, 0.6292220561437785, 0.6241976516830192, 0.6191851754762978, 0.6142773730547496, 0.6092819675238305, 0.6042577160545587, 0.5993126837588635, 0.5943878738585543, 0.5894795190075818, 0.5845992324151565, 0.5796979625930269, 0.5748711289178137, 0.5700674026076934, 0.5652820619702413, 0.560529569516768, 0.5558433586089263, 0.5511409105588752, 0.5464700636282462, 0.5417824053884366, 0.5371835382481136, 0.5326197200241783, 0.5280842973481816, 0.5235827781447496, 0.519188878785288, 0.5147490683353892, 0.5103576167062893, 0.5059991236023946, 0.5016826709747891, 0.4973358974174387, 0.4931136625275563, 0.48897595939943983, 0.484826840308048, 0.48072109611135777, 0.47665920460652567, 0.47264163679757754, 0.4685887963542458, 0.46467137531463676, 0.4607951397405882, 0.45702767057862664, 0.4532285142936387, 0.44940208034817686, 0.4457084054682693, 0.4420589051049419, 0.4384593624531513, 0.43490007066811764, 0.43139616619149457, 0.427929889412395, 0.4245119449961725, 0.42119690577814034, 0.41786986391844627, 0.4145828765064088, 0.411361943211242, 0.4082157237815098, 0.40509438928637254, 0.4020255434403514, 0.39890915695125156, 0.3959571275439518, 0.39304138847369613, 0.3901834687371133, 0.3873721992447261, 0.38469304158106127, 0.38196566628585327, 0.37929210975379163, 0.3766692983836933, 0.3740982489627936, 0.371476294723995, 0.3690203911278415, 0.366620311112195, 0.3642528891218002, 0.36193154078883405, 0.35967733110937683, 0.3574457895348182, 0.35524195683845816, 0.3531074946126485, 0.3510188185788305, 0.3490484422890378, 0.34704163418346123, 0.34501510253732687, 0.34311463503630135, 0.34125781800232463, 0.33946162935365515, 0.33768909243945744, 0.3359097495971204, 0.3342304560198149, 0.33259094927841865, 0.3309984633681761, 0.3294370612167483, 0.32790165005537203, 0.32642064111388636, 0.324977570500882, 0.32366813593510874, 0.322287627341751, 0.3208715913036816, 0.31958374956528085, 0.3183311196762561, 0.31717597228275607, 0.31598416018541975, 0.31482936493056385, 0.3137104558991766, 0.31262634292601066, 0.31151931519958415, 0.31050882882514347, 0.30948501422147756, 0.308536408425619, 0.3076129441243231, 0.30680059871336773, 0.3059157274234328, 0.30497739231600973, 0.3041599486055621, 0.30336472046521096, 0.30261471544164, 0.3018597227434759, 0.30115401615542653, 0.3004392472873494, 0.2997467153602094, 0.29903972601684353, 0.2983932716966963, 0.29777155652977616, 0.2971582197290517, 0.29656133095666526, 0.29600846948031445, 0.29543863704461437, 0.29486978555196663, 0.29433234105055217, 0.2938078450076816, 0.2933188590667538, 0.29281478597006017, 0.2923027637337952, 0.2918236861346596, 0.2913532667779977, 0.2908402108105692, 0.29039110978575494, 0.2899577781956114, 0.2895136525863241, 0.2890728814903732, 0.28859796003213073, 0.288166883784879, 0.2878092619286003, 0.28736763587040276, 0.28692903352474575, 0.2864887588600123, 0.28605370408722536, 0.2856198003334897, 0.2851835595079094, 0.2847455960392445, 0.2842213297369171, 0.28378805683901054, 0.28332501841520435, 0.28287665820994046, 0.2824180731757452, 0.28197140531240394, 0.2814894146769891, 0.2810191004029294, 0.28051555065241623, 0.2800031153317594, 0.279443013927336, 0.27891584447696155, 0.27837463645640975, 0.2778217373483268, 0.27725539020506584, 0.2767405592708225, 0.2761380985202065, 0.27552854751819617, 0.2749031605717449, 0.2742654749324669, 0.27354447601838117, 0.27288869526103543, 0.27225751349678523, 0.27155916885369785, 0.27084452005665044, 0.2700847512410536, 0.2693396393983617, 0.26856662592519115, 0.26778385956015677, 0.26698095528602256, 0.2661393155646507, 0.26529809502546414, 0.2644266860832845, 0.26354342865980246, 0.26263811307641455, 0.26170831465120153, 0.26075928839146373, 0.2597893519301004, 0.25879589077507165, 0.2577803526443229, 0.2567636471562879, 0.25570121529972173, 0.25458575640076814, 0.25348515885760714, 0.2523613671526548, 0.25124033953157665, 0.2500671579719174, 0.24894145828973058, 0.2477164347455027, 0.2464735389039579, 0.24511728677393874, 0.24384879330087897, 0.24256405781899568, 0.2412451165088287, 0.23990251133351492, 0.23852295093110193, 0.23713549400582742, 0.2357785552668016, 0.23433724318760857, 0.23287597705095958, 0.23140818911297356, 0.22990499741601522, 0.22841195301609024, 0.22686609697261195, 0.2253023345222564, 0.22371303276626747, 0.22211373551711255, 0.22044386880255037, 0.21881344905314556, 0.21716136521909354, 0.21552755345018548, 0.21382871448639312, 0.2120897883707899, 0.21035809461951532, 0.20860762416255882, 0.20679322122039046, 0.20501221261442742, 0.2032911915637072, 0.20146071536246943, 0.1996162150341809, 0.19768263578741851, 0.19581986610946842, 0.19396509134969225, 0.19206412272158638, 0.19014832027839146, 0.18816648402688982, 0.1862291399650348, 0.184361851455916, 0.18238221581459454, 0.1803930682437117, 0.17831695011892187, 0.1763190423852881, 0.17429794832359524, 0.17227549717159765, 0.17024086792915288, 0.168191235137532, 0.16613527910863404, 0.16407064334364777, 0.16199548258005667, 0.15991199018347305, 0.15783194520584684, 0.1557324419139265, 0.15362230344912894, 0.1515125361538327, 0.14939783565464435, 0.14737359526876936, 0.14523869027261901, 0.14300850615338467, 0.1408897149858115, 0.13876710409457024, 0.13667094810990527, 0.13453907858598443, 0.13242682564176203, 0.1302926927833802, 0.1282219879880131, 0.12608402925143503, 0.12395194365558114, 0.12182186814324798, 0.11970157679913963, 0.11759531503533784, 0.11548484089468099, 0.1133804993143261, 0.11126640983661273, 0.10917680580486104, 0.10705973032664347, 0.10498630220054463, 0.10291761962328437, 0.10083222144614874, 0.09877794103140108, 0.09679820621573376, 0.09474718079575979, 0.09270722296207297, 0.09072656980274472, 0.08870331405841402, 0.08661693188761442, 0.0846323321690123, 0.08265773106897119, 0.08073566856900956, 0.07877773657011398, 0.0768685625228728, 0.07493507352446517, 0.07301833513951084, 0.07109866447319395, 0.06921804010501559, 0.06738529785202513, 0.06553265465616728, 0.06369830612685813, 0.06189834285440159, 0.0600988354573249, 0.058391540655402516, 0.05662198732918767, 0.054876206391199424, 0.05314881896096953, 0.051449952567504564, 0.04977721909347619, 0.04812262493159217, 0.04649046964548103, 0.04491766171077574, 0.04332564121883783, 0.041792650024881584, 0.04024515657052167, 0.03872381735187689, 0.03721966941521874, 0.03575079338161823, 0.03435485350966163, 0.032929667692226834, 0.03153205267440241, 0.03019493299413015, 0.028847347621947562, 0.027519829176146465, 0.026230336536286616, 0.02496838831946641, 0.023845928429416845, 0.022624542276876238, 0.021466306794327338, 0.020307480539955895, 0.019182285993638727, 0.01811698089293962, 0.017053253312187187, 0.01602751122333833, 0.015028612851238679, 0.01406184647848708, 0.013075016615342046, 0.012177762248537028, 0.01138623245221576, 0.01053564719347775, 0.009718005307241305, 0.008964955745727806, 0.008208112827935429, 0.007491288700365007, 0.0068009785525282975, 0.006144142371536177, 0.005481069966088733, 0.004895346489470286, 0.004351284477674894, 0.003825518117289732, 0.003331367567046635, 0.002904676049703577, 0.0024696257837954505, 0.0020599770042066465, 0.0016939231157666109, 0.0013611655919875765, 0.0010801775891289484, 0.0008116889902344038, 0.0005985164860249946, 0.0003960288178967352, 0.00022890675089751007, 0.00019545843095158315, 8.597224359708323e-05, 3.159979011193642e-05, 0.0, 7.86345665202794e-06, 2.2371163574264857e-05, 0.00011093710440926132, 0.00028684092464264377, 0.00043984761684954957, 0.0006309449562011028, 0.0008226218407656267, 0.0010929766831942675, 0.0013708198693493559, 0.0017137385803608276, 0.0020896790815645994, 0.0025161108107983406, 0.002956580623130747, 0.0034353763006210315, 0.0039446906448272236, 0.004488947557542742, 0.005107587902847675, 0.0057168336355744405, 0.006426144982524479, 0.007101670924680273, 0.007817457012597409, 0.008551858801841656, 0.009348789061614184, 0.010143546196061106, 0.01101965698560011, 0.011930274868748926, 0.012910006158797801, 0.013885632369185085, 0.0149165225304891, 0.015963219637861688, 0.017047429857309233, 0.01820091206756272, 0.019355346521695804, 0.020473283072915897, 0.02171407175209274, 0.022988510378263164, 0.024348631899397934, 0.025684709848113895, 0.027010131602706162, 0.028426849353411575, 0.02987789548626001, 0.031416480213770775, 0.03293020593151637, 0.03445603704150392, 0.03604872539035876, 0.03767746767992507, 0.0393422844599527, 0.04104319614359127, 0.04277899088888877, 0.04455230664445491, 0.046361704485091124, 0.04825278238381103, 0.0501286578627787, 0.05202230452266281, 0.05397789819280626, 0.05597037216591432, 0.05807106444749111, 0.06012798332970062, 0.06218242556090536, 0.06432542200713597, 0.06650543791685741, 0.06878145611480972, 0.07102764551175422, 0.07330150659680343, 0.07562867594229637, 0.07799410788280692, 0.08041103547258764, 0.08285038024030576, 0.08534025352319968, 0.08785416515200452, 0.09040642676296694, 0.09291420392671167, 0.09555270986461802, 0.09829557135103623, 0.10099135900628678, 0.10372497820387515, 0.10652579551041529, 0.10933078809695024, 0.1121833942877519, 0.11506492469198856, 0.11798526737437938, 0.12085048072338002, 0.12385932573058211, 0.12694273462996827, 0.13001219758432947, 0.13311771232837993, 0.13627783530214244, 0.13945335017503752, 0.14269818688658548, 0.1459441485779973, 0.14922901181177997, 0.152514250402757, 0.15588074801547563, 0.15923134647286982, 0.16267610612908565, 0.1661538980760091, 0.16966763290835327, 0.17321245471681754, 0.17688520648459288, 0.18048708716348613, 0.1841289943829477, 0.18779555437756149, 0.19151765645821053, 0.1951997355422865, 0.1990064636060356, 0.20288518638996916, 0.20675243060705212, 0.2106550822101446, 0.21455732792657267, 0.2185350149211814, 0.22253100684798569, 0.22657689197602232, 0.2306553052840928, 0.23477628991456884, 0.2389190294024861, 0.24316793195146455, 0.24736843574151324, 0.2516064088572415, 0.2558048084616661, 0.26012538473740904, 0.2645646910906997, 0.26893683348979497, 0.2733452427282438, 0.2777854990729874, 0.28226478622460993, 0.28675593658128773, 0.29130553574955004, 0.2958868405108, 0.3004982996104688, 0.30514221470125164, 0.3098291294919829, 0.31453254643364104, 0.3192667215357236, 0.32398567125474365, 0.32878589774857303, 0.3335958684466411, 0.33845222310391754, 0.34333450001590277, 0.34822425216649466, 0.35316073904028433, 0.35813312056912316, 0.36311784958409343, 0.36812799770048843, 0.3732237342339188, 0.37827650121824036, 0.383273653940679, 0.38839250907003064, 0.3935332704124831, 0.39873406521050075, 0.4039135854878838, 0.4091217368762688, 0.4143475109079481, 0.4195961921020663, 0.4248881286706836, 0.4301782022982952, 0.43547210076611675, 0.44080833955516235, 0.44616431644667776, 0.4514877092668946, 0.45688792054747523, 0.46227853702452026, 0.46771174292940665, 0.47315815126892685, 0.47862380756682943, 0.48409542913633863, 0.48961576192705647, 0.4951084862237167, 0.5006154246411203, 0.5061543029566195, 0.5116850798939961, 0.5171216869030664, 0.5226910684152651, 0.5282656041323754, 0.5339327125888313, 0.5395063119217117, 0.5450464912105303, 0.5506439195202846, 0.5562466345907817, 0.5618835724300818, 0.5674912199174726, 0.5729954626331732, 0.5786258316544116, 0.5842532105548351, 0.5899403484047512, 0.5955535021091756, 0.601150678454085, 0.6067650712802876, 0.6123768776005148, 0.6180075156515967, 0.623609063248078, 0.6291207176416707, 0.6347248109150836, 0.6403183853801556, 0.6458703434421018, 0.6514457721560276, 0.6570361211875779, 0.662580865398202, 0.6681131265404964, 0.6736137408778715, 0.6791212601003139, 0.6846524747749816, 0.6901229120116656, 0.6955784681999164, 0.7009761928825076, 0.706404061120727, 0.7117696014282652, 0.7171611276636666, 0.7225283434408935, 0.7278584588722291, 0.7331771187117044, 0.7385504373238966, 0.7438049865558124, 0.7490362651203911, 0.7541333130211552, 0.7593279186662076, 0.7644756232220367, 0.7696048657897356, 0.7746991706119963, 0.7798233972256061, 0.7848382363834143, 0.7898461808848306, 0.7947910756155667, 0.7997023641715092, 0.8045614634154293, 0.8094037385513064, 0.8141668867606314, 0.818936243375052, 0.823662663177905, 0.8283318587183257, 0.8329718741864374, 0.8375043155378487, 0.8420594371784996, 0.8465636832872031, 0.851099315587602, 0.8554905124242016, 0.8597691650937137, 0.8640729390381022, 0.8683235180237435, 0.8724833805994131, 0.876630486326572, 0.88071556419046, 0.8847487082686327, 0.8887236474538797, 0.8926756400971069, 0.8965282205351364, 0.9003070586960915, 0.9040453193473419, 0.9077231874891916, 0.9113928787683395, 0.914941017784459, 0.9184085359630714, 0.9218387684588873, 0.9252058179366712, 0.9285247780494238, 0.9317607092992535, 0.9348257571393245, 0.937944193263568, 0.9409898283863463, 0.9439552344738477, 0.9468560191443889, 0.9497756518026336, 0.9525175422882937, 0.9551907186772994, 0.9577227455434498, 0.9602645851227313, 0.9627924499040501, 0.9651751166457427, 0.9674851176741098, 0.9697253393288008, 0.9718871617645821, 0.9738744702747646, 0.9758987032491564, 0.9778412187969844, 0.979756390569532, 0.9815290994521644, 0.9831754656747925, 0.9847972213079684, 0.9863371660199418, 0.9877916119717741, 0.9891683933559016, 0.990464324388452, 0.9916767478958893, 0.9928070632160305, 0.9939253941754402, 0.9948823629880869, 0.9956869954602527, 0.9964957739490902, 0.9972207155150545, 0.9979185464870931, 0.9984688481367275, 0.9988869421625743, 0.9992824224030427, 0.9995937631523828, 0.9998617268074731, 1.0, 0.9999877920234466, 0.999971565811261, 0.999869596943421, 0.9997500672818849, 0.9994693414327069, 0.9991140794828612, 0.9986710180275153, 0.9981473271002198, 0.9975318122045242, 0.9968479917789262, 0.996069208585222, 0.995224411749121, 0.9943137671675965, 0.9933035470030996, 0.9922130268097867, 0.9909993306799428, 0.9897543955098229, 0.9883622683551186, 0.9869624441313157, 0.9854783996872813, 0.9839211775214981, 0.9822709434242741, 0.9805268576425681, 0.9787186533374153, 0.9768311953297355, 0.9748679115481048, 0.9728244892961703, 0.9707293676209555, 0.9685310104974284, 0.9662593743039531, 0.963947095280246, 0.9615267037299046, 0.9589504931181825, 0.9564021977548846, 0.9537803079992182, 0.9511475934899418, 0.9483742441346703, 0.9455514374228281, 0.9426430889345664, 0.9396702091659289, 0.9366062170133793, 0.9335092988852562, 0.9303566477586234, 0.92713080806344, 0.9238428691457615, 0.920475196111785, 0.9170679397777511, 0.9135644219645374, 0.9100416552108513, 0.9064584629067519, 0.9028691610810936, 0.8991624532671585, 0.8953123555393635, 0.8915109097674164, 0.8876526724459558, 0.8837663774187365, 0.8797959819424191, 0.8757750533114268, 0.8717048505544976, 0.8675866185460391, 0.8634844060377916, 0.8592658646076631, 0.8549646177325564, 0.8506704215230421, 0.8463345207136651, 0.8419088058259041, 0.8374992052568782, 0.8330375460089902, 0.8285489763530849, 0.8240219222710082, 0.819455506862037, 0.8148565103945755, 0.8102998862891768, 0.8056247395693457, 0.800922829381389, 0.7961838821245318, 0.7914323312512784, 0.7865845386006883, 0.7817934488682604, 0.7769756484412464, 0.7722005425578471, 0.7673256959438599, 0.7624007633345132, 0.7574948252017403, 0.7525710274566195, 0.7475567705198284, 0.742610492530997, 0.7376793437932782, 0.7326944833026908, 0.7276970312000874, 0.7226625761722255, 0.7176475395799141, 0.7126990888000463, 0.707656412384033, 0.7026113354996765, 0.6974723432216798, 0.6924367606620468, 0.6874036629046548, 0.6823590289850947, 0.6773132226625334, 0.6723182448623549, 0.6672681658164856, 0.6621502091682967, 0.6571224778185591, 0.6520985500111603, 0.6471686797238483, 0.6421458015112927, 0.637042626054303, 0.6320588831213725, 0.6270845944272241, 0.6221101780379351, 0.6171606441841643, 0.6123117121925051, 0.6073788416703592, 0.6024667989265229, 0.5975035092104318, 0.5926441273829758, 0.5877984519924943, 0.5829782303450678, 0.5781788575995149, 0.5734286451538048, 0.5686711399180641, 0.5638766919017945, 0.5591797359709815, 0.5545068389376261, 0.5498864395354814, 0.545262184576529, 0.5406439126818732, 0.5360823009700224, 0.5315505575880403, 0.5270866722498676, 0.5226130598209383, 0.518202683121078, 0.5137958998602732, 0.5094268014248792, 0.5050353933362158, 0.5007503889955849, 0.4964884980773929, 0.49227680665088364, 0.4881015954597693, 0.4840167251773563, 0.47991041854187705, 0.4758497921989798, 0.4718273056663379, 0.4678476525859689, 0.4639246807275511, 0.460029886151674, 0.45608599332846195, 0.4522922544244343, 0.4485381885888066, 0.44486049124842153, 0.44118409919180485, 0.43750279404770137, 0.4339217860592926, 0.4303832272671235, 0.42688419893665286, 0.4234332539196622, 0.420030338567979, 0.4166681770187935, 0.413351652306129, 0.41007010016129036, 0.40684745829052393, 0.403711578303994, 0.40057638761529574, 0.39749025337953264, 0.39448019649205596, 0.39148851463160467, 0.3884806509352239, 0.38559771945405324, 0.3827607699333216, 0.3800377962014715, 0.37728494685510083, 0.3745085778476987, 0.3718653896116129, 0.3692675700337851, 0.36675472595094394, 0.3642431830732656, 0.36179195005560877, 0.35937455319583655, 0.3570052683358895, 0.35462581118057207, 0.3523588869027654, 0.3501602833061381, 0.3479776960380844, 0.3458402743833866, 0.34374655331026543, 0.3416988929011612, 0.33970910166959567, 0.33774807313005784, 0.3358315090946566, 0.3339688119115538, 0.3321385703589871, 0.3302793012592429, 0.3285449756651917, 0.32684910500162256, 0.3252840950726199, 0.32365347195649774, 0.32200108572397873, 0.32046483230339506, 0.31896663606713915, 0.31750247802037274, 0.3160798535401064, 0.31464842412849137, 0.31330469558880153, 0.3119943424215277, 0.3108182627904115, 0.30956151938899107, 0.30834700207013754, 0.3071657406393562, 0.3060210372963062, 0.30490444598657085, 0.30383066572145323, 0.3026840541678914, 0.30168896396214484, 0.3007192669003054, 0.29982176931286464, 0.29889685955456186, 0.29798986417752094, 0.2971211178624556, 0.29633498755516774, 0.2955104193574855, 0.2947138113329583, 0.2938664873876851, 0.2931324042035186, 0.2924138610755845, 0.291720974243997, 0.29104750651207384, 0.29039550371878103, 0.289759263927109, 0.28917321847361294, 0.28856870944832796, 0.28798301426253886, 0.2873967813757271, 0.2868484288590906, 0.28633865084985405, 0.28581698190286425, 0.28531038280547316, 0.28474896997496024, 0.2842785179360606, 0.28381904611298514, 0.2833650067013668, 0.28291894803541484, 0.28252477692414274, 0.2820877324867433, 0.2816018510222893, 0.28118933129319784, 0.2807808356806005, 0.2804215369420172, 0.28001408852111337, 0.27956386945315137, 0.27917214852389555, 0.2787812641287581, 0.27846220009930567, 0.2780625665344584, 0.2775912003628456, 0.27720675934684985, 0.2768193421629345, 0.2764223900094698, 0.2760285684354183, 0.27569911360990146, 0.27528693086663125, 0.2748731357435316, 0.2744123640702847, 0.2739979312430357, 0.2735690900311825, 0.27314103483063223, 0.2727045050229995, 0.2723132324226414, 0.2718515103631654, 0.2713090547142436, 0.27084210172930373, 0.2703624053835234, 0.26987960863855304, 0.26937252139873447, 0.26882297511752884, 0.26829346831952017, 0.2677486787506709, 0.267273459776152, 0.2666869317585429, 0.2660056511329265, 0.2654068193875917, 0.26479056317566696, 0.2642356146915537, 0.2635742320761082, 0.26281696787504993, 0.2621385052437773, 0.261440525691038, 0.26073780047419226, 0.25999886459216964, 0.25921773535558235, 0.2584439778623159, 0.25764971965924965, 0.25690638820837075, 0.25606204679092487, 0.25512845784946225, 0.2542595116142646, 0.25336869837795284, 0.2524979609217753, 0.25155829687144593, 0.2505426011336778, 0.24957103149612306, 0.24857629959027647, 0.24764358832543007, 0.24659235158936232, 0.24544810464379357, 0.2443700557848307, 0.2432688705539118, 0.24214349865465867, 0.24099672480509862, 0.23985064719859855, 0.23865565629166482, 0.2374395703302384, 0.23621711934046458, 0.23495684370024278, 0.2336491131965169, 0.23235143560306284, 0.2310316884400168, 0.22971098025695288, 0.2283449594480308, 0.22698319682743628, 0.22557332377193975, 0.22414451026310198, 0.22269415975430795, 0.22122742590881753, 0.21971302784088514, 0.2182112265330651, 0.2166885803786954, 0.2151318607653691, 0.21357020022797565, 0.21198790308617496, 0.21038540819187698, 0.20876314513925284, 0.20713262102144606, 0.20547068019050962, 0.20374527081991373, 0.20205361741791414, 0.20034215579336376, 0.19867194006425884, 0.19691530084519113, 0.19512083902115712, 0.19333843639621237, 0.19154057368781668, 0.18971530971847853, 0.1878892177834399, 0.18612202270613729, 0.18425707598961819, 0.1823822604309352, 0.18049007967592015, 0.17859621305397885, 0.17669441458978083, 0.1747795945580214, 0.1728548609280011, 0.17090441931074493, 0.16896257581098853, 0.16700945892069358, 0.16504814472367735, 0.16307764775594472, 0.1610799864241534, 0.1590949502729803, 0.1571443122102512, 0.1551370732007431, 0.1531248688417527, 0.15104641558311258, 0.14903300040896816, 0.14709714541084143, 0.14505901905017854, 0.14301996888292096, 0.14100352692400936, 0.13896011492300453, 0.13690039620091685, 0.13486112603541656, 0.13282206356653156, 0.13073182328178276, 0.12870078345079014, 0.12667679719708758, 0.12464237712768744, 0.12260853507402136, 0.12065235385632563, 0.11861215282522995, 0.11662695804975882, 0.11459468329466849, 0.11257225322900927, 0.1105890180505941, 0.1085820079184799, 0.106604630351945, 0.10461741595282727, 0.10264212880332685, 0.10062812661820908, 0.09868274485891808, 0.09676601223964461, 0.09483654515570177, 0.0929181863990083, 0.09103842619607061, 0.08914006840295959, 0.08733320118272603, 0.08545307585398894, 0.08359175173195059, 0.08178958776664078, 0.0799599794968076, 0.07810164919162152, 0.07631904433111507, 0.07455370566454067, 0.07284288506151718, 0.07110835446955827, 0.06940281178130198, 0.06770803730410574, 0.066034402620043, 0.06445720032784852, 0.06281688256470978, 0.061180390726297884, 0.059594568508808926, 0.05803300823982698, 0.056503184483338645, 0.05498952996534058, 0.053574885658979964, 0.0521022957480779, 0.050659387717870326, 0.04924830712461816, 0.047863605699252375, 0.046522861304215395, 0.04519459314845869, 0.04389876603658223, 0.04263011132037917, 0.04139158248652044, 0.04028549064465849, 0.039094590453889945, 0.03791778921733507, 0.03680163503603932, 0.03571945128385953, 0.03471049095451176, 0.03369086713263167, 0.03267269845465786, 0.03172906211742047, 0.030819012002828734, 0.03003265584372228, 0.02917903356117111, 0.028354881213054243, 0.027580716737033772, 0.026844562822267475, 0.026098234528507465, 0.025443800341598818, 0.02492790520429809, 0.0243309773464706, 0.023775795270390757, 0.02318435935242856, 0.022721364929054393, 0.02231084188839713, 0.02191921998297177, 0.021565899310436565, 0.021354663327313922, 0.021065834061579258, 0.02080976656681622, 0.02061214085547269, 0.020457979588014204, 0.02028054632364929, 0.020221109090961226, 0.020296979695651737, 0.020304346908545167, 0.020357271819359143, 0.02047265358228927, 0.02061355303527636, 0.02077921436320315, 0.021013869873261905, 0.021292531927382136, 0.02157578553984157, 0.021947468187120397, 0.022352400056273758, 0.022809301557845198, 0.023308340107782793, 0.02387086322241856, 0.024452724321174374, 0.02507780045002109, 0.025748861647148055, 0.026464596084233377, 0.027230078105437438, 0.0280349703359388, 0.028936959146156276, 0.029826124732504417