0.03550452163771004, 0.03490507725443363, 0.034334570686762655, 0.0337429886789339, 0.03322428497268748, 0.03271952844672934, 0.03222962010960615, 0.03175073546702106, 0.03120164248322676, 0.030750020496480665, 0.03031439021274755, 0.029865138076005115, 0.029474895781241614, 0.029023083141199196, 0.028576467040240618, 0.0280672306012626, 0.02763807644772793, 0.027281026575624794, 0.026843586178301133, 0.026411137412723714, 0.025893257724426993, 0.025481719720635364, 0.025144718474714403, 0.024723643771706542, 0.024307826372475836, 0.023924863865296724, 0.023516322902173824, 0.023026190781917925, 0.022643037871268794, 0.022261956048344245, 0.02191275073492805, 0.021534324130603508, 0.02109744902970953, 0.0207390817201517, 0.020383609407556746, 0.02005941218105649, 0.019708722603475063, 0.01942291366344143, 0.019078815360565462, 0.018745536545710005, 0.018407668031790333, 0.018097648004402462, 0.01769945214169007, 0.017421312958877878, 0.017147577659823127, 0.01689749065206355, 0.016632824678262614, 0.01645858716536782, 0.01619965298821311, 0.015954132315582296, 0.015729409837419713, 0.015509006184951615, 0.015193198144614761, 0.01501268880879604, 0.014838904548095725, 0.01467106450128358, 0.014513095270911327, 0.014363795992661441, 0.014223726957301713, 0.01409339351131427, 0.013953369633989115, 0.013846346582014, 0.013844010029172533, 0.013745224154555324, 0.013662574495777293, 0.013548294909126537, 0.01350290534079578, 0.013517504035745385, 0.013491455393237551, 0.013481005711652389, 0.013498186006550854, 0.013516820295566688, 0.01352526109882942, 0.013578619280702427, 0.013646018948063195, 0.01367558235210203, 0.013778018909031983, 0.013864452043902705, 0.01399399490503989, 0.014134622721177298, 0.014261047776789286, 0.01442920641817491, 0.014688473343443465, 0.014870483658356169, 0.015069962589928544, 0.015262412303942102, 0.015499861391353526, 0.01574726665673233, 0.016017863101054797, 0.016304633636990442, 0.01656807207828806, 0.016892980509317743, 0.017206567414167283, 0.01756466084184678, 0.01793700475596324, 0.01833954717545451, 0.01874035286934353, 0.019213092935144737, 0.01964103690709946, 0.02008960980989094, 0.020575477050926282, 0.021062734104504287, 0.021493170535851317, 0.022032430370708858, 0.022588092946986604, 0.023232519567340508, 0.023813288016069203, 0.02438520256536366, 0.025013077143928985, 0.025660544972601396, 0.026266512793906488, 0.026961149254610364, 0.02767371705195312, 0.028401530633366055, 0.029146900856414373, 0.03001731790978825, 0.03078550794174797, 0.031468289641286847, 0.03229925079111508, 0.033147668110447885, 0.03412410238810991, 0.03499478362072179, 0.03582144680986348, 0.03674984786039799, 0.03769807396680888, 0.038702920187874065, 0.039686408978093224, 0.04059106777098096, 0.04163129517625523, 0.04268749996291724, 0.04375723298991884, 0.0448475255385694, 0.04602862349996456, 0.04714482873044313, 0.048283296671972606, 0.04943454297770388, 0.05061779199537151, 0.05181427299149167, 0.05304006355866093, 0.054285940986953864, 0.055487554625941043, 0.05678137548059197, 0.058137196731608685, 0.05945783568096465, 0.06079786408836155, 0.06212504489617642, 0.06350754231097133, 0.06497299643434559, 0.06638166653761195, 0.0678113847832159, 0.06914235142416815, 0.07062776207322446, 0.07224538950956234, 0.07374209598796713, 0.07525938946390709, 0.0767232461289418, 0.07828919742355674, 0.07994177207642947, 0.08152819748863237, 0.08313351330139593, 0.08469901654315357, 0.0863477383459804, 0.08799513399137653, 0.08967369520321752, 0.09136527014656469, 0.09309894228053915, 0.09481289923550365, 0.09658120747193617, 0.0983189766520521, 0.10007289224330468, 0.10180558490157436, 0.103594478321946, 0.10540933201818621, 0.10722060012622535, 0.10904427155069125, 0.11082640556645232, 0.11268041982615197, 0.11455942821581024, 0.11642767930571533, 0.118305037038746, 0.12011022736552447, 0.12201537301270957, 0.12402375909104843, 0.1259243506159708, 0.12783496288224191, 0.1296922529962618, 0.13162893873454393, 0.13361766944576026, 0.13555753391025543, 0.1375044542959883, 0.13936915153803414, 0.14133968418984097, 0.14331976372872735, 0.14529002799714877, 0.14726139391749982, 0.14929648126882705, 0.1512618032172861, 0.1531793116804493, 0.15515882662262392, 0.15713811856777526, 0.15913676815959488, 0.16111215873108584, 0.16304919622106478, 0.1650286255344875, 0.16700466471217143, 0.16899081368818603, 0.1709574950440626, 0.17291452260957718, 0.17487441405552825, 0.17682942683709438, 0.17873626354805172, 0.1806854924311019, 0.1826565500199101, 0.18458421119796717, 0.18650441133356077, 0.18844873533567635, 0.19034834046423704, 0.19225135511990651, 0.1941341873060948, 0.1960041061581595, 0.19787000126153056, 0.19972561088680266, 0.20151816459174401, 0.20335748808068832, 0.20519512375783464, 0.20700150864028038, 0.20879259184556453, 0.2106000204472498, 0.21235501350163416, 0.21400634875042565, 0.21574188688190005, 0.21745598354046833, 0.21917462764678095, 0.22084245117916285, 0.22257264588291162, 0.22418918574369612, 0.22578930545250744, 0.2272357724834293, 0.22881698178927554, 0.23047344525097727, 0.2319874221660914, 0.23348016019879447, 0.23492176989481275, 0.23637324548641986, 0.23772757399883307, 0.23913710351418085, 0.2405163208493851, 0.24190658773672424, 0.24322008975722434, 0.24447194248733742, 0.24573323441850028, 0.2469637060004898, 0.24824267918533907, 0.24940079295739817, 0.250493579102057, 0.2516013924922158, 0.2526781214156019, 0.25375534455312104, 0.2547642351959946, 0.2557453114311872, 0.25669129828383064, 0.2576050841014148, 0.25849971903979196, 0.25934525823263604, 0.2601481644666205, 0.26092723629268316, 0.2616709531542965, 0.26227170333550875, 0.2629566172051477, 0.2636337719646926, 0.2642287571978838, 0.2647834783706908, 0.26534529785874555, 0.265813317742104, 0.2662633815289833, 0.2666527013483577, 0.2670043085813814, 0.26726100179324486, 0.26754254472194916, 0.26783043472963347, 0.2680205713267735, 0.2681707810119607, 0.2681949579937301, 0.268274801847509, 0.2683101689961468, 0.2682981363149004, 0.26824078526844763, 0.26814291506998, 0.2679949382002396, 0.267921707489678, 0.2676696168984715, 0.2673797826910732, 0.26700233153938585, 0.2666405066409475, 0.26625711359843685, 0.2658063737259574, 0.26531339292685624, 0.26477475693293473, 0.2641966658098242, 0.26355536313495737, 0.2628929393315086, 0.2621857322267743, 0.2614659046762303, 0.2606652192955866, 0.25986455283512344, 0.2589726714431358, 0.2580400896731917, 0.25706790844235733, 0.2560525293582924, 0.25500007858365803, 0.2539005858203953, 0.25275932829205666, 0.2516235920132076, 0.25039249272199204, 0.24923985101738594, 0.24791490629817298, 0.24655667499583983, 0.2451915789564044, 0.24376016727835514, 0.24220861444884942, 0.24071824927829857, 0.23918716750950034, 0.23772112115792152, 0.23609598664673082, 0.23438794514458916, 0.23270059085115638, 0.23097571689763954, 0.2292746926976778, 0.227467692230015, 0.225631972052343, 0.22375766273929487, 0.2218501877585897, 0.22000748958535887, 0.2180215818954584, 0.21604363162274062, 0.21399836647927298, 0.211927078784087, 0.2098537997749002, 0.20772622423924025, 0.20550893666655556, 0.20333835050952528, 0.20113847095731938, 0.19896802966813304, 0.19670410980873257, 0.19452932833443648, 0.19220330957173135, 0.1898602721444131, 0.1874661240412411, 0.1850921560590005, 0.18269084207007927, 0.18027877441200393, 0.17784734207707703, 0.1754797163429807, 0.17300093353898147, 0.17055984816037753, 0.16804924861566994, 0.16552906201815012, 0.16291971360229884, 0.16039042704502648, 0.1579865784738787, 0.15541322875699187, 0.15283600378029172, 0.15023038217529305, 0.14764850918925657, 0.1450173477368871, 0.14243178979046975, 0.13984005282520912, 0.13733959236709983, 0.13472664786716584, 0.13216066421149353, 0.12954771988889455, 0.12694076758107908, 0.12426052241004529, 0.12167647426983273, 0.11915012624213202, 0.11656563465828518, 0.11398935776684294, 0.11142058112970696, 0.10886343367331361, 0.10639809653953154, 0.10385319412392034, 0.10132561395097502, 0.09884024045016605, 0.0963455630146753, 0.09378243655550564, 0.09134000158772095, 0.08891397238584135, 0.08652870658978085, 0.08413682802932886, 0.08176686205442052, 0.0794200088208232, 0.07709747918037921, 0.07487696265623782, 0.07259707430670065, 0.0703907680499875, 0.06817085118608192, 0.06598685011557665, 0.06379331251872102, 0.06168833551844907, 0.059644281583202896, 0.05760693260136941, 0.05560812846920179, 0.053705361845314645, 0.05177924821627036, 0.04981204246553272, 0.04798642643179312, 0.04620175831366042, 0.04444567452515729, 0.0427488231897512, 0.04111310579793554, 0.03950419157096859, 0.03794338226609699, 0.03651756184891024, 0.03504582788940686, 0.03355113754740016, 0.03220310350792611, 0.03090824415198115, 0.029664765942084854, 0.02848041093305188, 0.027351243065178683, 0.026281723167266565, 0.02536451644345652, 0.024402403124543327, 0.023506844745813736, 0.022675140998607443, 0.02191422125134247, 0.02125306911949417, 0.0206239469910131, 0.020065435074695295, 0.019463202974841068, 0.019061601292948913, 0.01879123621373697, 0.01851371757118483, 0.018308193316834316, 0.01821826363467879, 0.018153641684565406, 0.018159621516771033, 0.018249631709807142, 0.018416891966150317, 0.01856863981667016, 0.018903807292047575, 0.019330981517270692, 0.01981245366606199, 0.020371155661616083, 0.021032555734144722, 0.021745556647081395, 0.022588918799327527, 0.02345920299730649, 0.02441488968366898, 0.025353693051149147, 0.026493717034663074, 0.02770789043071335, 0.029010282129681944, 0.03039462408511867, 0.03188172680797805, 0.033430152159404064, 0.035080994307992615, 0.03679900155800357, 0.03860453968255214, 0.04046271906240961, 0.042448597228380645, 0.04452998011654315, 0.04668783612655468, 0.04893343503233359, 0.05127776729969143, 0.05369830505479628, 0.05624919550588771, 0.05884269354327916, 0.06152766616031762, 0.06429766890041341, 0.06716539630719316, 0.07008813220769171, 0.07314042669584399, 0.07628042758310678, 0.07953568731103904, 0.08284764659046519, 0.08624879957608683, 0.08973882422091405, 0.09331738742907769, 0.0969107316813582, 0.10067460233569404, 0.10455698644295328, 0.10848328099698114, 0.11249519062916244, 0.11658021873491944, 0.1207640772759402, 0.12506406685581722, 0.12941160085481182, 0.13384431837777963, 0.13833404116402248, 0.14293864540336693, 0.14754077936697127, 0.15231883936510743, 0.15717283166037518, 0.1621885164155714, 0.16718375860094586, 0.17215724284656547, 0.17732594384556827, 0.18256774863049838, 0.187865707877647, 0.19325535311393255, 0.19878832181210443, 0.20431144725391656, 0.20990931359918985, 0.21558694137159778, 0.22133020611442789, 0.227042737865272, 0.23294123265849806, 0.23890330013090258, 0.24504018599941593, 0.25111396441763956, 0.2571183973914387, 0.263344569043316, 0.26962811337515713, 0.27597009551672264, 0.2823666782082526, 0.28891226889879723, 0.29540767572333865, 0.30196232670050976, 0.30843072754964246, 0.31511687299230484, 0.3218521152055341, 0.328629421639543, 0.3354517486417137, 0.34230299580468015, 0.3492147719590989, 0.3561618630446214, 0.3631563023851828, 0.37018978483818255, 0.37735602638775784, 0.3844521997736962, 0.3915264670559729, 0.3987100717666056, 0.405926797417741, 0.41311087986301154, 0.4203973471915316, 0.42769793541680373, 0.43503430114102387, 0.4423925850557224, 0.4497746516456008, 0.45717271817531474, 0.464558459696096, 0.47199547361675254, 0.4794460831479124, 0.48697474278096414, 0.4944402215769691, 0.5018393060517558, 0.5093390662150948, 0.5168434210598576, 0.5244091058222101, 0.5319110865090213, 0.539318697046063, 0.5468380455278625, 0.5543513578825241, 0.5619094084242884, 0.5694003094322614, 0.5767969865028798, 0.5842829364528506, 0.591753179927725, 0.5992233455316412, 0.6066563717988059, 0.6140677253457831, 0.6214623333894869, 0.6288349543837933, 0.6361273594651126, 0.6434582008833505, 0.6508506126805145, 0.6581081787229609, 0.6653380526983651, 0.6725181819958618, 0.6796887060614631, 0.6867704746646027, 0.6938753951141549, 0.7009382549861617, 0.7079025248092468, 0.7148837703790013, 0.7218076845376056, 0.7286893899760778, 0.7355186245386107, 0.7422712187021041, 0.7489946578518382, 0.7556558668811315, 0.7622633775588202, 0.768810472441703, 0.7753065452625878, 0.7817274650539563, 0.7881670697546919, 0.7944482069326686, 0.80066698874895, 0.8067921252680862, 0.8128832501766529, 0.8188962640245777, 0.8248456386834031, 0.8307205757499513, 0.8365010620619925, 0.8422244895261735, 0.8477620169971334, 0.8533366114457116, 0.8588220517684515, 0.8642544758440864, 0.8695551699555578, 0.8748004461095426, 0.8799176493796801, 0.8849454399229676, 0.8898869890671118, 0.894731145184837, 0.8994559625146186, 0.9041153446533247, 0.9086771919082557, 0.913097567706325, 0.9174664261607597, 0.9216769682812731, 0.9258455295322051, 0.9299062267736814, 0.9338923538714061, 0.9377319375197626, 0.9415193402357354, 0.9451366757573326, 0.9486482390246589, 0.9520145337764974, 0.9553156602357927, 0.958482312093139, 0.9615624836961989, 0.9645282716311415, 0.9674005150240363, 0.9701331071654284, 0.9726926761029492, 0.9752020630288832, 0.9776484161833077, 0.9799111900687453, 0.982057063649173, 0.9840684995672688, 0.9859806015011144, 0.9876948473728032, 0.9893766499991845, 0.9909333464771672, 0.9924018735457915, 0.9937043602479029, 0.9949394137696356, 0.9959897695322407, 0.9969203643269566, 0.997704597335206, 0.9983972279512164, 0.9989379928957635, 0.999388502172287, 0.9997142490617499, 0.9999245395422646, 1.0, 0.9998644580341072, 0.9997033825091034, 0.9994138022476272, 0.9990088008250311, 0.9984631505634454, 0.9978731202338007, 0.9970669460666078, 0.9961410676419656, 0.9950969318922697, 0.993931276714327, 0.9926107939646455, 0.9912103983097977, 0.9896886712639289, 0.9880797853354921, 0.9863127431687697, 0.9844110884075221, 0.9824109298368291, 0.9802927691173634, 0.9780495500975952, 0.9756981646345171, 0.9732302397928293, 0.9706465457953225, 0.9679478831673779, 0.9650387297152041, 0.9621248344389944, 0.9591849095332234, 0.9560255180706682, 0.952756805844871, 0.9492954892879181, 0.9458213158921853, 0.94220667072057, 0.9385149793212578, 0.9347134664093847, 0.9308207391759639, 0.9268027461951113, 0.9227070527639851, 0.9184798625592029, 0.9141533928514033, 0.9097686548523278, 0.9052423531967669, 0.9005417315125639, 0.8958401325888331, 0.8910427342378545, 0.8862384543031121, 0.8812436308072452, 0.8760789275524969, 0.8709241862552968, 0.8656809762514726, 0.860374025857107, 0.8549563186715213, 0.8494659104184089, 0.8438848405706597, 0.8382255266720439, 0.8325338276487545, 0.8267169595255449, 0.8207249250887694, 0.8147800922881175, 0.8087607593705758, 0.8027302837498451, 0.796560711037008, 0.7902545952942963, 0.7839663529102965, 0.7776125707841516, 0.7713070929176181, 0.7648146601726254, 0.7582158832076296, 0.7516257669743919, 0.7449822681649416, 0.7382382074742507, 0.7314994303543736, 0.7247603192700046, 0.717915744595429, 0.7110275458404272, 0.7041004974891978, 0.6971298309458909, 0.6901652707033782, 0.6831142498480574, 0.6760309837044959, 0.6689077215368836, 0.6617654615917045, 0.6544847727711638, 0.6473014724567824, 0.6400870320655604, 0.6328257042848431, 0.6255590360568545, 0.6183472962203079, 0.6110238900634092, 0.603685302244809, 0.5963194896961499, 0.5889574541645569, 0.5815479528229016, 0.5741708965667794, 0.5667847283511382, 0.5593992315139922, 0.552000236020178, 0.5446355398487551, 0.5372290390275632, 0.5298260607368408, 0.5224603213138643, 0.5150651349474971, 0.5076464552655088, 0.500277199313076, 0.49291898335682477, 0.4855092803914287, 0.4781863844178098, 0.4709356745964544, 0.4636325170248808, 0.4563495759166565, 0.44905784328320475, 0.44182393904511635, 0.43458114339391746, 0.42739956120854833, 0.42024298105626945, 0.4131684520174214, 0.4060608175118205, 0.3988937528249248, 0.3918669989795208, 0.3848715862283632, 0.37792797023428687, 0.37099912933787377, 0.3641866810388969, 0.35732644621526544, 0.3505122881484072, 0.34375738366808284, 0.33703668277021437, 0.330253996330052, 0.32364764218086245, 0.3170865236441096, 0.3106596671769964, 0.30418345212232595, 0.29774122378913376, 0.2913793954434563, 0.28507353885210257, 0.2787344896361892, 0.2725551798546409, 0.2664620517331571, 0.2603885472646928, 0.2543742745326623, 0.24839297000622357, 0.2425043752914413, 0.23675048894446396, 0.2309765120961984, 0.2252704839852553, 0.21965284695279508, 0.21408188517581928, 0.20852661467929323, 0.20310451498703028, 0.19775089119354267, 0.19240543539408878, 0.18719905571563558, 0.18208771055588893, 0.17701408094029047, 0.17201183817647003, 0.1671429566648, 0.16227808389709042, 0.15750094686840616, 0.15278890920235497, 0.1481547685552395, 0.1436001107157555, 0.13912175264158705, 0.13468793394451856, 0.13037027393998768, 0.12612905745197053, 0.12190651184191441, 0.11782652900861379, 0.11389559508434338, 0.10995505679670763, 0.10609414820882862, 0.10220726275987439, 0.09851871833052825, 0.09499080444412865, 0.09143889154895553, 0.08796669936854705, 0.08450828244823275, 0.08120329068605986, 0.07803186170056002, 0.07487071544783838, 0.07178880068301792, 0.06882555975726899, 0.06589610000507584, 0.06290486040757538, 0.06015361028159538, 0.05759583947467712, 0.05497187306438259, 0.052426774572948316, 0.04984664134141862, 0.047471423796857065, 0.04522011212173383, 0.04297909528461711, 0.04081178275001019, 0.0386458700414936, 0.03663374947007003, 0.03478780061520383, 0.03289992828391045, 0.031085824889303514, 0.029347607469476053, 0.027677839551500903, 0.02596297833452366, 0.024449246308166386, 0.02299824992445954, 0.021606929807905458, 0.020281675692956375, 0.01907982770549342, 0.017871008086661786, 0.016727181511163675, 0.015607629182788416, 0.014595939929365028, 0.013634931386909502, 0.01274344158347681, 0.011909891618687985, 0.011124403927268586, 0.010405737795212816, 0.009751415913449376, 0.009141152892941401, 0.008584979109132748, 0.008166072630591041, 0.00770459219801959, 0.007291366484973719, 0.006940957029907316, 0.006642682653828536, 0.006330786830935124, 0.006140382700216053, 0.005991008127840682, 0.005888276259911884, 0.00582764472160382, 0.005828064393098879, 0.005846294089250153, 0.005953796196792108, 0.0060453244589940966, 0.006177575760007796, 0.00626179872671649, 0.006481839923401807, 0.006696415290260698, 0.006982828767277083, 0.007296871479316395, 0.007745047204041765, 0.008099067606271111, 0.008400712198656044, 0.008827220790608752, 0.009277537517231638, 0.009842566462640364, 0.010326273012985072, 0.010837763533546613, 0.011372075288929516, 0.011929369193468072, 0.01248663118842442, 0.013087844199539166, 0.013765836899372911, 0.014392494238448114, 0.015037094223653942, 0.015606154530661718, 0.0162931672787665, 0.01705381152576561, 0.017747476905204798, 0.018451136010559192, 0.01913437509973978, 0.019857671668752404, 0.02066185598884085, 0.021383310365752632, 0.02211146159715425, 0.02281104821013061, 0.02355208523947547, 0.024356030052926626, 0.02508842249917453, 0.02582232508480857, 0.02647817027725908, 0.027220340511313536, 0.028008726455346196, 0.02872880258273923, 0.029443161502321617, 0.030253126229817896, 0.030939699357521087, 0.031581707963551725, 0.03226512240035193, 0.0329394113671464, 0.03360486550965637, 0.03425706927139786, 0.03497779592241372, 0.035593636325619994, 0.0361994647311359, 0.0367264083290467, 0.03731611670918669, 0.03801921300190201, 0.03855533178926341, 0.03907937068150359, 0.039548365471155096, 0.04004861507721436, 0.04053909802596287, 0.04099939965697261, 0.04143954876085111, 0.04195354388543195, 0.042338998736134024, 0.042661483544184906, 0.043017182652895426, 0.043350607538529866, 0.04374209353194414, 0.044018630206436433, 0.04430456165364081, 0.04453693938681464, 0.04474911182898502, 0.0450301939640216, 0.04518733195116087, 0.04528051022366234, 0.04540584782143984, 0.04550783819987156, 0.045643899771932304, 0.04568986696247217, 0.045764461740014015, 0.045759514385359294, 0.045734006910779085, 0.045624256211612306, 0.0455627933970496, 0.04553904333795933, 0.04541639783058511, 0.04527086396080631, 0.045141790206765335, 0.04494431688145964, 0.04470232683424894, 0.044464175740652555, 0.044202429972732764, 0.04391402155938564, 0.04360552269846658, 0.04331933563214893, 0.042958118747217534, 0.04257640826251301, 0.0422108671882406, 0.041783489431024654, 0.04142498602790631, 0.040949888191039334, 0.040461297070729034, 0.039880615500212664, 0.03937327972872687, 0.0388896027871093, 0.03833901893103618, 0.037772713476392494, 0.037313282665120705, 0.03670087633048457, 0.0360331720165862, 0.03541047117105439, 0.03477637235584537, 0.03408061624479187, 0.033430837265394926, 0.03289316524899684, 0.03220180983761028, 0.031505990494912095, 0.030759749929001393, 0.030060721988176473, 0.029412962407844332, 0.028693569006094537, 0.02797200888376225, 0.027184371152774358, 0.026467676429966027, 0.02586424907208635, 0.025124791675231226, 0.02438970053985773, 0.02360870034004152, 0.02288943365432752, 0.02217570696150987, 0.02146195382379257, 0.020752768627127487, 0.02010266777950955, 0.019398844727603344, 0.018687297670271306, 0.018007697595929507, 0.01733906109050566, 0.016627263888736164, 0.015990360629132304, 0.015404017232178204, 0.014785162002488812, 0.014182276774340582, 0.013541414720807223, 0.012980781732971416, 0.012483818516666113, 0.011951299033048077, 0.011440835961788435, 0.010987197901641434, 0.010519965915516395, 0.0101075948246446, 0.009692415631046935, 0.009307891539116772, 0.008884389453952066, 0.008572286449681794, 0.008283094127809216, 0.008031256081711242, 0.007800234723277182, 0.0076142170679831065, 0.007461929655304225, 0.0074182246099080565, 0.007328395832817577, 0.007318853598495296, 0.007309029016813603, 0.007344914037787246, 0.007359719174104995, 0.007497114478419282, 0.007653684232557402, 0.007882691678604049, 0.00815640614686963, 0.008444093157170453, 0.008815386895672288, 0.00927183714443519, 0.009733652427652732, 0.010247491552821106, 0.010796072539443001, 0.011419470309676036, 0.012142890493712994, 0.012869920099615668, 0.01365593136435202, 0.014460337884015479, 0.015371666961859468, 0.016340281910176484, 0.017370496994830002, 0.018461526730642313, 0.019640369325936487, 0.020852698509600857, 0.022177598103701786, 0.02351493261025007, 0.024921445047537724, 0.026406598546590426, 0.027951204467034255, 0.029442588519586057, 0.031144487116284793, 0.032910740453476736, 0.03486811855157186, 0.03675119547435225, 0.038675788322447155, 0.040713504795905804, 0.04282465581188513, 0.04495764682611302, 0.04722345264665275, 0.049590031495170654, 0.051996392190236634, 0.0544776353465421, 0.05702043905513624, 0.05965448723904992, 0.06240212304452694, 0.06518250887018041, 0.0680412849396717, 0.07087605664746574, 0.07390479455131493, 0.07706603631252648, 0.08023383016469741, 0.08347948388736146, 0.08672671463006666, 0.09013828185623474, 0.09369574935599409, 0.09724695453373912, 0.10087748121017116, 0.10450922646690396, 0.10830792430558935, 0.1121261228444756, 0.1160813485655521, 0.1201088344624016, 0.12428879897226734, 0.12845267220968387, 0.13263373703063305, 0.1369617305135612, 0.14136392339100798, 0.14580062545192093, 0.15035637546434066, 0.15498710377435376, 0.1596864413580829, 0.16445802700487447, 0.16927269405125894, 0.17419203281306708, 0.17919362709200218, 0.18425132546629197, 0.18937936043956444, 0.1946507148572083, 0.19990878033417334, 0.20517556405309909, 0.2105864338453704, 0.21606421808185078, 0.22163423535175555, 0.22724046221304364, 0.23292509347250465, 0.23866106814906687, 0.24446179339327706, 0.2502924438551659, 0.2562233837064749, 0.2621493968467787, 0.2682061464431348, 0.2743166984790031, 0.2805004389066391, 0.2867144902274862, 0.29292508286612506, 0.29925160778933335, 0.3056261453400564, 0.3120266816362662, 0.31849803660687803, 0.32510431462725287, 0.3316529072308752, 0.3382496898230227, 0.34487924438963596, 0.35156919085864513, 0.3582954866080274, 0.3650696050778291, 0.371882763211489, 0.3786218015734193, 0.38552259903730013, 0.3924301648529899, 0.3993893595561586, 0.4063740638271454, 0.41342941654296556, 0.4204569808037913, 0.42744885194165655, 0.4345336572278575, 0.4416375419604782, 0.44884967860571157, 0.4559770237854847, 0.46303173699970723, 0.47021013983977694, 0.47739986016715463, 0.4846669104214742, 0.49186683325405667, 0.49897071728458925, 0.5062041796002094, 0.5134385899714221, 0.5207492619416719, 0.5279723311612297, 0.5351005336017882, 0.5423367224638491, 0.5495649257093546, 0.5567548361912003, 0.5639669076644108, 0.5712173583528544, 0.5783943580197363, 0.5855580522029767, 0.5927234173744791, 0.5998528120545222, 0.6068556586759919, 0.6139608298969286, 0.6210378861627884, 0.6281896793608948, 0.6351938117359588, 0.642035814317752, 0.6490028803768036, 0.6559318248791207, 0.6629408509812181, 0.669775092766762, 0.6764902186832441, 0.6832627738898162, 0.6899910071312475, 0.6966963045628274, 0.7033282883817027, 0.7098359886751069, 0.7163801739298341, 0.722868571498196, 0.7294024270872062, 0.7357625472249155, 0.741932633400605, 0.7481998955292878, 0.7544011873896643, 0.7605507716456736, 0.766615010345873, 0.7726628001704849, 0.7785821907345809, 0.7844332606510789, 0.7902401459327802, 0.7959457220293562, 0.801554455270327, 0.8071163905131067, 0.8126006544116511, 0.8179673256919751, 0.823296049675053, 0.828581272475053, 0.8337338873068425, 0.8388014195668085, 0.8437837538689625, 0.8486760326869122, 0.8534601453481132, 0.858173578046943, 0.8627931267689656, 0.8672410067438938, 0.8716785334173148, 0.8759604729911616, 0.8802000153441659, 0.8843331683680115, 0.888481979869809, 0.8923858788779189, 0.8961615525639943, 0.899866017918586, 0.9034652635450338, 0.9068694124407526, 0.910265954854715, 0.9135794765854255, 0.9167445793152014, 0.9197970282829739, 0.9226948326663406, 0.9255251000324762, 0.9283377074435725, 0.9309208963565765, 0.9333750048203612, 0.9357345841133179, 0.9379785974282024, 0.939999056565497, 0.942022743043683, 0.9440017665907839, 0.9457671119002371, 0.9474128729923104, 0.9488925303973655, 0.9503030568464796, 0.9515575269133734, 0.9527241000905841, 0.9537646567220862, 0.9547894364252792, 0.9555643778818754, 0.9561754272272727, 0.9567160795044706, 0.9571331694757802, 0.9573606713148328, 0.9575382164003818, 0.9576123391486848, 0.9575314144226026, 0.9573247710145807, 0.95698035458929, 0.9565243801402495, 0.9560160069757169, 0.9552994660907498, 0.9544619191322914, 0.9533945502358139, 0.952328127756621, 0.9511448932933809, 0.9498229826525294, 0.9483759256895309, 0.9468778928217101, 0.9451735295384559, 0.9433075737994018, 0.9413712458252528, 0.9393141409528514, 0.9371415024664216, 0.9348442568370741, 0.9324514830996843, 0.9299151032278133, 0.9272629864764934, 0.9243993705170401, 0.9215297919232981, 0.9185731287977625, 0.9154626159538389, 0.9122377202519689, 0.9088659846644271, 0.9054201485285274, 0.9018814996194516, 0.898209231640443, 0.8944283045854847, 0.8906225761381558, 0.8866177035387262, 0.882430048762136, 0.8782358624604172, 0.8739382066250015, 0.8695140908506876, 0.8650170311168452, 0.8604929854038499, 0.8557875348679592, 0.8509891632900412, 0.8461096443674486, 0.8411273453714854, 0.8359643555533997, 0.8308169714151737, 0.82557790491227, 0.8202338885848196, 0.8148194355160209, 0.8093444202970561, 0.8037556137314628, 0.7980857839575438, 0.7923657713380159, 0.7865355654620431, 0.780574724762462, 0.77460513290433, 0.7685614567532063, 0.7625436510716137, 0.7563456218455508, 0.7500989101934054, 0.7437754664412172, 0.7373928711501473, 0.7309049811479456, 0.7244139667276743, 0.7177933068728122, 0.7111977337414727, 0.704544136906277, 0.6979466504419389, 0.6911702931665146, 0.6842454713783918, 0.677394767276665, 0.670496696797885, 0.6635628369352967, 0.656576027912956, 0.6496151970247782, 0.6425426987403534, 0.6354384773150393, 0.6282078019930186, 0.6210572278955112, 0.6139525188997419, 0.6067303303766466, 0.5994853554263119, 0.5921903037288494, 0.5849087602820299, 0.5775867646509826, 0.5702719152142907, 0.5629409463202016, 0.5555333668144893, 0.5481846977733468, 0.5408458765213053, 0.5334707441199513, 0.5260889635946417, 0.5187915077348776, 0.511391963805125, 0.5039713983261613, 0.496586508049264, 0.48920800346323606, 0.48174735710397515, 0.47439816674068996, 0.46707839110195126, 0.45974170412403753, 0.45241760535723435, 0.4451097301832015, 0.4378168814428105, 0.43052146337539693, 0.42327095707143436, 0.4160419516179575, 0.4088380198827134, 0.40165789535096347, 0.3945435537211264, 0.38741555926329757, 0.3803209509895954, 0.3732030844319224, 0.36618701345917526, 0.3593171237166636, 0.35235793253161246, 0.34544333183482023, 0.3384641086219647, 0.3316553796823878, 0.3249812238203474, 0.3182451872395299, 0.3115594495949233, 0.30483327866084436, 0.2982628641641084, 0.29173923771212507, 0.2852674824892778, 0.2788475401360904, 0.2725728620723382, 0.26624993055142115, 0.2598756316696296, 0.25369137073367043, 0.24756408244973885, 0.24149700217350695, 0.23548848916724016, 0.22960152216162746, 0.22371069356321158, 0.21788789152043272, 0.2121767407350662, 0.20648697320592457, 0.2008027198767994, 0.19526750506556753, 0.1898022061859946, 0.18440631436555727, 0.1790840528045398, 0.1737993593341033, 0.16862792284749722, 0.1635289863309657, 0.15851127488562744, 0.153559525772517, 0.1486515873202418, 0.14385654571833134, 0.13913715004477406, 0.13450962534191058, 0.1299422937791714, 0.12554882798020453, 0.12112815585241542, 0.11679291990542919, 0.11250457769865235, 0.1083441708018325, 0.10419743360582126, 0.10021082568004337, 0.09630305577835474, 0.09245793412442502, 0.08871178226828637, 0.08514764233647086, 0.08154814283055639, 0.07803489875500894, 0.07450344164270244, 0.07117447711148822, 0.06792918311005172, 0.06475822945775071, 0.061667375070722015, 0.05863082885518356, 0.05570400990532499, 0.05290211346172486, 0.05012777419787606, 0.047435361614988625, 0.04485206403932875, 0.04231896927584115, 0.03989117037905258, 0.037519230232320844, 0.035189857806874954, 0.03298676671975519, 0.03086210694090636, 0.028810797521459628, 0.02684207271782247, 0.02495454355939597, 0.02313791055922854, 0.021397024240982807, 0.019728182129301705, 0.018137219035002334, 0.016598410877994095, 0.015156592802979199, 0.013785720809258677, 0.012460746017975132, 0.011233077503971584, 0.010143459318648127, 0.009041774020762772, 0.008010637687082598, 0.006970845120778769, 0.006087068023132733, 0.005324006232622469, 0.004557534570971546, 0.0038557683874519267, 0.00323744587627973, 0.0026591425887444262, 0.002138633815957213, 0.0016843644182122678, 0.0012896125404569107, 0.0008583085791893969, 0.0005908484657082201, 0.0004411558813956512, 0.0002656630822824065, 0.0001433852107018059, 4.866184148349927e-05, 3.232792593514196e-05, 0.0, 8.72467890971883e-05, 0.00021704875364487135, 0.0005020099515636496, 0.0007008032231852698, 0.0008501652567920738, 0.0011532509205382877, 0.001494428255349902, 0.001871293605466098, 0.0022861653211814236, 0.002719423665891483, 0.0032058191505164764, 0.0037243884617581737, 0.004368981929089651, 0.004936938289104865, 0.005461320703892026, 0.006106116905083032, 0.006777271526943084, 0.007519531826440242, 0.008234168666205058, 0.008948252857234683, 0.009715494024377895, 0.010503595599480019, 0.01129136018096825, 0.012119749846239994, 0.013092406621270435, 0.013934990834438334, 0.014798254251626473, 0.015707507638100686, 0.016602109996160484, 0.017474386996394142, 0.018403526222367645, 0.01934231207630864, 0.020279982101462216, 0.021234522688016223, 0.0222089037189338, 0.02316925428589919, 0.02413234826558168, 0.025165607946958497, 0.026121330294928618, 0.02708876891710152, 0.02804658709164416, 0.029003919060966304, 0.029989658684725407, 0.03093716531293013, 0.03184439776304719, 0.03278773635850911, 0.0337222063640647, 0.03467263001470732, 0.03558259222704736, 0.03650469884179279, 0.0373889183452673, 0.03826119635668227, 0.03919516559647468, 0.040030237839325494, 0.04078658192297654, 0.04160559790985446, 0.042406144412762484, 0.04321179299633159, 0.04396965367491152, 0.04473385024463678, 0.04544812234509464, 0.04614230296344706, 0.04693003043568511, 0.04756639956739312, 0.04821060788474864, 0.04880884441879528, 0.0493884462379884, 0.04997377524457788, 0.050508075633065315, 0.05108960335925555, 0.05157062713740715, 0.052031306239959704, 0.05247917525244564, 0.0528932748127053, 0.05324189363739225, 0.05361165882771742, 0.05395270975970389, 0.05436543122603885, 0.05463470728065514, 0.054832101330557347, 0.0550572964601344, 0.05525325456552177, 0.055517416706689665, 0.05564128843577033, 0.055725052592925324, 0.05580024164633911, 0.05584794276529558, 0.05585230548986267, 0.055845413459208425, 0.05590979022161816, 0.055830679339068615, 0.055727410897010304, 0.055547200808358684, 0.055400000081706494, 0.055350778529812406, 0.05512967537841311, 0.054886945150405105, 0.05459423873398071, 0.05430945827293101, 0.05401181147924378, 0.05367517874301635, 0.05331403426205635, 0.05301402901409015, 0.05259314402828203, 0.05213297414023022, 0.05167538586312641, 0.051196614459475306, 0.05075635811609335, 0.05022794267828191, 0.04967145951883803, 0.04910954558187445, 0.04852955259327495, 0.047979117186890456, 0.04735774985797106, 0.04665005732768147, 0.046009017372114075, 0.04534987188330301, 0.04467355563847592, 0.04398103057285692, 0.04332222384599949, 0.0425940725930219, 0.04185547910835947, 0.04108568175552514, 0.040330925336940195, 0.03960795500720367, 0.03882995731183078, 0.03804678638362011, 0.0372453900610395, 0.03645581252240182, 0.035645782857277396, 0.03485206624454373, 0.03405579033425644, 0.033348376442892694, 0.03253914000536469, 0.031742110364233585, 0.03094476413827443, 0.030154918011239054, 0.029296721764851687, 0.02853349014714521, 0.02790251449268949, 0.02713532697425915, 0.026383492925950637, 0.025650487435172134, 0.024930336480454483, 0.024130937225152447, 0.023457877926012637, 0.022798000304770326, 0.022201880230937356, 0.02156705325521957, 0.02090097371807885, 0.020315375544017848, 0.019749949172113465, 0.01921396382681275, 0.018692746426326817, 0.0182351312095914, 0.01776127774474199, 0.017317845591308514, 0.016899834486915396, 0.01652139020961063, 0.016269726231331008, 0.015947676049242836, 0.015666788900665193, 0.015416836965769117, 0.01522115955994802, 0.01497293195962328, 0.014874610643891768, 0.014925054702720998, 0.014891792479033304, 0.014906678418623656, 0.014874058865107261, 0.014999584263063019, 0.01516706944320504, 0.015384656824231608, 0.015650311120420236, 0.01601758585543171, 0.016377406755174986, 0.01673612872343862, 0.01721506734712937, 0.01774829440907806, 0.018430553099933914, 0.01906485331231418, 0.01975674496384108, 0.020519779644913794, 0.02134731214016568, 0.022217079399666995, 0.02317856978859929, 0.02420385213964918, 0.025297107868318215, 0.0264574475818996, 0.027627673214601845, 0.02893227241782159, 0.03027128724555909, 0.03171434963195567, 0.03322473657643801, 0.03479471432362743, 0.036445137354717334, 0.038184753667150524, 0.039975769252720374, 0.04184102836207297, 0.04380285079760123, 0.04581655262788256, 0.04786694936480412, 0.0500424122976399, 0.05229463992339543, 0.05463211202587035, 0.057039329156224616, 0.05951379372752367, 0.06208209340264447, 0.06473027741479064, 0.06753385412633826, 0.07033397405442894, 0.07321971191089809, 0.07619086500342186, 0.07924725528969809, 0.08239484214698234, 0.08562047376340448, 0.08882266419419578, 0.09223214453318514, 0.09572033677519523, 0.09934606997365177, 0.10298636492278447, 0.10662786503217402, 0.11044613207913556, 0.11434341382768233, 0.11830955109840262, 0.12236774308497293, 0.12655459945110137, 0.13076636713291678, 0.13506113749815593, 0.13944628533644754, 0.14390523829896934, 0.1484711608871102, 0.15309157070591956, 0.15779493044698772, 0.16252548152835505, 0.16739959970828336, 0.1723178183483165, 0.17735141065144047, 0.18246024654667445, 0.18770842948686536, 0.19295914341284814, 0.19826662901762349, 0.20367551122519112, 0.20915955285029714, 0.21463082073098647, 0.2202738981104036, 0.2259863966444313, 0.23176490444318887, 0.23761095026165147, 0.2434935425671221, 0.24947722062184954, 0.2555848606726047, 0.26168918782311457, 0.26786018826757835, 0.27409061321721157, 0.28039230614016286, 0.28669871700806515, 0.29313224926248294, 0.2996229592724119, 0.3062220637788755, 0.3128181144612201, 0.319361529735658, 0.32608501573180587, 0.3328568805622181, 0.33966122483291605, 0.34652983672398074, 0.353430014041137, 0.3603901907380378, 0.36739314004133494, 0.3745205083873587, 0.381595627948946, 0.38870737035849157, 0.3958700976798354, 0.403072870173462, 0.41019303078110864, 0.41748566263414044, 0.42486109664142757, 0.4322013714286837, 0.43957058828360546, 0.4468769454811357, 0.45431070676138363, 0.46185679716244704, 0.4693158571582182, 0.4767971107193896, 0.4841961216916038, 0.4917288117559285, 0.49932554877808316, 0.5068713380524416, 0.5144282049723139, 0.5219086983718368, 0.5294931026428662, 0.5370690894228113, 0.5446549638898439, 0.5522385570351362, 0.5598445273674454, 0.5674161494452935, 0.5749398219509363, 0.5825047963557137, 0.5900585792235095, 0.5975751553916948, 0.6051049409929287, 0.6126234310437983, 0.6201160709833051, 0.627588474704734, 0.6350358479021809, 0.6424629081589923, 0.6498535012104647, 0.6572285479010745, 0.6645735081820057, 0.6718942058869569, 0.679172521739096, 0.6864140817877763, 0.6936201650270807, 0.7007869779260474, 0.7079706575027147, 0.7150456336305264, 0.7219654676965094, 0.7289683649872243, 0.735918090409675, 0.7428025069114923, 0.7496428891507103, 0.7564984465094602, 0.7632115739405512, 0.7698675381955528, 0.7764626329911195, 0.782997973775768, 0.7894237719769247, 0.7958355462982079, 0.8021770267062649, 0.8084313114040929, 0.8146293032730391, 0.8206687011501984, 0.8267236154292117, 0.8326948560007381, 0.8385846086994916, 0.8443854057961933, 0.8501074697224519, 0.8557334054195131, 0.8612710673414182, 0.8667451597732233, 0.8720990699493162, 0.8773484313219037, 0.8825209395731353, 0.8875987578949296, 0.8926095140500769, 0.8974899915871416, 0.9022914924256666, 0.9069733551418819, 0.9115556933208073, 0.9160123440955678, 0.9203937134612534, 0.924615766008872, 0.9287910161761953, 0.9328548826319772, 0.9368172552837718, 0.9406545335466855, 0.94432041137235, 0.947937529039667, 0.9514362229240494, 0.9548037991397447, 0.9580657721642064, 0.9612239574727666, 0.9642421119639699, 0.9671396282833669, 0.9698929023692764, 0.9725500525538224, 0.9750542291493393, 0.9774667539867128, 0.9797527817648432, 0.9819961764381148, 0.9840177844486148, 0.985834187429931, 0.9876200091428048, 0.9892751355226498, 0.9908026364695103, 0.992200509566511, 0.99345633235209, 0.9945959333302532, 0.9956275987713487, 0.9965024658202916, 0.997247583479334, 0.9979284564430123, 0.998405012479559, 0.9987731814945068, 0.9989932507962296, 0.9990863404008499, 0.9989478170154343, 0.9987983074274058, 0.9986153486054259, 0.998184812143683, 0.9976265731461457, 0.9969066743072922, 0.9960964536681134, 0.9951774174525208, 0.9941042785951978, 0.9929026522378064, 0.9914748278425114, 0.9900291870557831, 0.9885328736504172, 0.9868114261387368, 0.9849636299914107, 0.9828767347760643, 0.9807918871712884, 0.9786384952654157, 0.9762847225060132, 0.9738061648355479, 0.971134885484767, 0.9684181389266745, 0.9656136986823489, 0.9626417609756565, 0.9595489969362624, 0.956385458503577, 0.9530481940000761, 0.949620679152744, 0.9460516281795335, 0.9423707928263373, 0.9385620284689735, 0.9346618716589272, 0.9305442095990755, 0.926437745565743, 0.9222169780442078, 0.9179848603976433, 0.9135287010581679, 0.9089361247398334, 0.904279728489239, 0.8995208360824407, 0.894615010037974, 0.8896612851180647, 0.8846558369510525, 0.8794964813545367, 0.8742429588051402, 0.8689028412659254, 0.8634646100655198, 0.8579431420749035, 0.8523269375854908, 0.846624778608585, 0.8407617295361499, 0.834901975929329, 0.8290377599793584, 0.8229989808511711, 0.8168837193469944, 0.8105910412399949, 0.8043404293904066, 0.7980092790633283, 0.7916065923192722, 0.785131186852262, 0.7786909960948427, 0.7720639708113933, 0.7653710949770084, 0.7586267964697337, 0.7518253306424273, 0.7449315956659043, 0.738025301852704, 0.730983690133823, 0.7239811730924558, 0.716923944037376, 0.7099125908012204, 0.7027416014766267, 0.6954941107489852, 0.6882466298265179, 0.680959312983693, 0.6735592922003025, 0.666207997271594, 0.6588188770155907, 0.6513946037290498, 0.6439377736312523, 0.6365380905314125, 0.6290126444398629, 0.6214807003923024, 0.6139146463326907, 0.6063324586705149, 0.5986638801776445, 0.5910634357005388, 0.5835120685357468, 0.575875514155966, 0.5682320230950106, 0.5605955666438561, 0.552941893625731, 0.5452627952049823, 0.537612023591354, 0.5299623892248787, 0.5223128050566723, 0.5146717453894493, 0.5070069711945929, 0.4993855123677506, 0.4917731729288777, 0.48419204683690353, 0.4766020250353902, 0.4689308664501796, 0.46138864225876397, 0.45386151392107893, 0.44637510422443893, 0.4388831955351884, 0.4315025517221154, 0.42404997266536176, 0.41663065657287424, 0.40923065218866433, 0.40188385208195665, 0.3944695636011329, 0.3872104707506764, 0.37998512080954905, 0.37286164405945327, 0.36570245221512515, 0.3585094705781067, 0.35145009292468343, 0.3444335892872343, 0.3374437206436078, 0.33052152645013116, 0.32365181095753814, 0.31682679741302155, 0.31005379205890177, 0.30340336980921545, 0.296730852495121, 0.29012992945976607, 0.2835788079028426, 0.27709112411396486, 0.2706448276620147, 0.26428960126318685, 0.2579426327409972, 0.2517253452773309, 0.24557188814239844, 0.23945317163809723, 0.2334356566141976, 0.22760533456880258, 0.22170679647091182, 0.2158843397058675, 0.21004043602188457, 0.20438361510943898, 0.19887501395754761, 0.1933532508033525, 0.18790990512628672, 0.18253014186228883, 0.17724694760989781, 0.1720136439388031, 0.16689261058825566, 0.16185005192684337, 0.15681180703953462, 0.15193796182762087, 0.14722927779235376, 0.14249835917628118, 0.1378512155700503, 0.13327589509555415, 0.12879868173257866, 0.124347236805663, 0.12004547004308723, 0.11582494671388974, 0.11175980510986194, 0.10769457530542975, 0.10363097407863858, 0.09975100418962098, 0.09595326037699109, 0.09226583271206865, 0.08863064938146056, 0.08513570527815308, 0.08166400000565927, 0.07828067419882168, 0.07491032821493857, 0.07171187147881705, 0.06857024000159573, 0.0655408848004173, 0.06259314817242004, 0.059815963475570604, 0.057020838975613435, 0.05423778355432695, 0.05162541223878109, 0.04909437410930962, 0.04662925902912376, 0.04426240501411603, 0.04203359590082425, 0.03981906391744777, 0.037687281063050214, 0.03567110549472068, 0.03369819627534041, 0.03169130973360263, 0.02989653721709792, 0.028250314390194924, 0.026593188158419174, 0.025013586217551828, 0.023476972989833526, 0.022053998355131266, 0.0207513753370558, 0.019467635888616632, 0.018258151843902965, 0.017080510007719877, 0.016021407647522468, 0.014992669434167428, 0.01407482734008603, 0.01322185236131959, 0.012497435368231781, 0.01176436577291895, 0.011006154321724445, 0.010416666888376667, 0.009886126282007714, 0.009412484676704727, 0.008998386912561248, 0.008737688725239253, 0.008424751575218927, 0.008172699509753118, 0.007966111964363042, 0.007832642154318475, 0.007682548725697196, 0.007667245222894158, 0.0077003007358549674, 0.007760996762246131, 0.007890714202712477, 0.008133810953671487, 0.008343093772788293, 0.008599040469599013, 0.008923069840607683, 0.009264891992774645, 0.009596613987233731, 0.010030398349367838, 0.010501313720626874, 0.011069368644936399, 0.011603282829302735, 0.012184892649856179, 0.012789707504822015, 0.013428706567925169, 0.014012986322454613, 0.014726241980222723, 0.01549433332201788, 0.01625131887659164, 0.017032422020259133