0.03655078409861663, 0.03613020591847533, 0.0357351093922454, 0.03544117147801609, 0.03507655550074365, 0.03473522676063139, 0.0344079088826271, 0.034095461728716095, 0.033780934028875685, 0.03349363385704419, 0.03315288172334749, 0.03288862245696637, 0.032626898953199916, 0.03231893129656412, 0.03206759284999493, 0.03185219020537758, 0.031595022909047615, 0.03133992104561084, 0.031123735391926352, 0.03086856570789996, 0.03064743433574002, 0.030397838944986363, 0.03015454578246028, 0.029923276967689174, 0.029691462585689467, 0.029350005292689628, 0.029145641287838284, 0.02894120462830452, 0.028714223402707927, 0.028515620698009787, 0.028416892023813325, 0.028209776826353956, 0.02801156102932848, 0.027719471008711458, 0.027552201269911526, 0.02736622127554897, 0.02720930929065427, 0.02705625229161267, 0.02694764451539138, 0.026799999080772307, 0.026640404608372886, 0.026512944186276727, 0.026393626587801672, 0.026278508009697644, 0.026177374871478372, 0.026097142122442345, 0.02601319776600324, 0.025939774431229076, 0.025938771229285423, 0.025879204140103425, 0.02584889103495713, 0.02581627091872847, 0.02579843666136583, 0.025706914585358197, 0.02572881270893503, 0.02580961924315966, 0.02584366490327666, 0.02589048378091269, 0.02588548809578041, 0.025966155736008224, 0.026119287888815526, 0.026211184773982172, 0.026317083270840896, 0.02635913313754077, 0.026502884548634753, 0.0267062557580916, 0.026863736062976356, 0.027035000861533116, 0.027267215709526924, 0.027460601875473358, 0.027585719323422218, 0.027823509979379775, 0.028073073367898337, 0.02841282528836688, 0.028677758310484445, 0.028831162601781004, 0.029147710649374763, 0.02947442276073888, 0.029804903999669424, 0.030155627484020817, 0.030511338050171928, 0.030888409160415305, 0.03127883810600599, 0.0317978634034682, 0.03220247558876516, 0.03252294752078075, 0.032983725035014254, 0.03345938544563102, 0.03403566359831999, 0.034531904127838436, 0.03498173326207179, 0.03552854450838676, 0.03609221038451038, 0.036662806898996196, 0.03726252641445869, 0.03796617290830409, 0.03858983760061052, 0.039236332837113266, 0.0398494548783183, 0.04054755969489707, 0.041290809467030364, 0.0420232110102537, 0.04277624388330392, 0.04344561665531078, 0.04425309018654777, 0.04511942900471118, 0.045951807677951734, 0.04680311292504304, 0.047744186074877064, 0.048625416490655334, 0.049514295980471267, 0.050444862351213704, 0.05139773620982954, 0.05226706183749733, 0.05327763081165963, 0.054408600948206765, 0.055439017022350205, 0.056492904828728374, 0.05750835705244225, 0.05861635961986239, 0.059711480597902385, 0.06086278033843104, 0.06203235107435426, 0.0632912183556408, 0.06448991992072452, 0.06573278298036972, 0.06697584989650926, 0.06824322412692271, 0.0695213241362534, 0.07083793162634264, 0.07214186654843605, 0.07350792386689307, 0.07489426441000206, 0.0762393382035569, 0.0776744332566923, 0.07910318217208429, 0.08057611190460907, 0.08206590115925219, 0.08363628831878257, 0.08515345928454308, 0.08672040991219827, 0.0882776144182674, 0.08985788374460774, 0.09137707580137235, 0.09301281715418927, 0.09466719094649917, 0.09633738236124263, 0.09802536782283747, 0.09974306253731356, 0.1014655896733997, 0.10320837223762258, 0.10496820549441019, 0.1067467149881169, 0.10852612491208104, 0.11034374078191035, 0.11217264932040125, 0.11402527072663358, 0.11589454903139694, 0.11787879963933272, 0.11976863556324932, 0.12157745674856238, 0.12352291375902781, 0.12548251553816017, 0.12749884155184577, 0.12948125748938424, 0.13155641135685528, 0.13356141489684067, 0.13558611967712186, 0.13757804455752148, 0.13964551385615898, 0.14164309923873267, 0.14374839175537063, 0.14586195937816124, 0.14803399254839056, 0.15015847327806364, 0.15237387294916663, 0.15451117012843557, 0.1566637846190487, 0.15876606962327974, 0.1609544993106415, 0.163194357096781, 0.16539475723467292, 0.16760574553496685, 0.16972676381237903, 0.1719695427911804, 0.17425793995313973, 0.17650157864177546, 0.1787010085973377, 0.18096212253241423, 0.1832255414432805, 0.18561469768891165, 0.18786721996858774, 0.19010542854340937, 0.1923781651436897, 0.1946565785518528, 0.19687082750790857, 0.19916693049204032, 0.20147719401423164, 0.2037702202516465, 0.2060631675085195, 0.20830131985514228, 0.21059984357220599, 0.21294105679835823, 0.21522501468950128, 0.2175072261096819, 0.21973136112489206, 0.22201557518822398, 0.22435648248752044, 0.2266196801958308, 0.22887968916395507, 0.23106527499825763, 0.23332563230804343, 0.2356780219809546, 0.2379068011335519, 0.24013161883400566, 0.242270623621351, 0.24449457850409065, 0.24672167030320846, 0.24892038779411335, 0.2511077798046193, 0.2532921829969328, 0.2554543627342577, 0.2576042288268334, 0.25974118404877655, 0.2618646271756853, 0.26401067350268187, 0.2661006347833405, 0.2680936055663789, 0.27016670843921836, 0.27222007094756967, 0.2742931883120101, 0.27630151713943824, 0.27833281786995967, 0.2802990156826912, 0.2822481235883202, 0.28416744290152984, 0.28608105581961946, 0.2880035795754456, 0.289871817866297, 0.2917198014268238, 0.2934393866624773, 0.2952576989807662, 0.2970573954990899, 0.2988166865747429, 0.3005477339715641, 0.3023458666177451, 0.3040078843051354, 0.30562589637871745, 0.30724259830711337, 0.3088327070367861, 0.3103661049805319, 0.3119045492305823, 0.31341262405249537, 0.31488991709533853, 0.31633601351480295, 0.31770643340509763, 0.31909445778167717, 0.32043434274586646, 0.3217541354490217, 0.3230380987839494, 0.3243082284454414, 0.325517593283093, 0.3267347194455114, 0.327868697471741, 0.3289695552931481, 0.3299455370353507, 0.330989632401018, 0.33205228603043835, 0.33300871510693314, 0.3339284856504888, 0.33477444306446735, 0.3356242471908748, 0.3364281910627469, 0.33719866749392136, 0.3379286054318347, 0.33872953706746534, 0.339363977042779, 0.3398918270413696, 0.34046508211991944, 0.3409976880108592, 0.3414409003795052, 0.3418975255744273, 0.34230265246661296, 0.342672051164542, 0.3429971555033685, 0.34326929973574777, 0.3435073369900353, 0.3436935865778043, 0.3438437960661528, 0.3439493828543467, 0.34407951622466826, 0.34408751128835185, 0.3440095571161691, 0.34394198745929305, 0.343830523682154, 0.34374271220125113, 0.34353486707762687, 0.3432868753283324, 0.3429981880065556, 0.3426683303790165, 0.34220730064012, 0.34180527585848325, 0.3413912706722271, 0.34089081715464037, 0.3403460532101451, 0.3398114585601495, 0.33917161311079846, 0.3384101480191921, 0.3376985622986907, 0.33694110662696536, 0.33623814677178926, 0.3353777619232462, 0.3343947811006831, 0.33346684766549284, 0.332494657172494, 0.33151097246567723, 0.33044751814512846, 0.32929593143832697, 0.32815631486324115, 0.32697327034272333, 0.32571947647161187, 0.3244548370122384, 0.32322620590906276, 0.32186567486130396, 0.3204677443151436, 0.3190809170176486, 0.31760220580895276, 0.31599358380954384, 0.31445784135210714, 0.31288194304316563, 0.31135472751495774, 0.30968948810633246, 0.3079147343637819, 0.3061928230124731, 0.30443345485986467, 0.30260355044428455, 0.30077563349581865, 0.29893099418677577, 0.2970268445613172, 0.29508839743768844, 0.29308843947539065, 0.2910869942204245, 0.2891281082323768, 0.2870502590988413, 0.2849446207730498, 0.28278349704959943, 0.2806264913787574, 0.2784130032849373, 0.2762029501686793, 0.2739639174838198, 0.27177016712605484, 0.26946634164412975, 0.267006419813238, 0.2646748086638949, 0.2623136998396904, 0.2599993840691375, 0.2575738760270766, 0.2551739887608369, 0.2527003396317927, 0.2502090893040639, 0.24770045543903207, 0.24517471805499183, 0.24264249568727314, 0.24008231458487692, 0.23750676988985361, 0.23484869478004394, 0.23225220625240817, 0.22966286607724867, 0.22702865263347147, 0.22438013635573312, 0.2217519129777986, 0.2190729602124035, 0.2162562552333651, 0.21357406207074234, 0.2108758398025397, 0.2082924684416041, 0.20555062557312703, 0.2026885601987288, 0.19995332236951951, 0.19720806003917413, 0.1944614625757844, 0.19169918654112703, 0.18894728036680328, 0.18617247676488838, 0.18339492416932582, 0.18072858957403354, 0.17793383046097744, 0.1751569708686067, 0.17237292975457114, 0.16959560564109102, 0.16676183809048759, 0.16400601645181914, 0.16124481099726962, 0.15849771302247834, 0.1558578701510059, 0.15310748027955723, 0.1503689472055561, 0.14752328441306722, 0.14482355607899056, 0.14224820599885865, 0.13954544327923238, 0.13685710080977925, 0.13422591111256296, 0.13156151115874698, 0.1289116118311757, 0.12628245320516954, 0.12367064857701414, 0.12110870499433504, 0.11852817477772179, 0.11591325142460414, 0.11337961632776274, 0.11086320235361802, 0.10839702745913092, 0.10591309027620369, 0.10348409890361472, 0.10103867286818055, 0.09861724693110337, 0.09625531159325948, 0.0938782028104356, 0.09154704281291909, 0.08922132831188359, 0.08692380822235853, 0.08466630891925706, 0.08242399180782813, 0.08019480535355519, 0.07801327435941668, 0.0758605189348709, 0.07374722592689431, 0.07165196350306577, 0.0695961544523917, 0.06756144405027822, 0.06555866073354968, 0.06372034851962753, 0.061765788761543136, 0.059779727916883414, 0.05791455137907764, 0.05608463659463836, 0.05438564510127725, 0.052614794039734895, 0.05085733926306776, 0.04917214545230119, 0.04752585051474757, 0.04598892279397955, 0.04441147456500791, 0.04291661854911528, 0.04141958908997481, 0.03996695499444863, 0.0385963536937373, 0.037226152547821016, 0.03580865905233946, 0.03454010788548192, 0.03331066149010444, 0.03218244614324081, 0.03102472114087115, 0.029974027881773002, 0.028895996352648563, 0.027865297666338967, 0.026821232136248516, 0.025891474482087524, 0.025144053324674467, 0.024282526112327934, 0.02347217497725004, 0.022712155636935284, 0.022001762571159676, 0.02139769543031109, 0.020777671693074387, 0.02020905115904291, 0.019654356187850122, 0.019191039029216986, 0.01882803618202717, 0.018452787221897728, 0.018127748316462647, 0.01786127571306745, 0.017634260437643046, 0.017484737164827905, 0.017353064354043945, 0.01727200879349323, 0.017164789884552827, 0.017193488276711785, 0.017340957609036287, 0.01745143736745711, 0.01761214722842431, 0.017872779601219066, 0.01812694097151721, 0.01844380321846058, 0.018800968328290948, 0.019210135258728393, 0.01965026478187768, 0.020164673734326156, 0.020740444804162556, 0.02135245667775488, 0.022014492105536937, 0.022763081625210888, 0.023519980204135225, 0.02430203077479861, 0.02516503206424253, 0.026077349128803138, 0.027096149746393045, 0.028099522240688946, 0.02909929660043775, 0.03021360568889234, 0.031375954817451035, 0.03266566765293992, 0.03391408701066222, 0.03510630575189579, 0.036472786278624394, 0.037884403692091013, 0.03938996792041431, 0.04088669467387199, 0.04242332110682254, 0.04401838019539253, 0.04566124713062767, 0.04740026143909931, 0.04913221712934912, 0.05090694304354542, 0.05273951259347082, 0.05462073887336584, 0.05661484122181725, 0.058584013339925155, 0.06049562928379885, 0.06257994993225395, 0.06470766209838245, 0.06691124343272409, 0.06912210197572158, 0.07137706035915178, 0.07367902355796634, 0.07602603386064302, 0.07838997253030512, 0.08082996520433229, 0.08333628955231613, 0.08585897138619816, 0.08842576707738067, 0.09114511369488199, 0.0937856328762498, 0.09638893945180602, 0.09913817068300808, 0.10192981764122687, 0.10472398395258373, 0.10760475740350461, 0.11064250151185644, 0.11358742927653522, 0.11657852808772431, 0.11950469076006305, 0.12259929694030589, 0.1257665365954015, 0.12893161145009147, 0.13213631765729258, 0.1353848423115014, 0.13866758953134112, 0.1419748496301593, 0.14533758096312485, 0.14873813821693957, 0.1522468631578854, 0.15571366249625276, 0.15924374921994466, 0.1627895031060417, 0.16637626496176583, 0.16990478843584114, 0.17358356356026164, 0.17732929075286433, 0.1810702728867679, 0.18484654832253092, 0.18869754704902966, 0.19253870640288778, 0.19632855509380043, 0.2002539227048228, 0.20421005987876886, 0.20831320405651405, 0.21231675867534597, 0.2163359950490091, 0.22041686526381804, 0.22453248833634248, 0.22859561882495913, 0.2327899768737049, 0.2370669065591487, 0.24131104795030026, 0.24558680605209618, 0.2499305459179207, 0.2542638340510242, 0.2585034287003892, 0.26291728815963694, 0.267355431236857, 0.27190789641454566, 0.2763845106926982, 0.2807916085870779, 0.28534103290599105, 0.2899141507254946, 0.2945141958403746, 0.2991351323502102, 0.3037600043172417, 0.30843257710066907, 0.31312851304939715, 0.3178493711976353, 0.3225920492358689, 0.3274625265664346, 0.3322389425446773, 0.33698864879748275, 0.3418292927936595, 0.3466939006211546, 0.3515056333663423, 0.3564264378129838, 0.36141693706858147, 0.3663679655331347, 0.37134038801629826, 0.37631763842162924, 0.3813336526007157, 0.3864203023980049, 0.3914679657566742, 0.3965371045668699, 0.40150210814030024, 0.4066277231506796, 0.41174798356584147, 0.4169006961328418, 0.4220652442787392, 0.42732709432306387, 0.43250527355087964, 0.43771970498513374, 0.44292910808813235, 0.4481553974717418, 0.4532890760499621, 0.45856048856504106, 0.4639226041070989, 0.46920066703727314, 0.47449200664925734, 0.47971075635300947, 0.48503740051303035, 0.4904131374539066, 0.4957474316854676, 0.5010906171507231, 0.506392307125975, 0.5117582248930062, 0.5171391105680117, 0.5225130003493711, 0.5278918873294985, 0.5332886843619963, 0.5386749336025803, 0.5439513157328758, 0.549360918601128, 0.5547677165300821, 0.5602925084000673, 0.5656794157826524, 0.5710548237376728, 0.5764521299932552, 0.5818512965104271, 0.5872118884010008, 0.5926174624257144, 0.5980350436944301, 0.6034329578654489, 0.6088280981355475, 0.6141258372130377, 0.6195254258070095, 0.6249400190814076, 0.6303166146424313, 0.6356847296174708, 0.6410425902703603, 0.6463929553377086, 0.6516851998794106, 0.6570219372452311, 0.6623453494758363, 0.6676875996654539, 0.6729797414913522, 0.6781568623837408, 0.6834369535199439, 0.6886977633613165, 0.69404370926356, 0.6992530477386536, 0.7044401845180569, 0.7096228178053595, 0.7147894990888866, 0.7198041580306154, 0.7249531976853103, 0.7300567932143095, 0.7351557037166977, 0.7402273753262243, 0.7454011234670873, 0.7504020389464792, 0.7552652964331219, 0.7602394480169019, 0.765184270599314, 0.7701009457030352, 0.7749859806682574, 0.7798656392106326, 0.7846863064795415, 0.7894769350357892, 0.79417501084703, 0.7989108676685226, 0.80361510175987, 0.8082779667944908, 0.8129042249616537, 0.8175564861261243, 0.8220998499443875, 0.8266127655346232, 0.8310846711612164, 0.8355196145575148, 0.839850329478117, 0.844216222540664, 0.8486202720574666, 0.8528870211092426, 0.8571131435981786, 0.8611725028411813, 0.8653293378405686, 0.8694921004130964, 0.8735388373196992, 0.877537058468457, 0.8813905269173833, 0.8853014789151491, 0.8892825449358476, 0.8930650995971016, 0.8967983947262317, 0.9004180451630039, 0.9040571711628343, 0.907692824609162, 0.9112119796618043, 0.9146765529451918, 0.9180693293731512, 0.9214236416021107, 0.924585733673367, 0.9278389931860883, 0.9310245421938728, 0.9341823061158644, 0.9372281035437675, 0.9401677439679145, 0.9430883021225447, 0.945940720954218, 0.9488218074407319, 0.9515252177719012, 0.9540580940111105, 0.9566473246976941, 0.9591650507159526, 0.9617139292213126, 0.9640751089708853, 0.9662729566737672, 0.9685124553001326, 0.9706778757992292, 0.9728512143610436, 0.9748572696592954, 0.9767826939538029, 0.9786483251742211, 0.9804410372650645, 0.98217321861952, 0.9838159703420675, 0.9853885812191568, 0.9868808633586837, 0.9882972592295229, 0.9896193868332535, 0.9908840178588885, 0.9920299907302264, 0.9931411577180219, 0.9941701694589247, 0.9950420073535606, 0.9959158305638594, 0.9968174797932179, 0.9975037903726487, 0.9981106112918625, 0.9986079436738805, 0.9990576817533304, 0.999406939770871, 0.9996929580140863, 0.9998946696828888, 0.9999606012334394, 1.0, 0.9999035377083443, 0.9997746324144948, 0.9995562693176747, 0.9993019782101698, 0.9988998932929933, 0.9983675124149667, 0.9978016713766014, 0.9971485397661634, 0.9965113154429647, 0.9956717127922754, 0.9946297181848658, 0.9936440210449767, 0.9925699958976079, 0.9914831461053354, 0.9902247308333955, 0.9887795539146635, 0.9873692351510998, 0.9858703664470316, 0.9844174032577725, 0.9827268635557556, 0.9808385201633059, 0.9790049246040641, 0.9770850493544281, 0.9751545122584823, 0.9730547025035726, 0.9707837869944946, 0.968535432695686, 0.9662020317199743, 0.9637800454029469, 0.9612796723205489, 0.9587009042999183, 0.9560351765321758, 0.9532884790889001, 0.9505452562112414, 0.9476281940993684, 0.944528313227915, 0.9414767651713304, 0.9384082877065403, 0.9351896438164976, 0.9318965494618577, 0.9285427149780305, 0.9251005612571499, 0.921499630489802, 0.9179246939487659, 0.9142738195276559, 0.910560045937079, 0.9067596323468845, 0.9028935577746539, 0.8989504120431805, 0.8949382115013879, 0.8908609044633956, 0.8867132535149872, 0.8825349931928147, 0.8782521541721946, 0.8739074196034199, 0.8695455759171049, 0.8650736935781328, 0.8605241293326459, 0.8559411079915905, 0.8513008944892231, 0.8465279356073591, 0.8417855148003479, 0.8370400453080172, 0.8321744190579378, 0.827256179271276, 0.8223186992999634, 0.8172943557516167, 0.812187225638057, 0.807073148631357, 0.801911375749975, 0.7966106454692558, 0.7913690074928601, 0.7860827365602293, 0.7807445114624456, 0.7753615091578382, 0.7698944604719722, 0.7644326118065089, 0.7590597905961791, 0.753500046899594, 0.7479099042527305, 0.7422842996303222, 0.7366366022457059, 0.7309607994528502, 0.725257927672304, 0.7195290671638983, 0.7137577129959259, 0.7079825016798609, 0.7021617491520312, 0.6963436673627359, 0.6905035753358529, 0.6846680014101566, 0.6787853952542849, 0.6728412851037304, 0.666933813098295, 0.6610104696395392, 0.6550230296617627, 0.6490793635373366, 0.643157314239987, 0.6371839433106471, 0.6312028808437568, 0.6251466854804252, 0.6191637146816473, 0.6132179347460721, 0.607217717214217, 0.601217149373528, 0.5952838703713139, 0.5892788471002481, 0.5832391336106275, 0.577256236312793, 0.5712807594277234, 0.5653052464894884, 0.5593497855374857, 0.5534390778096893, 0.5475026921393337, 0.5415819656575163, 0.5355531526204887, 0.5296828504531809, 0.5239273703345246, 0.5180702344384511, 0.5122350649200725, 0.5064200316469819, 0.5006324963200874, 0.4948598247003481, 0.48912502859964974, 0.48341709808443056, 0.4776814487914731, 0.4720379810600697, 0.4663704865427879, 0.46078991616217, 0.45523704356495254, 0.4497108448517537, 0.4442193681108939, 0.4388754033579289, 0.4334369636637511, 0.42804106833174893, 0.42256928273865346, 0.41727516765532086, 0.4121288004894515, 0.406897530546722, 0.40171312809884524, 0.39654087184347125, 0.39145628015438527, 0.386384470391546, 0.38139816798242443, 0.3764582959796812, 0.3716262001674339, 0.3667749000924962, 0.36185619404007385, 0.35712668440143913, 0.3524444530987132, 0.3478183333707289, 0.3432340863633491, 0.3386825766553753, 0.334205526270739, 0.32978139344279, 0.32553760994643305, 0.32120660209983115, 0.3168065006668828, 0.3126182549064681, 0.30848545180189657, 0.30446345685855325, 0.3004376392046811, 0.2964452047097939, 0.2925458278308118, 0.28870682144700444, 0.28493458129836424, 0.2812170887479322, 0.2776351615244834, 0.2740329785162566, 0.27049769529616163, 0.26704221840339826, 0.2636381686045344, 0.2602407248828873, 0.25697763273134655, 0.25377740821501105, 0.25068142361621293, 0.24760244051850053, 0.24459514872819946, 0.2416468737584886, 0.2387643918264676, 0.2358667075277176, 0.23312539736864674, 0.23044032593320304, 0.22782131586485518, 0.22526352759257912, 0.22274085312580713, 0.2203097652998333, 0.21795386991874838, 0.21564226249855464, 0.21339255152482456, 0.21123855774363157, 0.20910842283516262, 0.2070008893491164, 0.20500300265803642, 0.20306570572782265, 0.2011771385477686, 0.199362119343586, 0.19768731367238387, 0.19598076350514151, 0.1943377630562064, 0.19274855966260862, 0.19123098332098606, 0.18979722952802427, 0.18839653558433414, 0.18705591196587826, 0.18568039491114674, 0.18446894073995151, 0.18343726161509272, 0.182313499942111, 0.18124855863156494, 0.18009131470864803, 0.17915909668404562, 0.17834258016057586, 0.17749503180866866, 0.17669803951490862, 0.17588333783958726, 0.1751938737160449, 0.1745651603164892, 0.1739626191365302, 0.17340504679498817, 0.1729403942063412, 0.17246501799302005, 0.17206351659559063, 0.17167548445370542, 0.17133286532661732, 0.17104466342072175, 0.17078777042838988, 0.1704644377787874, 0.17030451285422005, 0.17017822063534194, 0.17017187860477895, 0.17010078994378752, 0.17002140175675373, 0.17002927161358541, 0.17006931551505436, 0.1702023710550025, 0.17029638421344023, 0.1703484984376089, 0.17051658482331758, 0.17071068735327277, 0.1708962918143314, 0.17114446151477047, 0.1714658468373134, 0.171750564847909, 0.17201324481778452, 0.1723496082957553, 0.17270471190525546, 0.17318651455086068, 0.17356312016848835, 0.1739431552682565, 0.17436550418068678, 0.17480594822342482, 0.17527335654485998, 0.175744501679231, 0.17615531351744215, 0.17666371600510072, 0.17717981035997363, 0.17768530075290884, 0.1782169609633672, 0.1787164917174988, 0.1792613523643305, 0.17980745568218157, 0.1804895241304348, 0.18101974282606678, 0.18155590603063196, 0.18209946450792652, 0.1826470977156913, 0.1830900944870062, 0.18365503742772887, 0.18430778488882152, 0.18484802352635188, 0.18538644372881602, 0.18586596081271847, 0.18640404464039598, 0.18687477855315876, 0.18740242812266442, 0.18791684029449127, 0.18841927135988767, 0.18890632059496762, 0.18946164223693882, 0.18990993696217606, 0.19034803495746624, 0.19080270923817283, 0.1912135360928261, 0.1915037949032379, 0.19190339775178097, 0.19228267375740077, 0.19266051844853999, 0.19299608403789847, 0.19340566730034345, 0.19368890598326136, 0.19395648098877316, 0.1941469283283967, 0.19438714854933764, 0.1945607942400978, 0.19476105484432465, 0.1949353255787107, 0.195117257857989, 0.19523485498325197, 0.19532494132288178, 0.19539328331194925, 0.19543594353341592, 0.1954069667569026, 0.1954027659238976, 0.19536322782638105, 0.19530083363996148, 0.19520859450159245, 0.19513936839541288, 0.19498067384815918, 0.1948302266740492, 0.1946125631146315, 0.19436890486392902, 0.19402069783771936, 0.19373283963491605, 0.19352433298807628, 0.19315793072131027, 0.1927657428149119, 0.19226471018295632, 0.19182902952989392, 0.1913549442867799, 0.19085508044051885, 0.19032262016572807, 0.18972101978056427, 0.18912853159641205, 0.1886076522803631, 0.1879339677627544, 0.18723296258851838, 0.18650712041007317, 0.18574982100953452, 0.18492017541117722, 0.1841116276826841, 0.18327188267365715, 0.18246432650964228, 0.18155490036904057, 0.1804746065245502, 0.17952928660926395, 0.1785485589693785, 0.17757167523400294, 0.17651841406300708, 0.17542603577792573, 0.1743138234560907, 0.17317188179925302, 0.1721197653764408, 0.17090505266498218, 0.16965723183113685, 0.1684008679431681, 0.1671217534061828, 0.16581977040247822, 0.16449488108016044, 0.16302080547348244, 0.16166624725372053, 0.16028199421253736, 0.1589985334038621, 0.1575421762975829, 0.15593614308526327, 0.1544583991157016, 0.1529544277806298, 0.15154292085567228, 0.14997513855726635, 0.14837200282497082, 0.1467741810368982, 0.14515922812536533, 0.14353630938260745, 0.14188707748585921, 0.14020181981091628, 0.13852465359835994, 0.1368316927535757, 0.13512503807398546, 0.13340221050843268, 0.13169057178172816, 0.12993768035588946, 0.12817372908412314, 0.12634044116808424, 0.1245632559189446, 0.12270126478869663, 0.12090854605735665, 0.11910099378659379, 0.11738150419044172, 0.1155360213675167, 0.11367693968627707, 0.1118234620013113, 0.10996565746677313, 0.10807620568840862, 0.10621504912161253, 0.10437036190773716, 0.10249926642248566, 0.10062690997363867, 0.09879066109927645, 0.09691309279118299, 0.09493694191389616, 0.09307808305116959, 0.09121707702266285, 0.08933608794583435, 0.08747690679896622, 0.08574439377183014, 0.083871168040377, 0.0820077543022011, 0.08005287591108665, 0.07822217504647191, 0.07650175292469004, 0.07466779894381094, 0.07284638388145924, 0.07092011913285393, 0.06913904139348534, 0.06745842796934022, 0.06567961091468269, 0.06391490025126378, 0.062163150380952346, 0.06042783890409079, 0.05862829601601107, 0.056933594854521916, 0.055250376148018435, 0.05366785406408424, 0.051999652908786616, 0.05034947871995102, 0.048720649531656494, 0.04711165899769425, 0.04544640388074404, 0.04388759302125344, 0.04248035456807698, 0.04093829955872291, 0.039422116102831015, 0.03781551901458192, 0.03636507757786145, 0.03494375957594081, 0.03353060157866858, 0.03213860153947462, 0.03090358853821419, 0.029538880960942072, 0.0281652391133922, 0.026866489257031844, 0.02559533253404752, 0.02440318215722571, 0.023180768700457637, 0.02188761719373156, 0.020738927342084146, 0.019614619974804848, 0.018675440925813407, 0.017581558213578652, 0.016415638484137657, 0.01540491749190513, 0.014421958342767193, 0.013518496443528427, 0.012585533556444463, 0.011681227929702213, 0.010811702685296078, 0.010112931797013539, 0.009288172903409319, 0.008502425935749241, 0.0077692690709615176, 0.007056514723599994, 0.0063087445073690416, 0.005678185260609402, 0.005079036139613062, 0.004523041484738468, 0.00398523140206436, 0.003504504001945078, 0.003027715224367859, 0.0025843645955251006, 0.002206552058304496, 0.0018253886001271715, 0.0015362222675165613, 0.0012168637464143779, 0.0009347235207202871, 0.000806559191342485, 0.0005818593457804166, 0.0002903220839254544, 0.00016163246037172434, 6.600138009538585e-05, 3.405009766802396e-05, 0.0, 2.9539388720623272e-05, 5.981383809072412e-05, 0.00012522035451428517, 0.00025900362376157765, 0.0003888540220658045, 0.0005719261128208215, 0.0007700955231130231, 0.0010036333118212545, 0.0013394533976488548, 0.001633307752152267, 0.002039488628864669, 0.002397707008186759, 0.0027956587148296823, 0.003246643816885548, 0.0037182058722733413, 0.004278043634658055, 0.004815775926285087, 0.005391257304532938, 0.005929811353055457, 0.006586515381905567, 0.007388135496776642, 0.008090811659186646, 0.00882980952829106, 0.0095878620782932, 0.010398348622526152, 0.011173740222348, 0.012057082017613387, 0.01296792452163209, 0.013934230847008604, 0.014896702929013926, 0.015885435231939908, 0.016906465707907187, 0.017956124050918475, 0.01904746528462556, 0.02015221899737857, 0.021297607754535673, 0.022458378320268726, 0.023648169939036862, 0.024913641621556702, 0.026154524847011335, 0.02743784306254591, 0.028737936979481304, 0.03006808657451398, 0.03152163555681441, 0.03289809368531461, 0.03433157530650244, 0.03577084937117431, 0.037242582753549414, 0.0386706757844682, 0.04021335544372664, 0.04177081522790781, 0.04336468352420156, 0.044982586665383455, 0.04664497133043223, 0.048307998847391426, 0.05011190951052188, 0.051809690672622644, 0.05353830673514625, 0.055173213771910694, 0.056975732579084414, 0.05892976793620278, 0.060757531562160516, 0.0626137655592162, 0.06438298507412879, 0.0663079924500064, 0.0683084043814786, 0.07026582615065476, 0.0722465132738891, 0.07427814234736276, 0.07630116531521307, 0.07839540073414819, 0.08046051515816173, 0.08255174683806821, 0.08466547811866651, 0.08680735916287408, 0.08886911140292367, 0.09107205711372991, 0.09329250205964822, 0.0955529946859983, 0.09780714447157283, 0.10007259820550977, 0.10236827602415537, 0.10468391530510683, 0.10701678872095968, 0.10937332673451648, 0.11181631116442681, 0.11420535801121813, 0.11661877092495003, 0.11906642377747899, 0.12152609584000844, 0.1239817264186672, 0.1264923043893269, 0.12902452314126328, 0.1316165342318703, 0.13418710809888956, 0.13676670393790533, 0.13938624530297838, 0.1420281018480658, 0.14462607883095968, 0.14732064874457118, 0.1500791299398216, 0.15280520011178816, 0.1555531556183294, 0.15826869452148726, 0.16106742775378308, 0.1639292088122294, 0.16676083837271882, 0.16961487441136025, 0.17246933769203307, 0.17537113458201972, 0.17830896095966553, 0.18125182754413613, 0.18421732940522142, 0.18718793330491962, 0.1902012114440931, 0.19329810361241115, 0.19634766934974818, 0.19942308047037227, 0.2024594216258999, 0.20559387677468938, 0.20886732832396857, 0.2120302786972955, 0.21522201837325003, 0.21838610104252018, 0.22164067321736283, 0.2248340898499559, 0.22814757329551427, 0.23148046738931347, 0.23494664953572786, 0.238306333566686, 0.24161311685905978, 0.24503844551556633, 0.24848651088135518, 0.2519327651050646, 0.2554306894091346, 0.2589716716564357, 0.2625125089747603, 0.26607798847438985, 0.2696448664192906, 0.27326334852869266, 0.27691760607491744, 0.2805830336470001, 0.2842738656413671, 0.28795799526672156, 0.29170431778178857, 0.29545715734860195, 0.29925439500112205, 0.3030755388535552, 0.3069445361912128, 0.3108118018717119, 0.3147128037402542, 0.31863202065586094, 0.3225782113446972, 0.32650437046343345, 0.3305104278784084, 0.33453049571099086, 0.3385867802283167, 0.34266741035550613, 0.34674626689922056, 0.3508798306940173, 0.3551472059870672, 0.35931452300092265, 0.36351235775193813, 0.3677400693333977, 0.37199707017417283, 0.3762710703639155, 0.3805865592944189, 0.3849291829170195, 0.3892868604352465, 0.39368426534634704, 0.3979911706605305, 0.40245412370310624, 0.4069357140792815, 0.4115483050554174, 0.4160551438586602, 0.4204550838262605, 0.4250318518255103, 0.42962691638742423, 0.4342291463568974, 0.43886402732269364, 0.4435004285572694, 0.44817621394931967, 0.4528811036513465, 0.45759356443226756, 0.46232598151488674, 0.46704902977012597, 0.47182515031101246, 0.47661069948732465, 0.48142449850150204, 0.4862561216414614, 0.4910908698867406, 0.4959598853270172, 0.5008441672527589, 0.5057467289500173, 0.5106656496452259, 0.5155918776880131, 0.5205438517009386, 0.5255240120046185, 0.5305039119571215, 0.5354987919051796, 0.5404992913794834, 0.5455235705364104, 0.5505135984461877, 0.5555687559624689, 0.5606328647428067, 0.5657394577009037, 0.5708163762381373, 0.575945773760317, 0.5810363525523221, 0.586137739308473, 0.5911313254931819, 0.5962658914046957, 0.6014631121377433, 0.6065917136848896, 0.6117244498364212, 0.6167885661440545, 0.6219362972997542, 0.6271566164074008, 0.6322899710405328, 0.6374245901320962, 0.642471310036222, 0.6476164919342907, 0.6527401982836456, 0.657873335992848, 0.6629981218595306, 0.6682243387847919, 0.6733172786595553, 0.6783082610786161, 0.6834050477612443, 0.6884898128672302, 0.6936544698647661, 0.6987015719888751, 0.7035958690927016, 0.7086419127460611, 0.7136680022700934, 0.7186797296117463, 0.723664212905076, 0.7286249779605961, 0.7335676534910908, 0.738488075869263, 0.7434369217034552, 0.7483040848805504, 0.7530731350177148, 0.7579051744923405, 0.7627085832997231, 0.7675766851450415, 0.7723088438884804, 0.77690966257036, 0.7816023992640482, 0.7862604232042747, 0.7908830536108936, 0.7954695425586291, 0.8000073319149813, 0.8045205466576254, 0.8089943829338333, 0.8134573607377282, 0.8178461108087014, 0.8221591747233937, 0.8264702918795854, 0.8307365541571878, 0.8350774621036618, 0.8392359333661218, 0.8432579213173247, 0.8473444422060298, 0.8513806984470804, 0.855330399666035, 0.8592674528365561, 0.8632152059625919, 0.8670323268714609, 0.8707961521384852, 0.8744274453509094, 0.8780903849575028, 0.8818002830383546, 0.8853253546276253, 0.88879342278361, 0.8921073934865547, 0.8954687298177292, 0.8987454246547957, 0.9019743056515593, 0.9051338411378356, 0.9083482990540354, 0.9113515784179684, 0.9141790293840036, 0.9170663240589141, 0.9198798567487747, 0.9227086106039434, 0.9253614253524903, 0.9278158051631462, 0.9303420714207655, 0.9327877823215646, 0.935205580298387, 0.937482730614147, 0.9397475060645519, 0.9418585358280581, 0.9438931708792471, 0.9458177706199741, 0.9476998011849826, 0.949521912393332, 0.9512364166798445, 0.9528685642613588, 0.9544159396210591, 0.9558807744189028, 0.9572604923783492, 0.958554315601092, 0.9597615120030221, 0.9607594840967176, 0.9618068164502531, 0.9628791772948597, 0.9637208690081388, 0.964474645657437, 0.965026695594669, 0.9656168513534126, 0.9661034194895537, 0.9665023692636209, 0.966805304307905, 0.9671167999334882, 0.967215341139884, 0.9672215034595664, 0.967140848919539, 0.9669692922975182, 0.9665990940235367, 0.9662577973973802, 0.965802054526182, 0.9652667441106028, 0.9646332301219869, 0.9639711009687817, 0.9631340656062054, 0.9622394687978482, 0.9612122195475188, 0.9600939113955739, 0.958801956162425, 0.9575109951301735, 0.9561749766264185, 0.9546851229748841, 0.953102745438178, 0.9513809358472274, 0.9496197746396388, 0.9477109816207856, 0.9457675906959405, 0.9437276617467247, 0.9416920829910637, 0.93944943072377, 0.937018853481835, 0.9346128097516111, 0.9321133346667781, 0.9296022264728856, 0.9269086843291479, 0.9240572185169484, 0.9212011467990421, 0.9182557000991424, 0.9152071689985866, 0.9120877499995033, 0.9088722147271917, 0.9055803681908439, 0.9022028369769103, 0.8988641054767122, 0.8953029088782897, 0.8915957255827512, 0.8878925521915733, 0.8841102153321283, 0.8802495913843378, 0.8763115893202603, 0.8723456200922284, 0.8682495885234677, 0.8640818171368849, 0.8597239795322588, 0.8554297837477606, 0.8511533365608799, 0.8466965676706802, 0.8421724037336566, 0.8374745832561289, 0.8328321164424978, 0.8281912379742827, 0.8234008743959269, 0.818548037756048, 0.813632527472632, 0.8086587577323294, 0.8036571492623442, 0.7985634602211047, 0.7934155328327951, 0.788129316078421, 0.7828871477227876, 0.7776791159940594, 0.772316662818618, 0.7669003131931402, 0.7614468405584639, 0.7559487721942075, 0.7503442718300829, 0.7447690006283451, 0.7392157625853709, 0.7335459477496626, 0.7278396227492978, 0.7220790387648545, 0.7163061843561985, 0.7104896212361701, 0.7046528228815679, 0.6987852532338146, 0.6929047848111406, 0.6869787772281191, 0.6809458000782717, 0.6749823415673112, 0.6689927343215658, 0.6629498775852498, 0.6569184415243666, 0.650883453995146, 0.6448097548223798, 0.638720424355772, 0.6326351095600836, 0.6265183033515617, 0.6203545879347959, 0.6142269137072344, 0.6080918467756915, 0.6019631529130403, 0.5958178073632714, 0.5896393045798841, 0.5834981297208455, 0.577357814629662, 0.5712879007214298, 0.5651466385328836, 0.5590304843538141, 0.5529094860794892, 0.5468023187382094, 0.5406822854997194, 0.5346099727284527, 0.5285198710281108, 0.5224853401134408, 0.5164679496658842, 0.5105502670037474, 0.5045622559950051, 0.4984836507441542, 0.49256533397350544, 0.48666941923696555, 0.48085964752349436, 0.4750068110999217, 0.4691754728020514, 0.4633888227531131, 0.4576360257362612, 0.45195667068844353, 0.4462709363085677, 0.44054162860321633, 0.4349478161848976, 0.42939155638150595, 0.42390691290093124, 0.4184268526244488, 0.4130499511458795, 0.4076525672350028, 0.40230544102558047, 0.39697849296716975, 0.3917381092863877, 0.38648548131689475, 0.38135600357948235, 0.3762760679766888, 0.3713074661275566, 0.36632363546067437, 0.36129732905261036, 0.3564417910447377, 0.35163976525189844, 0.3469046499157393, 0.34221299588802495, 0.3376829474347064, 0.33309711957651955, 0.32857826403097407, 0.324009146780729, 0.3196399328156071, 0.3154245333479105, 0.3111674814189095, 0.3069794034457765, 0.3028694765908047, 0.29881933203897915, 0.2948559218459189, 0.2909451931444518, 0.2871065612445225, 0.2833049571467499, 0.2796155364615411, 0.275927787814453, 0.2723890019779907, 0.2689180073867046, 0.2655892285410883, 0.2622473850697385, 0.25893898505144897, 0.2557515884235907, 0.252636659104237, 0.2495975504183427, 0.2466283762496732, 0.24367857283004457, 0.24086393395297329, 0.23812037993152702, 0.23554836665626822, 0.2329359931432375, 0.23041057418765473, 0.2279528748431585, 0.22557284270862202, 0.2231906355168778, 0.22097440325395395, 0.21879461089606717, 0.2167263758933453, 0.21472809970260603, 0.21281624259686155, 0.21095665362399157, 0.20920527195960406, 0.20748391429821955, 0.20583583925507018, 0.20427962245410547, 0.20277412410271656, 0.20131492994283648, 0.19995753011031306, 0.1986699308855, 0.1974795202037495, 0.19632640650304817, 0.19514901018990766, 0.19414638842025395, 0.19320654525656786, 0.19233968215998196, 0.19152375802966015, 0.19089257168454793, 0.19018645707323845, 0.18954907821218078, 0.18885404694258312, 0.18836536449483446, 0.18799566127199144, 0.18761339311766434, 0.18729106324525668, 0.18708199886919524, 0.18686961421834852, 0.18668776766983539, 0.1865974478718458, 0.18656248536163356, 0.18659053808769588, 0.1866617174156055, 0.18679558132348287, 0.18696905340038764, 0.187193088342127, 0.18738268660059787, 0.18771461141613002, 0.18816057809756107, 0.1885669791944198, 0.18901828183402675, 0.1894632580770026, 0.1900068185287797, 0.1906415103796675, 0.19125402927070612, 0.1919059926918213, 0.192551959039743, 0.1932842631536654, 0.19397307002929295, 0.19477980425633853, 0.19561312555738183, 0.19657981703104294, 0.1974513370157074, 0.19828627962156373, 0.19922673124056883, 0.20019123955320167, 0.20115385216121104, 0.20216663974429036, 0.20318285566175237, 0.20423596103804917, 0.20530590062184992, 0.20649021562623224, 0.20757872130312655, 0.20857812465812908, 0.2097177347854536, 0.2108672647101614, 0.21202441854807952, 0.21319143419193853, 0.2144199830778227, 0.21559353464144962, 0.2167753454839257, 0.21793162162809637, 0.2191296191934586, 0.22029884979306416, 0.22150375385274032, 0.2227066985722403, 0.22402867718311828, 0.2252095081161437, 0.2262983751754459, 0.2274931854181682, 0.22868089535342773, 0.22984725514472554, 0.23101933670017483, 0.23220984166265823, 0.23335536737867718, 0.23448970245579068, 0.23560724529748175, 0.23671619351985884, 0.2378557195153099, 0.23892791131630023, 0.2400002297600803, 0.24104002401622499, 0.24206331051415342, 0.2429790837813236, 0.2439765255822543, 0.2450218518163299, 0.2459584105075438, 0.24687252870375395, 0.2477248829471405, 0.24859559520425467, 0.24947519101461987, 0.25028490794034713, 0.2510674945247862, 0.25177645642649743, 0.2525076985339907, 0.2532725981862126, 0.25393014211819864, 0.2545580200963907, 0.2550200979261482, 0.2556027754595576, 0.25627756579664945, 0.25676363714958905, 0.25721749461837357, 0.257516278062001, 0.2579183379419676, 0.2582684123542103, 0.2585885893187083, 0.258866871304514, 0.2591210715094283, 0.259313840243026, 0.25945581861883726, 0.2595687648294527, 0.2596403975509785, 0.25971325777163295, 0.25969669743854223, 0.2596483436117066, 0.25955214000199267, 0.25941636786788397, 0.2592200379553569, 0.2590064926760613, 0.25881276233737566, 0.25850753382380376, 0.2581636414975855, 0.2577408362435856, 0.2573229369288819, 0.2568626142614401, 0.25635982676034436, 0.2558145609973271, 0.25530614563055976, 0.25466596594282676, 0.25393207137361107, 0.2532226051403648, 0.252471128599345, 0.2516439701212767, 0.25081310951069163, 0.24989764865646655, 0.24898551868973745, 0.24802856110139124, 0.24710836277586226, 0.24605390654085127, 0.24497613872202043, 0.2438438753656746, 0.24267459018304, 0.24149035368793037, 0.24024441940104876, 0.2388704697730633, 0.2375653108662029, 0.2362196293816187, 0.2348196611411255, 0.23339753201806354, 0.23195583367975867, 0.23045492568172635, 0.22891831627092038, 0.22744222202318184, 0.2258243702508658, 0.2241402090986258, 0.22247091115702597, 0.220771378962664, 0.21896569226721277, 0.21721675916954586, 0.2155317356721614, 0.21370567163391926, 0.21185434691536834, 0.2099208048911161, 0.20802724225320166, 0.20605936467456004, 0.20411807654475106, 0.20214874674044375, 0.20013066362021822, 0.1981119425453662, 0.19618084414131165, 0.1940982289543094, 0.19199913286716333, 0.1898691987472168, 0.1877400555122971, 0.18556394549020494, 0.18340708594087668, 0.18123366491067747, 0.179024062458499, 0.17682294537374021, 0.17455552836166952, 0.17233222833661277, 0.17009333292207585, 0.1679622239410646, 0.1656810732301217, 0.16334985408240155, 0.16106569277508045, 0.15877512023609014, 0.15651859906865198, 0.1542126187665652, 0.15178740232691426, 0.14949333080942281, 0.1471920168505331, 0.14493348316454008, 0.14261613482053853, 0.14035009811102378, 0.1380270033319124, 0.1357085759189841, 0.13337182430730052, 0.1310672705996292, 0.12880002326451528, 0.12650217730362295, 0.12421275685891146, 0.121867691018023, 0.1196049934916166, 0.11740907925156384, 0.11515305877551177, 0.11290926825256155, 0.11058430432130917, 0.10837867793891316, 0.10624796190291465, 0.10405302095131472, 0.10187334784968889, 0.09962888502673174, 0.09749213494134795, 0.09544172424434508, 0.09332285164412965, 0.0912236390540705, 0.08908153465614732, 0.08703144476765762, 0.08507272485463523, 0.08305032015182703, 0.08105211894079113, 0.07905794851744356, 0.07711194111815917, 0.07518432430681403, 0.0732881864981436, 0.07141716271283732, 0.06956746354237009, 0.06774905652664567, 0.06599696682256308, 0.06422746161576386, 0.06248801058243107, 0.060836128225862304, 0.059150257037964935, 0.05753218413329407, 0.05590989102191744, 0.05432321012728868, 0.05267927793031123, 0.051174614458018144, 0.04984209322253669, 0.04837939287616274, 0.046955595165499645, 0.04551283803189696, 0.044172457912311947, 0.04283843208190354, 0.04157027068067878, 0.04033515557133903, 0.039255414716362576, 0.038072215318314985, 0.036934506513807995, 0.0358322957722761, 0.03477027114559416, 0.03379790101599032, 0.03280860513155762, 0.03186552700976632, 0.030958638439601883, 0.030092593989480765, 0.02919345212532689, 0.02841695581276678, 0.027722909811055223, 0.02701166989932063, 0.026339096209871956, 0.02571975440937853, 0.02512231255900705, 0.02457140229555812, 0.02405122070733073, 0.023570289306330486, 0.02320331230795367, 0.022790820387465077, 0.022466763193040536, 0.02213356419063995, 0.021844396574534172, 0.021646766013046742, 0.021436749427247447, 0.021278250175755475, 0.021154587524448137, 0.021073503418060538, 0.02104585361853089, 0.021045858758300135, 0.021176305572359964, 0.021245953066392473, 0.02136011116195394, 0.0214176085372292, 0.021629681616540625, 0.021918329963632056, 0.02219600379941721, 0.022553834510173582, 0.022900817361433557, 0.023286929474019447, 0.023721746255513727, 0.024182765493682902, 0.024712408505163135, 0.025244471942861575, 0.025814869127408897, 0.026411084836204114, 0.027057409236892094, 0.027793655863009515, 0.02850377394555924, 0.02925157298520164, 0.0301287207667508, 0.030937663122131233, 0.031834107654770814, 0.03271670648013985, 0.033639782871664525, 0.034513702839197684, 0.03552451699928588, 0.03667109144294845, 0.0377313076806083, 0.03882814659165512, 0.0399531064320299, 0.041120766610105844, 0.042358232399996504, 0.043586646302007544, 0.04484873225687799, 0.04615678230352794, 0.04748185544828476, 0.04884324319532511, 0.050230796715875436, 0.05164902630702896, 0.0530120756585046, 0.05450049238087639, 0.05607908454257916, 0.05760749330827647, 0.05916402677247181, 0.06078498065869413, 0.0623918786260655, 0.06398664872631506, 0.0656561003106364, 0.06735101269935577, 0.0690667724263739, 0.07081254478803456, 0.07271804435990067, 0.07449576419082031, 0.07630533210695725, 0.07802211204332617, 0.07990733207459344, 0.08190661568157848, 0.083823286804299, 0.08576683501516708, 0.08770571122391968, 0.089704869525463, 0.09175370113679723, 0.09379572049424514, 0.09586194616219924, 0.097887311588311, 0.10000884346290383, 0.10218794676129599, 0.10434361179907835, 0.10652116098918193, 0.10875420218857447, 0.1109707375632783, 0.11327225363383668, 0.11552716035484789, 0.11780803969535479, 0.12001418981482743, 0.12235726654635017, 0.12483602387234032, 0.12720084547727273, 0.12959090444092008, 0.1319114500336454, 0.13436171916335257