0.07753379050914634, 0.07677505460835723, 0.07594105606185655, 0.07522691674727418, 0.0745205120949227, 0.07392394176453365, 0.0732165883487653, 0.07250422904521021, 0.0718182485952518, 0.07113899420691695, 0.07033636297355526, 0.06968401862114132, 0.06904925424825346, 0.06838861382802698, 0.06772697397399874, 0.0671162415233059, 0.06644688640433297, 0.06565631869327437, 0.06500792787631074, 0.06435506832372669, 0.06368319585275363, 0.06302611111651268, 0.06235078200952732, 0.06169097785740303, 0.06102912304382631, 0.06058288631746303, 0.05989179713145695, 0.059264592259193366, 0.05859028389094765, 0.05772751947318215, 0.057103226532040696, 0.05647812163929551, 0.055832193825940006, 0.055209949285009836, 0.05469593118453909, 0.05406019773934383, 0.05343156469998019, 0.05274771602721301, 0.05214011900038756, 0.051483609438521136, 0.0508882828143879, 0.05029334277753039, 0.04966846816830653, 0.04908013112375648, 0.04858000179892888, 0.0479821292102653, 0.04739095512179597, 0.04670821981083646, 0.04614242205838864, 0.04565488541027356, 0.04508159921559118, 0.04451477330192082, 0.04385104954112011, 0.04330996353153732, 0.04271768681520182, 0.042184800550550114, 0.041650923259491476, 0.04136492858110074, 0.04080064484103383, 0.04024679158122103, 0.03971303056595073, 0.03919209441966595, 0.03849711207054303, 0.038022526424790724, 0.037651042713019875, 0.03716391194874782, 0.03668402935798145, 0.03614411906148906, 0.035686806660667314, 0.03518614014782518, 0.03474141052347799, 0.034298080550072524, 0.033913703541552605, 0.03346816294781374, 0.03302922145896126, 0.03259694615826674, 0.03217139955092504, 0.03186624321063537, 0.031439965213331325, 0.031114746434363967, 0.03070306231394165, 0.030307978249944384, 0.029819709027319913, 0.029467677196539088, 0.02909682610844314, 0.028762073309939507, 0.028432925739476797, 0.028088995334619095, 0.027774462163878733, 0.027516787962183903, 0.027206576313747514, 0.026905270062972067, 0.026452729011136225, 0.026189306999099042, 0.0260857647355958, 0.02580300035081836, 0.025531461209807576, 0.0252347327942055, 0.02498945187306683, 0.024783667797763146, 0.024551634566784056, 0.024330121353421507, 0.024036383808481276, 0.023846008811464, 0.023805801154913174, 0.023608916557704553, 0.02342687727460228, 0.02308343649186963, 0.02295133827978379, 0.022946385352313758, 0.02280602373167439, 0.022677673438277198, 0.022462992540339573, 0.022370410370292543, 0.022273407790986584, 0.022194590313039497, 0.022122314322632213, 0.022051999614466435, 0.021995137316466042, 0.021977048225710775, 0.0219322765178428, 0.02189782828013467, 0.02179114847531714, 0.021787970872446067, 0.021800951656446223, 0.02180881161183599, 0.02182435004227985, 0.02185314832937624, 0.021884576811245216, 0.021981833998330168, 0.022024331401095037, 0.02207939318473037, 0.0221208596419076, 0.02220331494817535, 0.022337240738667368, 0.022434725381848312, 0.02254454490928462, 0.022671449732790717, 0.02280408250072119, 0.023082463736263808, 0.023220749264973133, 0.02337738617268605, 0.02341158423225536, 0.023618606320063445, 0.023796369873633927, 0.024021926347449454, 0.024252697409840828, 0.02445297321087598, 0.024699997008186557, 0.025080446884602897, 0.025320386364862984, 0.02557297126966494, 0.025889225260737038, 0.026158795034069413, 0.02623570327541313, 0.026558310231455398, 0.026881599818954088, 0.02730467176399471, 0.02761975878906319, 0.027804205229816498, 0.028154329790590026, 0.028505107565967382, 0.02912602389252807, 0.029446930572387165, 0.029651812356687905, 0.030024595956589416, 0.030405116567581342, 0.030772551023967778, 0.031170654251559446, 0.031554179834951984, 0.031967050189626374, 0.03238481985039541, 0.03270434094449123, 0.033145309894137935, 0.033637288710821826, 0.03407132465060325, 0.03450920097336392, 0.03508535966910999, 0.03551443916275245, 0.0360430695514522, 0.03648353991915607, 0.036938710378440896, 0.03728308214686712, 0.037778781340906786, 0.03825734445150106, 0.03876256966225183, 0.03926990511468492, 0.039794878838423364, 0.0403045623597346, 0.040832756625548416, 0.04134636564147952, 0.04186355019533878, 0.042435661060757704, 0.04295261941494048, 0.043439078807777684, 0.043971231239889226, 0.04450571996684471, 0.04502162168618791, 0.04556260074451149, 0.04623307757478639, 0.04675846928603367, 0.047291350558978505, 0.04764468984282654, 0.048212761206544906, 0.04896071257704029, 0.04949392293583693, 0.05003279640768858, 0.050374932845096344, 0.050947654881779145, 0.05157911812873096, 0.05212745521690812, 0.05267279915629614, 0.053127458937903285, 0.05367815441753151, 0.05421076544026998, 0.0547479417955777, 0.055278041527290225, 0.05593070571159965, 0.05643186562140103, 0.05704813064495878, 0.05753715547552993, 0.05803255815358516, 0.058486277094616505, 0.05899570621277219, 0.059566566592463344, 0.06006631137677768, 0.060567507313137724, 0.060893442729081176, 0.06141642624182277, 0.06194341274726004, 0.06244205102062003, 0.06293116142031374, 0.06337489309534122, 0.06385034571332948, 0.06442856058572273, 0.0648683955846529, 0.06519093691560808, 0.06563711528594252, 0.06607199948953721, 0.06658890459487658, 0.06699047793523849, 0.06731457142925477, 0.0677143327800499, 0.06810373361109864, 0.0684518703491628, 0.06882466510365952, 0.06923712155399374, 0.06957965861042208, 0.06991350522460123, 0.07012991996993377, 0.07045919321998698, 0.07085025317433814, 0.07113897801898178, 0.07141744585969911, 0.07181968165622651, 0.07205995860280294, 0.07214705615630705, 0.07239808594324516, 0.07263477493202386, 0.07296570079103071, 0.07316037562387456, 0.07327997207445729, 0.07346639962075116, 0.07363952045777943, 0.07381984938985299, 0.0739633254658493, 0.07402194366008519, 0.07414912648120696, 0.07425910290399643, 0.0745432526019502, 0.07459556949685679, 0.07444082704362368, 0.07450590424847504, 0.07455144655190853, 0.07466579156810532, 0.07466275131937376, 0.07452261614431548, 0.07450855962872772, 0.07447370394975758, 0.07468210349124563, 0.07457436623253401, 0.07433334966430764, 0.07423189360879273, 0.07411586180109625, 0.07393335560461924, 0.07379394890971658, 0.0736673581458903, 0.07348794019317598, 0.07329254504482671, 0.07322053167848283, 0.07297537659948182, 0.07274256499824289, 0.07247702009241745, 0.07220216031407944, 0.07187563635496719, 0.07158439389929917, 0.07122717446932747, 0.07091345981093122, 0.07058192575889907, 0.0702327833545853, 0.06986624190366542, 0.06973553286070988, 0.06930282342177073, 0.06886753457150792, 0.06832456213653265, 0.06789193609158904, 0.06739453883989177, 0.0669418569301862, 0.06647258869314378, 0.06618320598311114, 0.06565671573970393, 0.06499634106438049, 0.06447529504768436, 0.06393982211166796, 0.0634313568604504, 0.0628622149159148, 0.06251896920466238, 0.06189640525404445, 0.06127536762866344, 0.06054551443662939, 0.0599358187592275, 0.059373490552188886, 0.0587374936942624, 0.05809484762727697, 0.05743470578784892, 0.05677864493100046, 0.05631557489878957, 0.055617187270584956, 0.05492164526401617, 0.05413963372121885, 0.053456554704002575, 0.052886339605126495, 0.05217633368627548, 0.0514669830127834, 0.050633491986277375, 0.04993872236803085, 0.04927177431890495, 0.04855644594544076, 0.0478361579496402, 0.047297201399456, 0.04654472207180838, 0.045675098997157576, 0.04495087607245307, 0.04422472474012669, 0.04356418480247136, 0.04282696714775595, 0.04210844113687173, 0.041375653049898264, 0.04064700405482816, 0.03994835361451388, 0.039224929365962634, 0.03855394538640219, 0.03783664796412115, 0.03712815141937518, 0.036474788905190035, 0.03577771021438811, 0.035257188295421425, 0.03456164268583066, 0.033886398485294594, 0.03304426449081323, 0.03242950334674827, 0.03190927264652496, 0.03129781755870442, 0.030699863204683493, 0.030136275760958703, 0.029563431141955566, 0.02893899951244141, 0.028405999151127403, 0.02788539747855254, 0.02740397215205871, 0.026907772672824848, 0.026412782645633594, 0.02595266848824911, 0.025509851122758272, 0.025333067732386003, 0.02489613155612863, 0.02430712288801835, 0.023960203253849576, 0.023634648137272993, 0.023506842232318876, 0.0232042778063457, 0.022935405770047625, 0.02269965150376598, 0.022496618362904328, 0.02225894028420193, 0.022129267290640492, 0.021971445832374124, 0.021906943295964328, 0.021869304011125888, 0.02178743375586301, 0.02181622127281671, 0.022057201161721295, 0.022116758250991773, 0.022216300994586657, 0.022299016759850118, 0.022485777723113613, 0.022833519562391526, 0.023079424952229737, 0.023370774137506673, 0.02358854127214606, 0.023985147529936714, 0.024430461821162236, 0.024903571700082727, 0.02541771221168824, 0.02602027080385734, 0.02661332323249755, 0.027082307936880035, 0.027790072886346835, 0.02853563076035474, 0.029455159451926005, 0.03026494079396023, 0.03110472375219234, 0.03201886367704051, 0.032983389677936424, 0.03386984663232345, 0.034953376992722295, 0.03608194558208775, 0.03725720822898591, 0.03848068382679755, 0.039717619982662204, 0.0410461591937926, 0.04250218850313982, 0.04392237396825047, 0.045399562262777776, 0.04699107181825845, 0.04857661292765469, 0.0500689176777826, 0.05179739559633572, 0.05357888965464172, 0.055492171500050695, 0.05737372638841794, 0.059280082853479237, 0.061288456621702236, 0.06335643954874821, 0.06567053947784919, 0.06783602579610608, 0.06990284497607517, 0.07223233276979041, 0.0745394864161737, 0.07700062310963177, 0.07951861819469062, 0.08220826782462926, 0.08482906934330736, 0.08749049508535929, 0.09024737691169774, 0.09306912858024562, 0.0959714082575952, 0.09892142691051005, 0.10181887486869641, 0.1049162987910358, 0.10807324827299317, 0.11137845785056236, 0.11464609029214319, 0.11780510544927306, 0.12122874627025644, 0.12470929633651541, 0.1283255175390043, 0.13191382574621396, 0.13563390059543343, 0.13934317634048463, 0.143121154663854, 0.14699834019713176, 0.15090838795569012, 0.15484101291938504, 0.15889434997591995, 0.16301279137704486, 0.16718060320751452, 0.17143046633587794, 0.17560436188654324, 0.17999858822073497, 0.18444806494273552, 0.1890672757202505, 0.19361536251956604, 0.19838729842431152, 0.20304219186310746, 0.20776882755306778, 0.21226589082254457, 0.21716857081780785, 0.22223475079477562, 0.2272238370838605, 0.23227094801955359, 0.23730347322861844, 0.24247476757676664, 0.24790547114045236, 0.2531564837852442, 0.2584720639544928, 0.26377299105001234, 0.2692223162296627, 0.27462361045712447, 0.28019563255572977, 0.2858154028586, 0.29141060396579993, 0.29713482734068974, 0.3029488217222902, 0.3087540166502357, 0.3146054650649253, 0.3205543815377122, 0.3264904538016964, 0.3325051421395271, 0.33853149083410244, 0.3446050509197695, 0.35070898068846634, 0.3568748882444919, 0.36307280831597477, 0.3693235197952208, 0.37561362213930943, 0.3818800390938945, 0.38825340642535283, 0.39461799042389445, 0.4010609685245643, 0.40753274461197125, 0.4141102898926288, 0.4206283057478104, 0.42716220657673065, 0.43374353054510134, 0.4403525510214783, 0.44691568803227427, 0.4535853590945474, 0.4603470394021448, 0.4670462394558068, 0.4737675965919736, 0.4804373035678578, 0.4872075695876698, 0.4941308078684137, 0.5009096094370187, 0.5077078361743185, 0.514445832481691, 0.5212861833643578, 0.5281042593969987, 0.5349645784157098, 0.5418291166218094, 0.5486967186627785, 0.5555661804330785, 0.5624930547435854, 0.5693552686281278, 0.5762186678678214, 0.5830711104509648, 0.5899327695742546, 0.5967845053702943, 0.6036356399998312, 0.6104784183581017, 0.6173473882525425, 0.6241640913356464, 0.6309490247371338, 0.6377442290509192, 0.6445234359681372, 0.6511145996589083, 0.6578784411664493, 0.6647719015753331, 0.6714543442529353, 0.6781146624776131, 0.6846322510016177, 0.691257847953649, 0.6979008578938249, 0.7044506709331225, 0.7109674497818811, 0.7174033182804381, 0.7238556725837553, 0.7301958132375241, 0.7365763717284862, 0.7429107019067808, 0.7492446479247545, 0.7554786367403369, 0.761604805072029, 0.76775359323598, 0.7738503624213017, 0.7799355278205959, 0.7859202637766718, 0.7917387597854361, 0.7976311256946064, 0.803461543976769, 0.8092810766329309, 0.8149792222753682, 0.8205439479311973, 0.8261276650975728, 0.8316435392238889, 0.837111437775781, 0.8424865610661776, 0.8478698347872886, 0.8530953638892836, 0.8582535199254974, 0.8634198832757555, 0.8684279280610843, 0.8733210116220526, 0.8781956225126765, 0.882994596714121, 0.8875768001496614, 0.8922370553536302, 0.896731445330403, 0.9012242675346452, 0.9056234327417414, 0.9100735827988745, 0.9142671835823254, 0.9183388629402833, 0.9223640077142312, 0.926298447656032, 0.9300584775716113, 0.933818710683015, 0.9376817720603045, 0.9412190498416989, 0.9446682561064557, 0.9477381100838622, 0.9510415591426661, 0.9545136755176039, 0.9575621673707266, 0.9605172689023189, 0.9631860227606107, 0.9659729563248243, 0.9685679042350831, 0.9711466108071037, 0.9736113603902925, 0.9762002765511782, 0.9784087191574085, 0.9804301420705536, 0.9824495428299476, 0.9843615921831517, 0.9862120887161961, 0.9879015757731298, 0.9895050750355114, 0.9909777417644369, 0.9923431662769658, 0.9933938795810793, 0.9945682764571993, 0.9957659552438904, 0.9966804822285605, 0.9974837301039421, 0.9982476122739408, 0.9988180732025156, 0.9991099169357266, 0.9994846793104136, 0.999740147802313, 0.9999958674299283, 1.0, 0.9997129147970252, 0.9995185736375435, 0.999202975833457, 0.9989326114797078, 0.998357247259648, 0.9976733320231119, 0.9968804971697082, 0.9959784676382831, 0.9949205829935832, 0.9938055636224823, 0.9926455563748258, 0.9912982409422252, 0.9896265729810606, 0.9880916640000148, 0.9864370710718928, 0.9848505467075249, 0.9829385197710092, 0.9808914443527593, 0.9787752101286358, 0.9765532814500243, 0.9742209366172816, 0.971789651978574, 0.9693364892752968, 0.9666864025763643, 0.9639377792641526, 0.9610235537622026, 0.9580866584615343, 0.9550376843896196, 0.9518995405989592, 0.9486609942075411, 0.945385104405759, 0.941941221070821, 0.9382385165918112, 0.934629021120101, 0.9309180684764738, 0.9271646042995205, 0.9232498949045979, 0.919196605250104, 0.9151049975055443, 0.910921545512822, 0.9067306708703846, 0.9023584416881085, 0.8977493624043111, 0.8932338601848889, 0.8886298106505907, 0.8839860519563792, 0.8792060183045277, 0.8745585454689032, 0.8695951462171733, 0.8645678689664167, 0.8592546355705311, 0.8541277616040118, 0.8491367218205614, 0.8438336068541631, 0.8384709962970124, 0.8330545053592219, 0.8275737616056701, 0.8217980894164046, 0.8162334251580249, 0.8105998333761743, 0.8050448801715157, 0.7992639597090013, 0.7934359388790687, 0.7875512881843544, 0.7816176106874195, 0.7757293512986261, 0.7696904046178793, 0.7634986661910028, 0.7573965765653065, 0.7512507921085698, 0.7451872681377469, 0.7389444905508418, 0.7326245462947123, 0.72632726047174, 0.7199987923361857, 0.7134496775019961, 0.7070878309563828, 0.7006735039809209, 0.6942428892221815, 0.6877807585600673, 0.6813521467622419, 0.6748282107217161, 0.6683469799361677, 0.6617788571654726, 0.6551992388009137, 0.6486613397153745, 0.6420569556512067, 0.6353764780416645, 0.628774854387772, 0.622167883276073, 0.6156814243435014, 0.6090538592428519, 0.602381998528425, 0.5957765267756815, 0.5891773676856727, 0.5824259436879886, 0.5758641786089052, 0.5693714611911224, 0.5628079159358372, 0.5562556557041568, 0.5497993614965607, 0.5432653572751948, 0.536582904854748, 0.53011561060116, 0.5236632551485596, 0.5174454131281898, 0.5110034648378806, 0.5043071385726464, 0.49797190229624716, 0.4916564683135583, 0.4853690919580469, 0.4791016791030144, 0.47293532737861366, 0.46671879722618365, 0.46053991357760055, 0.45447774858941214, 0.4483691587439644, 0.4422556159156235, 0.4362477681478164, 0.43028542936746983, 0.424364758567696, 0.4184980322520087, 0.41269590550918267, 0.4069267237649387, 0.4012100631247738, 0.3956916122632415, 0.3900650118135233, 0.38442486461189834, 0.37893577949690227, 0.3735061923484225, 0.3679458135462333, 0.36266170928387265, 0.35756817144345776, 0.35237108637415193, 0.3472375023860062, 0.3422509255089795, 0.33723654020064486, 0.33222577483749066, 0.3273615465814761, 0.32256470691380124, 0.317634697774197, 0.3130005601530837, 0.3084713982250046, 0.3039507631405312, 0.2994957599787634, 0.29508213444424125, 0.29076620709728573, 0.28666331487867325, 0.2824673745450613, 0.2783505941438316, 0.2742561092496485, 0.27030466653177054, 0.26634645808762053, 0.2625576256077711, 0.2588408764921341, 0.2552230606347776, 0.25165018300200026, 0.24822069681082495, 0.2447923358455988, 0.24144489061856708, 0.2382607813018775, 0.23506412622661582, 0.23195243508409968, 0.22892485025389311, 0.2259805941155334, 0.22313961402359428, 0.22035734149104105, 0.2175233497477818, 0.21492241163209969, 0.21239509910128576, 0.210029662456786, 0.20763980791493347, 0.20528315617349174, 0.2030580275641794, 0.20090897074973568, 0.1989030006193469, 0.19689721442049743, 0.19472293524826959, 0.1929064394684505, 0.19115386083895666, 0.18966784064704123, 0.1880211668315984, 0.18630305275886322, 0.18483092777742763, 0.18342672603849808, 0.18207003555658313, 0.18080488609975093, 0.1798753518256411, 0.1787104907571372, 0.17762775296394612, 0.17644921539331807, 0.17554602060346194, 0.17474465268545597, 0.17396774858976174, 0.17325749535157262, 0.17250455146709334, 0.17193858752323601, 0.17156469307410546, 0.17109730170220291, 0.1706949814540798, 0.17026855733471796, 0.17000333539331156, 0.1697218792353222, 0.16957730763674894, 0.169483454686481, 0.16947114445846903, 0.16947420535314395, 0.16957534146412911, 0.1696749637826904, 0.16982719754594092, 0.17012372318978694, 0.1703656180708328, 0.17068216999234648, 0.1710274205769666, 0.1712999153259605, 0.17176114528601635, 0.17226260809930524, 0.17273630444331511, 0.17332405780078933, 0.1741572302198213, 0.1747851552826223, 0.17545762200533083, 0.17600185525900505, 0.1767779620328202, 0.17767524476347799, 0.17849539590851404, 0.17934759345375562, 0.18029741128860996, 0.18120057929771738, 0.1819335967786867, 0.1829226853379463, 0.1839277685554068, 0.18502607588497086, 0.18605254595181245, 0.18713961381600405, 0.18819823792305487, 0.18927605508873238, 0.19034568593206516, 0.1914605012792054, 0.19257813781725822, 0.19371928597497515, 0.1948704609255419, 0.19596850809170074, 0.19714399256558526, 0.19841021325374514, 0.19957978803175122, 0.20075574510861596, 0.20194170341341922, 0.20312517446662892, 0.2043211189806447, 0.20550609459950445, 0.20669086939355863, 0.20772936507532608, 0.2089275820676229, 0.2102628784363717, 0.2114166125290285, 0.21256555269566718, 0.21354800447084846, 0.21470280577743445, 0.21584432596727068, 0.21696143187647848, 0.21805996926900276, 0.21916019534163664, 0.22021771158943415, 0.22126672517823998, 0.2222845032473279, 0.22328245567090999, 0.2242286886839883, 0.2251881636078581, 0.22631953770506522, 0.22720487686396146, 0.22807551763847173, 0.22894980705178333, 0.22978169418785532, 0.23058847638054633, 0.23137915510276297, 0.23214580544729724, 0.2326441011057004, 0.23338861963055213, 0.23436465500073408, 0.23499092442045882, 0.23559160610139857, 0.23592737888902482, 0.23650171302395656, 0.23710452414923727, 0.23758265000787793, 0.23802203047667017, 0.2384740710225036, 0.23882871890773147, 0.2392345607660076, 0.23950424448789842, 0.2397409401865299, 0.239886545799769, 0.2400606746020741, 0.24022608680445093, 0.2403164153911529, 0.2403678593886362, 0.2403436265450858, 0.2403200049024097, 0.24022275837480242, 0.2401176128580273, 0.23996779449184052, 0.23991802329576395, 0.2396609737336918, 0.23923865106315406, 0.23892451745934465, 0.23856500655129817, 0.2381448896193261, 0.2376973610414229, 0.23719918414898436, 0.23666170580578505, 0.23607916836364234, 0.2355758782823096, 0.23488866723659066, 0.23391141498392637, 0.23318150430707324, 0.23239918008397223, 0.2316228450386215, 0.23073316279590234, 0.22978828777177873, 0.22881091376024876, 0.2277895100722829, 0.2267867636201249, 0.22567158494427375, 0.22448174087670716, 0.22329419903248732, 0.22206635403305547, 0.2208967817690942, 0.21957731739734393, 0.21813666294623513, 0.21676116322272904, 0.2153467901649518, 0.2139509277770265, 0.21245337582396848, 0.21095803896780255, 0.20938819092089161, 0.20778677695031958, 0.20614343884923786, 0.20448019849536261, 0.20269720479929662, 0.20098143055072168, 0.1992294333080173, 0.19750430684096615, 0.19567537951742467, 0.1938324817829427, 0.19194320931271014, 0.1900264567738668, 0.18814467599299514, 0.18616663818976356, 0.18418169323454162, 0.1821570252211583, 0.1801111792503867, 0.17796689161036552, 0.17588915884780323, 0.17379709124831097, 0.17166981002796883, 0.16952060495186072, 0.16721620719623687, 0.16504310058626498, 0.16305006562312024, 0.1607999674904108, 0.15853901421778974, 0.15625188701964157, 0.1539717991566025, 0.151479406752367, 0.1492035115790036, 0.14690658520780356, 0.1448645982739013, 0.1424977265279184, 0.1399405481795709, 0.1375990059651921, 0.1352469869879867, 0.13285501124848229, 0.13049040019723118, 0.1280765861313546, 0.12570298878432695, 0.12332225339714632, 0.12104973874930199, 0.11864552557608112, 0.1163436196832521, 0.11393594650680781, 0.11153911633545262, 0.10905484894131394, 0.10669172900182494, 0.1044267526722351, 0.10206323482862621, 0.0997120473050116, 0.09738372024002934, 0.09505658170455336, 0.09278968419472798, 0.09048455556522123, 0.08819657613570484, 0.08569865193942584, 0.0834741316048762, 0.0814095443070917, 0.07917768250350998, 0.07696378542704368, 0.07468072508114783, 0.0725158450754578, 0.07045381392231015, 0.06830937853906294, 0.06618768504423427, 0.06410994821759604, 0.06203282767708523, 0.05998651175933796, 0.05796046705644326, 0.055961278558589705, 0.05382933331003987, 0.05190551319744881, 0.050109468716980625, 0.04821242698128834, 0.04634429244085344, 0.044376634569493, 0.04258461081341133, 0.04082135533027118, 0.03907753991658211, 0.037582818973223624, 0.035866368081202124, 0.034191980651980675, 0.03237308732769122, 0.030804431826303113, 0.0294361464502103, 0.027907031519286335, 0.026419655146411935, 0.024994268570058896, 0.023586633862254784, 0.022246756686482527, 0.020919398622058, 0.01963483599545593, 0.018330711107131373, 0.01713848326187544, 0.01604661132789841, 0.014923666513467755, 0.013843257967152623, 0.012557352705085548, 0.011592888912985206, 0.010889050113503536, 0.00995367226460847, 0.009063282890963817, 0.008129770607593605, 0.007339525091376856, 0.006650468434133987, 0.005931345181422049, 0.0052558856006498685, 0.0045568626637447094, 0.003976934542481095, 0.003312708254672689, 0.0028281777661564003, 0.002377187389158586, 0.002095328035203726, 0.0016982617873945607, 0.0014077081285783367, 0.0010916597456518287, 0.0008231480754552192, 0.00043618492973201837, 0.00028145105971421903, 0.0001628979690116546, 8.125431276131831e-05, 3.712112565905976e-05, 0.0, 3.6150277397261375e-05, 0.00010921227842690842, 0.0002196243201113982, 0.00036771187253342, 0.0007447568484636177, 0.0009446153627485438, 0.001069342428178742, 0.001380902502887783, 0.0017312976196304233, 0.0021046986243311843, 0.0025336834808963, 0.003061511255975379, 0.003556133507429011, 0.004090508303565033, 0.004658622109342316, 0.005270637445010809, 0.005945477118301468, 0.006627516271638899, 0.007346581139067006, 0.008117264162838126, 0.00890576369489998, 0.009776046344128873, 0.010628367662410328, 0.011516806542990964, 0.012192286816736671, 0.013180728803953061, 0.014337702495582796, 0.01534575995809825, 0.01638277798071804, 0.017432675849364695, 0.018527794804397306, 0.019607895314502674, 0.02076032473419719, 0.021935710454559568, 0.023164822428710288, 0.024381502820635975, 0.025549764832564572, 0.02682269957714762, 0.02811416564771463, 0.029501533706847716, 0.03081992626037285, 0.032088397991096196, 0.033459732150851976, 0.034847510224907306, 0.036225578827769264, 0.03764844477797681, 0.03918840150008822, 0.04062555088944732, 0.04208166269662635, 0.04349868505679082, 0.04499619977541366, 0.04653686022166307, 0.04805412293333196, 0.049583946167977164, 0.05109440117710503, 0.052650440317120954, 0.054209346457646274, 0.05578144861210307, 0.05735997158395245, 0.0589597642882751, 0.060547225111321414, 0.06216581610596477, 0.06375982153800107, 0.06535896417282815, 0.06715329103992314, 0.06873554777774983, 0.07026359405329692, 0.07187771766324554, 0.07349629454523615, 0.07505069177395607, 0.0766822612502704, 0.07836196400846458, 0.07997933377230056, 0.08159478773887903, 0.0832640787313097, 0.08486543814629757, 0.08648576568418762, 0.08807980980629146, 0.08967077068048662, 0.09136062628602383, 0.0929285780405622, 0.0945989353875259, 0.09615025344549902, 0.09770300608720679, 0.09915159762027463, 0.10071356609306928, 0.10231657642847342, 0.10385001428682765, 0.105374213235047, 0.10695522702558442, 0.108449350083939, 0.10990928929292104, 0.11138864035908831, 0.11285571316082842, 0.11449558552092201, 0.1159122400061862, 0.11710282738086436, 0.1185374445623989, 0.11995170546392404, 0.12155236105942721, 0.12290037785312707, 0.12428148768350342, 0.12560633452901668, 0.12692244698604777, 0.12813539334488822, 0.1294415308206698, 0.13081761198734976, 0.13207675862645954, 0.13332261635239226, 0.1345078838381802, 0.13573068119716014, 0.13694062185131156, 0.1381266057696606, 0.13929466193655338, 0.140558311242788, 0.14167594175763912, 0.14292647131178193, 0.14400155814092064, 0.14507143324763105, 0.145938090104843, 0.14701725818724554, 0.1481014189576566, 0.14913616440659522, 0.15015251308827612, 0.1511765547155461, 0.15215367611055736, 0.15316118756159294, 0.15410037602717092, 0.15502634777742078, 0.1558253088288884, 0.15673871271980164, 0.157828394273278, 0.15867802828390207, 0.1595205327054441, 0.16029318784222207, 0.1611271537749615, 0.16199515833784928, 0.16279853056037932, 0.16359243063352155, 0.1644438611928229, 0.16521003853195917, 0.16594973208401, 0.16670643644398228, 0.1674554308644363, 0.16829481712582445, 0.16901604586939944, 0.1696010389434242, 0.1703347259019382, 0.17105794016897005, 0.17175601580790548, 0.17246271608925579, 0.17337225443801307, 0.17403537549730438, 0.1747033661554801, 0.17512757106212098, 0.17583444931013698, 0.17673701863130556, 0.17739779161749425, 0.17806265047783063, 0.17860237161297104, 0.1792914551467977, 0.17997217465041943, 0.18065674330435794, 0.18131442670009598, 0.1820013203441313, 0.18268804478049114, 0.18338625040219658, 0.18407523943454562, 0.18478392469482133, 0.18548044152064702, 0.18618415163679025, 0.18677201192829304, 0.18750842592166897, 0.18828384781366073, 0.1890232629402984, 0.18977113143410868, 0.19060105046811154, 0.19136052752848157, 0.19203811016241978, 0.19284295573149823, 0.19365959224261303, 0.19459781656352187, 0.19542831878491276, 0.196125628227106, 0.19701942715944587, 0.19792684306834962, 0.19886497863407004, 0.19980239109596473, 0.20091370916607362, 0.20187070249881808, 0.20285767979047312, 0.20369372103686137, 0.20476305249732424, 0.2060171933021054, 0.207106311488555, 0.20822724902350792, 0.20932321777821974, 0.21051509435004984, 0.21175652655691934, 0.2130042771530222, 0.21428345697609485, 0.21544999976320617, 0.21681189436124598, 0.2183071533452223, 0.21970691839076098, 0.22114102174402242, 0.22270817919574737, 0.22420036606575905, 0.22563609372780719, 0.22722379801251416, 0.22884735860416103, 0.2305385319741296, 0.23223218579274102, 0.2338314277397645, 0.2356222023730005, 0.23744620462451352, 0.23924817981682528, 0.24115032741842363, 0.24309709845837338, 0.24506817205461107, 0.24707724234591452, 0.2491926916161114, 0.25127290667693963, 0.25344992985464293, 0.25561433788581556, 0.25782755085307446, 0.26006366726697433, 0.26237753578405637, 0.2646921225966004, 0.2671064525679752, 0.26956576147462796, 0.27206544443161057, 0.2746169851723884, 0.2772973490121507, 0.2799312949577457, 0.28261692145935124, 0.2852093280973945, 0.28801568872937666, 0.2910403465132805, 0.2939109145609615, 0.29683583812074243, 0.2997989309118059, 0.3028325129763606, 0.3056440295701577, 0.30881506492358524, 0.31202163320535065, 0.31546183864702326, 0.31872005691846966, 0.3219264590792167, 0.32530026805402373, 0.3287189750671413, 0.3322243430813921, 0.3357288799279475, 0.33910096270561657, 0.34272474290631094, 0.34638629356336254, 0.3502469049767264, 0.35396718408378525, 0.35774239802527136, 0.3615609061882789, 0.3654281534497219, 0.36940023622252477, 0.3733556682755232, 0.3771543699623027, 0.3812343998272041, 0.3853503981636037, 0.3895649362636824, 0.39374669186144606, 0.39810349301869713, 0.4023495091632796, 0.4066431058954277, 0.41082266947657914, 0.4152271362014678, 0.41976909829940423, 0.42422891596510653, 0.42872858347910886, 0.43332384369956556, 0.43789287110525527, 0.4423055868468473, 0.4469777730738847, 0.4516759771094996, 0.45650370006096574, 0.4612414143677549, 0.4659285756518563, 0.4707398648182197, 0.47557656471626353, 0.4805364275587979, 0.48541037534631853, 0.4901796384549969, 0.4951283069872857, 0.5000962405044304, 0.5052380813194246, 0.5102240343502762, 0.5151696777380917, 0.5202159314489042, 0.5252816558391563, 0.530303731304709, 0.5354127559323705, 0.5405652566107509, 0.5456946592945363, 0.5508368380616833, 0.5559390751733072, 0.5611100642442081, 0.566359895410896, 0.5715340948673521, 0.5767173296931839, 0.581815180248042, 0.5870238316716467, 0.5921699498496839, 0.5973846006982497, 0.6025937216052768, 0.6077969467046045, 0.6129937771518056, 0.6181990852530163, 0.6233792026598937, 0.6285516242170821, 0.6337359687266441, 0.6388872159305763, 0.643997654839821, 0.6491317983201174, 0.6542516154123948, 0.659330124477242, 0.6644210170565219, 0.6695234912826311, 0.6745705837147195, 0.6795977945890401, 0.684655323739068, 0.6896319167153044, 0.6946284875348312, 0.6995553105273699, 0.7044594015066091, 0.7091165949981953, 0.7139970051380793, 0.7189909996795328, 0.7237690526062691, 0.7285140849749516, 0.7332244382541969, 0.7378984823188945, 0.7424623217188175, 0.7470681049924977, 0.7516287899516262, 0.7561692483728094, 0.7606335824524251, 0.7651184148945185, 0.7694797184234694, 0.7737955894068584, 0.7778731391213619, 0.7821168777776961, 0.7863249824527113, 0.7904424399910955, 0.7944995335750438, 0.7985886315974638, 0.8025114251579163, 0.8062531657715357, 0.810075838109043, 0.8138313807939276, 0.817452190917328, 0.8210804511919473, 0.824646465743119, 0.8281281065028571, 0.8315372942665611, 0.8349045267908075, 0.8381633515487543, 0.8414168922437001, 0.8445214484993674, 0.8475864096350515, 0.8505443614025434, 0.8534304676020262, 0.8561346209415838, 0.858885825588878, 0.8615904883789608, 0.8641711896159913, 0.8666700810469969, 0.8689623190590523, 0.8713105317282719, 0.8734949847506936, 0.8756695281695354, 0.8777486900501107, 0.8799653460730175, 0.881825734073083, 0.8836151943044003, 0.8853100060724695, 0.8869207545880392, 0.8882289752077581, 0.8896943828748276, 0.8910901451583009, 0.8923508876032201, 0.8935136425005523, 0.8946352560521666, 0.8955949334980665, 0.8965630643205402, 0.8973194905798567, 0.8979858183234722, 0.898467776020326, 0.898961819630396, 0.8993259834586321, 0.8996259450204525, 0.8998248757539555, 0.8999383428087325, 0.8999334685398047, 0.8998028091890449, 0.8996011941214859, 0.8992980339679132, 0.8991310294445519, 0.8985952451775199, 0.897760024856413, 0.8970738187105592, 0.8962847589733693, 0.8955481783182951, 0.8945350781504879, 0.8932173474441895, 0.8920443460111191, 0.8907650299954281, 0.8894167114126603, 0.8879236147098848, 0.8865308903961276, 0.8848109736297617, 0.8830026728344502, 0.8810843630858405, 0.879099192410444, 0.8769705044371093, 0.8748078416827211, 0.872550009872919, 0.8702438890817786, 0.8677911222905208, 0.8652885005508597, 0.8626483835801253, 0.8599199223532465, 0.8568862956007329, 0.8540088587474406, 0.8509849584896934, 0.8479155545604683, 0.8447477021860296, 0.8415817895244784, 0.8382113221636447, 0.8348162926216987, 0.8312660396500938, 0.827634942191693, 0.8237635283130769, 0.8199928591245028, 0.8162944411341607, 0.8123299562982884, 0.8082906733039953, 0.8042339836047991, 0.8000397721866326, 0.7957552983778486, 0.7914248402833548, 0.7870244505802861, 0.7823534993483107, 0.7778410601369051, 0.7733996444496423, 0.7687134234229528, 0.7639619502804907, 0.7591257115568005, 0.7542498117817615, 0.7491561344833725, 0.7441755155413693, 0.7391261992599033, 0.7340676828627564, 0.7288817369425741, 0.7237050901330273, 0.7183968579419281, 0.7130382421764985, 0.7076149936788388, 0.7021613316514824, 0.6967118867335304, 0.69115832494361, 0.6855631966942631, 0.6799895542371582, 0.674306787967567, 0.6685480829642069, 0.6628020599475684, 0.6570207599927452, 0.6510609270579213, 0.645231394274233, 0.6394349041483318, 0.6335203671739436, 0.6275758046453627, 0.6217476572377456, 0.6157303169103568, 0.6096294669907371, 0.6035885123589625, 0.5975288644358421, 0.5912402658824029, 0.5851744112973174, 0.5791754198275583, 0.5730489144010028, 0.5669078983810828, 0.5608578216297012, 0.554681193965023, 0.5483266420255128, 0.5421686864173267, 0.5360009543266687, 0.5299862319970944, 0.5237867093624533, 0.5175941521174648, 0.5114096345027369, 0.505234294979472, 0.4988885979295574, 0.4927581032182162, 0.48679561628661416, 0.48065254743886465, 0.4745269398942524, 0.4683580048220146, 0.46227872666758657, 0.45609315577216464, 0.4500666097345385, 0.4440542879720087, 0.43803825272858976, 0.43206498770861984, 0.426241581417445, 0.4202959813817454, 0.4143831674914292, 0.40846814863352227, 0.4026289563737743, 0.39671558672202495, 0.390960106696607, 0.3852357297620326, 0.37959122116015453, 0.37392991312060625, 0.36827264884561267, 0.36269783522053656, 0.35716421333151677, 0.3518180913602278, 0.34635365604540885, 0.34077820673673487, 0.3354434402538067, 0.3301543516902246, 0.32495404814295886, 0.3197563782453829, 0.3146117882368522, 0.30952145128453945, 0.3044864990427568, 0.29944089491598447, 0.2945284383875127, 0.28990829691150577, 0.2850768968827555, 0.2803165599332544, 0.27558540110909296, 0.2709708412653503, 0.26639275995055145, 0.26191720538695307, 0.25750776950716503, 0.2531649873537976, 0.2488894099946547, 0.24459897948162457, 0.24046995044333108, 0.23640519020386352, 0.23244724136156816, 0.22850940572337958, 0.2246880708351698, 0.22088506537402297, 0.21715596690536568, 0.21350098879949062, 0.2099203579570711, 0.20644012901066172, 0.20300564070373642, 0.19964766694907018, 0.1963559119378974, 0.19315238816526098, 0.18984938113858013, 0.1868203818468912, 0.1838579225475013, 0.1809067543372114, 0.1780890256809074, 0.17553497891137845, 0.17282884656945463, 0.17020395707479094, 0.1675772102449912, 0.165123836605991, 0.1628283172016854, 0.16051520953799361, 0.15822042471996547, 0.15607517009326288, 0.15400563100935194, 0.15191367229836825, 0.1500078468856952, 0.148270120927018, 0.14649248688259628, 0.14479144543175848, 0.14304262598803175, 0.14150909513477392, 0.1402297085978007, 0.13880966217654428, 0.13746913303307798, 0.1361242200076635, 0.1349493923552775, 0.13370120098976762, 0.13268664829456878, 0.13173426445375927, 0.13088082922194708, 0.13004993186187536, 0.1293620601085448, 0.12865235303523845, 0.12801215079879125, 0.12732171535502704, 0.12683261617005726, 0.12657382159501823, 0.12618293836816163, 0.1258613127462714, 0.12561245827538786, 0.1254238105382368, 0.1251863485044223, 0.12514012674202024, 0.12514934096147917, 0.1253787273410027, 0.12547633679689343, 0.125420054466464, 0.12566902359191767, 0.12596484834177304, 0.1263177702870318, 0.1267056121878966, 0.12714025136972315, 0.12762116072913407, 0.128147724662339, 0.12885866861968717, 0.12945675373834445, 0.1300234000504208, 0.13073228010791113, 0.13148376262207642, 0.13231280692451175, 0.1331413507494961, 0.13387667039070672, 0.13480274318789745, 0.1357593145285236, 0.13694738588539448, 0.13793822461290828, 0.139093313440661, 0.14014681543970106, 0.14124309768421242, 0.1420537689306039, 0.14326774028953063, 0.1445544533402443, 0.1457932642779409, 0.14705132170526589, 0.1483486542168236, 0.1496406368379882, 0.1510438700608909, 0.15235970581745728, 0.1536970239839574, 0.15502819170512125, 0.15640636221669585, 0.15786127951727624, 0.15925975258757175, 0.1606736571066583, 0.16199784130370753, 0.16345011919098765, 0.16494278987043598, 0.16639817103064883, 0.16785814779936947, 0.169311206274855, 0.17077812511647417, 0.17226100526460658, 0.17372581627530786, 0.17518978354869938, 0.17663103047130038, 0.178092270658381, 0.17961501280025569, 0.18105549725101217, 0.18249208645638731, 0.18377346595072763, 0.185216565066675, 0.18660670739618, 0.1880205699565957, 0.18941512261992374, 0.1908729026248165, 0.19221802697226495, 0.19367183134518481, 0.19496973663096367, 0.1962572531004919, 0.19742907291385306, 0.19870290401708965, 0.19998065910269058, 0.2012066022004987, 0.20241043304462467, 0.20362726162014966, 0.20477922040553517, 0.20587709798458814, 0.20698554231235242, 0.2080667459125754, 0.2091353417640895, 0.21015755741013517, 0.2110321410226877, 0.21201073800073975, 0.21295203732594878, 0.2138200231345576, 0.21469160704744242, 0.21568409790841048, 0.2164573101469356, 0.21720066116368167, 0.21781479342552043, 0.21850718062762792, 0.21932597349656516, 0.21991960280502565, 0.22048325702695673, 0.22090177186592663, 0.2214153071484691, 0.22173334041486917, 0.22218505719233483, 0.22258704317088246, 0.222991966456365, 0.2232909073570126, 0.22354052080513168, 0.22375201160795777, 0.22391944827158833, 0.22403267796969953, 0.2241137962720201, 0.22437789764627672, 0.224342004658502, 0.2242749309128891, 0.22399938967018063, 0.22388720372292284, 0.22365197871635187, 0.22345868789072074, 0.22321598762812384, 0.22307965547201916, 0.2227210606316558, 0.22216402743747232, 0.2217483462325506, 0.22128421458812772, 0.22106684262447357, 0.2204711514830277, 0.2198511127458155, 0.21919406755198287, 0.21850469210683726, 0.21759068260457626, 0.2168572803242615, 0.21611385297242466, 0.21528440879597766, 0.21441253309951408, 0.2134626024545348, 0.21251201515188856, 0.2115805392984691, 0.21053726150298477, 0.20945628689612383, 0.2083224340215362, 0.20716899875452693, 0.2058076540878474, 0.20460131155585207, 0.20334903675698698, 0.20219738100926632, 0.20084070760371797, 0.19928127084183272, 0.19788181692263507, 0.19644126134650577, 0.1949459430834687, 0.1934304942261047, 0.19214667740378685, 0.1905250939095483, 0.18888474804601124, 0.18715255943194434, 0.1854816461269932, 0.18370861922353965, 0.1819984736685713, 0.18025996703778333, 0.17847864459848378, 0.17668846167059324, 0.1748514386032665, 0.17301259928064813, 0.1711485903067554, 0.1693845540175841, 0.16745813030480405, 0.16536209238867222, 0.16342595330898543, 0.16146671480241012, 0.15951688461522368, 0.15751202861335095, 0.15555212963057982, 0.15350649143963646, 0.1514494356542882, 0.14936083240196196, 0.1472851716258001, 0.14516765292574826, 0.14307496846201145, 0.14097130141233938, 0.138857733511048, 0.13673532542083874, 0.13473937650569437, 0.13258542172713872, 0.13025250715400621, 0.1281248631670739, 0.12598880171528815, 0.12390272262608891, 0.121747357490576, 0.11980819572487955, 0.11762497783760088, 0.11545508694642405, 0.11315310330395924, 0.11102585501765402, 0.10889160197303945, 0.1067732057011667, 0.10465936281470797, 0.10265951102731401, 0.10054405519316224, 0.09835443293204503, 0.09627741745677594, 0.09420940495021848, 0.09205328282588496, 0.09001866637209177, 0.08796985389311988, 0.08595251781491361, 0.0839438710126446, 0.0821573287926764, 0.08014428148158372, 0.07820304807680968, 0.07623448856411157, 0.07429336777009407, 0.07223980781409642, 0.0703699666577373, 0.06842067442732058, 0.06660160745260389, 0.06479775269541367, 0.0632638939520706, 0.06146361816929964, 0.059532403997824515, 0.05782098020104504, 0.056133445005958675, 0.05451207271665687, 0.05286993680789601, 0.05130839779765442, 0.04971814853958407, 0.04816075092773211, 0.046553665988192605, 0.0450727090518248, 0.043563545929154124, 0.042147829715862235, 0.040759204770269994, 0.039445365825244334, 0.03810860563600435, 0.03684621187750291, 0.03557089854765755, 0.03433203850474278, 0.03323306233927411, 0.03205452720925779, 0.03068120102917376, 0.029617527294603097, 0.028582059615567784, 0.027725998188626932, 0.02673220786657359, 0.02570147315976155, 0.024798320060135805, 0.023931002045948953, 0.023265257605951144, 0.02245015762834014, 0.02170731951042062, 0.02098085870944674, 0.020300446003980198, 0.019530862872527612, 0.018956759878738568, 0.01836699994173483, 0.01787182865216748, 0.01741057248387216, 0.016937515102156957, 0.01655213965274858, 0.016132928189893016, 0.01582348368058236, 0.015545155503207116, 0.01526295529193682, 0.015054731246850129, 0.014961186595558718, 0.014807610871442053, 0.014692516857716822, 0.014719174869841402, 0.014667918811492542, 0.014578150643076706, 0.014624575620942626, 0.014708572584657652, 0.014886745361276163, 0.015038080726947341, 0.01518301796429746, 0.015419639675943187, 0.01569227910674919, 0.016124559761252197, 0.016452625109065585, 0.016693589586649064, 0.017120602442927065, 0.017579748602705763, 0.018091561969367984, 0.01861195639913895, 0.019113515199450197, 0.019705633785591, 0.02032682492677279, 0.021039032061950538, 0.021710404246399605, 0.022367599540863526, 0.023108743725056714, 0.023878193214589075, 0.024691137519413667, 0.025514296135682953, 0.026443070947883122, 0.0273122265311333, 0.02821281679814735, 0.02901973409964626, 0.029995395606513653, 0.031214234717329568, 0.03220409049594136, 0.03322746003650076, 0.03417913502718442, 0.03527694879873892, 0.03626804695621726, 0.03742626532594071, 0.03859828017509557, 0.03975349266670802, 0.04095804678070269, 0.04232520324797252, 0.043536829627585635, 0.04477018953206424, 0.04587956060450986, 0.047171305631555055, 0.04845790907394613, 0.0497724699522388, 0.05109671828787611, 0.05254949633062386, 0.053878227659676675, 0.055347170496019144, 0.056691638531655104, 0.058057074634315566, 0.05924519015522398, 0.0606713355879115, 0.062189492270737015, 0.06361294593759376, 0.06504538320619564, 0.06651172674747914, 0.0679562054018942, 0.06932072303172208, 0.07079091670151129, 0.07226199366612904, 0.07386281237656346, 0.07531857912268962, 0.07666286122124925, 0.07814680378144798, 0.07962864886056362, 0.08121140194051844, 0.08267514539257946, 0.08419846395193077, 0.08565936679623028, 0.08712389413354871, 0.08854921824091798, 0.09002178467312681, 0.09153792735802399, 0.09299796583694195, 0.09445605020506984, 0.09596784520760526, 0.09741151747582033, 0.09871384672105038, 0.10016994866437257, 0.10161371579011813, 0.10327751373727538, 0.1046671825091527, 0.10602645202022094, 0.10741922844665802, 0.10880710109600533, 0.11013709417852613, 0.11151780939325226, 0.11287161164086225, 0.11423088832046818, 0.11557681444829025, 0.11708978363439608, 0.11838516855374824, 0.1197641868850267, 0.12103844835588645, 0.12231023802991535, 0.12352070484617882, 0.12478883352114511, 0.12591162151109198, 0.12717364397076633, 0.1284153436447071, 0.12985399963620015, 0.13102880400265787, 0.13200034232120625, 0.1331844350388038, 0.13434779228349839, 0.13559935521961688, 0.13670899573042877, 0.13800159335269313, 0.13905940897605767, 0.14004178778156778, 0.14110054096706573, 0.14214852294194605, 0.14328816831339306, 0.1442991680598397, 0.14531856657368183, 0.14631213000609983, 0.14729708966212748, 0.14815881454494306, 0.14913802537318716, 0.1501151857293852, 0.15105772647379656, 0.15198435525532647, 0.15313288232064087, 0.15399851487122557, 0.15470756593289428, 0.15558788832864912, 0.15645498490700155, 0.15747426668667122, 0.1582945847155824, 0.15899284893864407, 0.15982059141250715, 0.16063654791258897, 0.16147718366251115, 0.16226599846112147, 0.1631287583845126, 0.16388992157752744, 0.16464740147918716, 0.16552989739356608, 0.16626264060160326, 0.16692069879439086