0.09872714845133393, 0.09659197073298922, 0.09452283826284162, 0.09251032318010023, 0.09054618214593643, 0.0886232429780532, 0.08673530026285488, 0.08487701934582735, 0.08304384813500097, 0.08123193618493571, 0.07943806055961213, 0.07765955800200146, 0.07589426296599579, 0.07414045109286453, 0.07239678773953379, 0.07066228118981761, 0.06893624020232504, 0.06721823557017759, 0.06550806538795448, 0.0638057237404863, 0.06211137254629344, 0.060425316305660025, 0.058747979519592174, 0.057079886561276334, 0.055421643796169914, 0.05377279049022383, 0.052136461225461284, 0.050513213873660444, 0.048901441821442466, 0.047303307405670125, 0.04571963482682056, 0.044151253856539, 0.04259899408269748, 0.04106368010105414, 0.03954612755607656, 0.03804713994098335, 0.03656750607408438, 0.0351074315399171, 0.03366887547324033, 0.03225190309421257, 0.030857801442571935, 0.029486065832160263, 0.02813804657555041, 0.02681439980535244, 0.025515196693064093, 0.02424226241345875, 0.022995530547645613, 0.021775593761301646, 0.020583029754502602, 0.019418969165773008, 0.01828275870354693, 0.01717560901339662, 0.016098046392704474, 0.01505058931460735, 0.014033749676734179, 0.01304803402064333, 0.012093944712211186, 0.011171981074689065, 0.010282640467483253, 0.009426419304931917, 0.008603814010460113, 0.007815321902497703, 0.00706144200945186, 0.006342675811842242, 0.00565896127527002, 0.005012011621940905, 0.0044016693135415005, 0.003829022752855803, 0.003293393280459814, 0.002795982066920581, 0.002337320773709949, 0.0019179469616822827, 0.0015384041780086937, 0.0011992419813090084, 0.0008998826373005083, 0.0006432973842100675, 0.00042871321629714664, 0.0002578452020579748, 0.00012886949073069614, 4.031639711783436e-05, 0.0, 4.489047076972718e-06, 5.7804067365812565e-05, 0.00015333666021597253, 0.00029459528735625303, 0.0004845836957626835, 0.0007225587801300696, 0.0010096958373874757, 0.0013453993578460956, 0.001730949025837543, 0.0021669495463999895, 0.0026540052770633506, 0.0031927195954693714, 0.003783694262090775, 0.00442809541511819, 0.005125314751076848, 0.005876615420127955, 0.006682581765995951, 0.007543793888460507, 0.008460826958055433, 0.0094342505411662, 0.010464627936376297, 0.011552515522828368, 0.012698462121283676, 0.0139007418278043, 0.015164706113484132, 0.016488197081566187, 0.01787401190950364, 0.01931784877744381, 0.020822326044152847, 0.022389121604493717, 0.024018026808390654, 0.025709495527235837, 0.027463968420097455, 0.029282439106387753, 0.031164115539562453, 0.033110066125443635, 0.03512066969951253, 0.037196290337877004, 0.03933727693008529, 0.0415439627705779, 0.04381666516829937, 0.0461556850739803, 0.04856130672458863, 0.051033797304443504, 0.053573406622479045, 0.056180366805141504, 0.05885489200440467, 0.06159717812038607, 0.06440740253805266, 0.06728572387750675, 0.07023228175735068, 0.07324719657063608, 0.07633056927291244, 0.07948248118190006, 0.08270299378832648, 0.0859921485774746, 0.08934996686100882, 0.09277644961865639, 0.09627157734934134, 0.09983530993138003, 0.10346758649136899, 0.10716832528140946, 0.11093742356433499, 0.11477362423628434, 0.11867919208277206, 0.12265262061341015, 0.1266942978534626, 0.13080281769078878, 0.13497862644865327, 0.13922147329866372, 0.14353108549072124, 0.1479077349638274, 0.15234990014683977, 0.15685791247652806, 0.1614314067613695, 0.16606999636765282, 0.17077327315627244, 0.17554080742725478, 0.18037214787183195, 0.18526682153189575, 0.19022433376669115, 0.1952441682266296, 0.20032578683412072, 0.20546862977134278, 0.21067211547489012, 0.21593564063725443, 0.22125744694477106, 0.22663929744847186, 0.23208031678361668, 0.23757741408474542, 0.2431312256978699, 0.24874101608998797, 0.25440602839505455, 0.2601254844536357, 0.2658985848607624, 0.27172450902200096, 0.27760241521776674, 0.2835314406759198, 0.2895107016526878, 0.29553929352196767, 0.30161629087306896, 0.30774074761696313, 0.3139116971011107, 0.32012815223294055, 0.3263891056120604, 0.33269352967127885, 0.33904037682652033, 0.34542857963571855, 0.35185705096676834, 0.3583246841746232, 0.3648303532876142, 0.37137291320307575, 0.3779511998923502, 0.3845640306152491, 0.39121020414403873, 0.39788850099701806, 0.4045976836817472, 0.4113364969479877, 0.41810366805039867, 0.42489790702103813, 0.431717906951705, 0.4385623442861549, 0.44542987912220944, 0.45231915552378005, 0.4592288018428114, 0.4661574310511476, 0.4731036410823091, 0.48006601518317005, 0.48704255564033516, 0.4940330223294107, 0.5010352865598415, 0.5080484477220676, 0.5150698203122244, 0.5220980142981382, 0.5291327241461731, 0.5361717579583378, 0.5432141541549199, 0.5502571685350347, 0.5572999213139128, 0.5643408480081659, 0.5713783751456358, 0.5784097874578591, 0.5854359047086137, 0.5924549223740717, 0.5994628350211255, 0.6064593794852208, 0.6134429362475745, 0.6204118804505913, 0.6273645824083693, 0.6342994081264601, 0.641214719830539, 0.6481088765036386, 0.6549802344315894, 0.6618254478508183, 0.6686464840428148, 0.6754396842930673, 0.6822051132345259, 0.6889375193010919, 0.6956355751822371, 0.7023012442373083, 0.7089308672176363, 0.715524511602197, 0.7220769320439351, 0.728587944088044, 0.7350571142241618, 0.7414827063102114, 0.7478618935764967, 0.7541937305319777, 0.7604766039721763, 0.7667089088076396, 0.7728890486409404, 0.7790154363488502, 0.7850864946690738, 0.7911006567909477, 0.7970563669495173, 0.8029520810224167, 0.8087862671289885, 0.8145574062310914, 0.8202639927350509, 0.8259045350942256, 0.8314775564116624, 0.8369815950423324, 0.8424152051944426, 0.8477769575293318, 0.8530654397594661, 0.858279257244058, 0.8634170335818476, 0.868477411200583, 0.8734590519427573, 0.8783606376471589, 0.8831808707258029, 0.8879184747358252, 0.8925721949459237, 0.8971407988969352, 0.9016230769561577, 0.9060178428650206, 0.9103239342797265, 0.9145402133044924, 0.9186655670170149, 0.9226989079858129, 0.9266391747790921, 0.9304853324647925, 0.9342363731014812, 0.9378913162197682, 0.9414492092939265, 0.9449085615682348, 0.9482696826859707, 0.9515310365934716, 0.9546923582257851, 0.9577516405489166, 0.9607087815573946, 0.9635630350983054, 0.9663136864983224, 0.9689600529220476, 0.9715014837186325, 0.9739373607564058, 0.9762670987452358, 0.9784901455463733, 0.9806059824695299, 0.9826141245569537, 0.9845141208542768, 0.9863055546679187, 0.9879880438088423, 0.9895612408224599, 0.9910248332045097, 0.9923785436027196, 0.9936221300040977, 0.9947553859076861, 0.9957781404826347, 0.9966902587114523, 0.9974916415183107, 0.998182225882278, 0.9987619849353719, 0.9992309280453331, 0.9995891008830248, 0.9998365854743754, 0.9999735002367964, 1.0, 0.9999162760111695, 0.9997225559244327, 0.9994191037745987, 0.9990062199351321, 0.9984842410603405, 0.9978535400117668, 0.9971145257687795, 0.9962676433233705, 0.9953133735591705, 0.9942522331147045, 0.99308477423092, 0.9918115845830269, 0.9904332870966923, 0.9889505397486511, 0.9873640353517923, 0.9856739346896213, 0.9838822044484088, 0.9819895370549898, 0.9799955618437269, 0.977901816103535, 0.9757091952051409, 0.9734186275282466, 0.9710310741172938, 0.9685475283231908, 0.9659690154311071, 0.9632965922744529, 0.9605313468351693, 0.957674397830466, 0.954726894286143, 0.9516900150966531, 0.9485649685720607, 0.9453529919720661, 0.942055351027268, 0.9386733394478455, 0.9352082784198519, 0.931661516089316, 0.9280344270343557, 0.9243284117255123, 0.9205448959745287, 0.9166853303717909, 0.9127511897126664, 0.908743972412977, 0.9046651999138502, 0.900516416076199, 0.8962991865650863, 0.8920150982242326, 0.887665758440939, 0.8832527945016945, 0.8787778529387484, 0.8742425988679284, 0.8696487153179954, 0.8649979025518227, 0.8602918773797094, 0.8555323724651088, 0.8507211356231049, 0.8458593624767552, 0.8409500339198518, 0.8359948354943035, 0.8309943681058681, 0.8259511186293595, 0.8208669096037305, 0.8157435737368969, 0.8105829531492269, 0.8053868986132536, 0.8001572687899162, 0.794895929461648, 0.7896047527626232, 0.7842856164064878, 0.7789404029118917, 0.7735709988261575, 0.7681792939474055, 0.7627671805454754, 0.7573365525819779, 0.7518893049298101, 0.7464273325924794, 0.7409525299235707, 0.7354667898467045, 0.7299720030763284, 0.724470057339683, 0.7189628366002964, 0.7134522202833447, 0.7079400825032316, 0.7024282912937331, 0.6969187078410526, 0.6914131857201355, 0.6859135701345906, 0.6804216971605613, 0.6749388263597256, 0.6694679782099925, 0.6640102868269537, 0.6585681154832416, 0.6531420425014122, 0.6477339404845196, 0.6423467642043534, 0.6369815785971686, 0.6316406743026102, 0.6263245535786546, 0.6210355761918348, 0.6157754091544465, 0.6105457012857857, 0.6053480825262627, 0.6001841632618747, 0.5950555336592586, 0.5899637630115546, 0.5849103990953035, 0.5798969675386074, 0.5749249712007741, 0.5699958895636762, 0.5651111781350389, 0.5602722678638877, 0.5554805645683653, 0.5507374483761399, 0.5460442731776208, 0.5414023660921877, 0.5368130269476427, 0.5322775277730942, 0.5277971123054681, 0.523372428874677, 0.5190058681158662, 0.5146979159816363, 0.5104502695612376, 0.5062628232821987, 0.5021373150935529, 0.4980747765022501, 0.4940762074396881, 0.4901425758870947, 0.486274817517111, 0.4824738353516791, 0.47874049943632896, 0.47507564653095036, 0.47148007981714374, 0.467954568622226, 0.4644998481599699, 0.46111661928815084, 0.4578055482829625, 0.4545672666303702, 0.45140237083445006, 0.44831142224276666, 0.44529494688883414, 0.44235343535169636, 0.4394873426326572, 0.4366970880491862, 0.4339830551460159, 0.43134559162344605, 0.42878500928285246, 0.4263015839894051, 0.4238955556519802, 0.421567128220251, 0.4193164696989334, 0.41714371217915447, 0.41504895188690555, 0.4130322492485302, 0.41109362897319723, 0.4092330801522941, 0.4074505563756734, 0.4057459758646727, 0.40411922162182307, 0.4025701415971599, 0.4010985488710257, 0.3997042218532655, 0.39838690449869435, 0.3971463065387168, 0.395982103728964, 0.3948939381128111, 0.3938814183006292, 0.3929441197646163, 0.3920815851490456, 0.3912933245957642, 0.3905788160847629, 0.3899375057896342, 0.3893688084477242, 0.38887210774478653, 0.38844675671392453, 0.38809207814861346, 0.38780736502958135, 0.3875918809653188, 0.387444860645988, 0.38736551031048827, 0.38735300822642954, 0.3874065051827628, 0.38752512499480424, 0.38770796502138805, 0.3879540966938756, 0.38826256605674203, 0.3886323943194537, 0.38906257841934994, 0.38955209159523, 0.39009988397134365, 0.3907048831514821, 0.39136599482285395, 0.39208210336943117, 0.39285207249444243, 0.3936747458516886, 0.39454894768534904, 0.39547235020760485, 0.39644615061018706, 0.3974677786549448, 0.39853712985669154, 0.3996505394085535, 0.40080807604745045, 0.4020084436021741, 0.4032503321772684, 0.4045324188294716, 0.40585336825076895, 0.4072118334575995, 0.40860645648574995, 0.410035869090483, 0.41149869345144063, 0.4129935428818782, 0.41451845590660175, 0.4160732351563903, 0.41765580155117565, 0.4192653112783409, 0.4208991431409849, 0.42255654587471053, 0.42423608930390977, 0.42593634031390243, 0.4276558635670579, 0.429393222219687, 0.43114697863923157, 0.4329156951212901, 0.4346979346060242, 0.4364922613934882, 0.43829724185744195, 0.44011087852203234, 0.44193294894913465, 0.4437613599086417, 0.4455952643380804, 0.4474320486664258, 0.4492709801006913, 0.4511106577463, 0.45294968853761863, 0.4547866879068231, 0.45662028044791475, 0.45844910057545574, 0.46027179317760397, 0.4620870142630354, 0.46389343160135144, 0.46568972535657244, 0.46747402207816147, 0.4692462334974308, 0.4710044106016663, 0.472747860492425, 0.4744741336029292, 0.4761826708732091, 0.4778722547540722, 0.4795416850163459, 0.48118977929364054, 0.4828153736155316, 0.4844173229308089, 0.48599450162045404, 0.48754580400001996, 0.48907014481109706, 0.4905664597015584, 0.49203370569428867, 0.49347086164411513, 0.4948769286826607, 0.49625093065086456, 0.4975919145189058, 0.4988989507933002, 0.5001711339109275, 0.501407582619773, 0.5026074403461688, 0.5037698755483372, 0.5048940820560399, 0.5059792793961577, 0.5070247131040247, 0.508029655020362, 0.508993403573651, 0.509914150777481, 0.5107936588391739, 0.5116299673250092, 0.5124236258955474, 0.5131716677615195, 0.5138749030581783, 0.5145328198808521, 0.5151449349351939, 0.5157107936591874, 0.5162299703312733, 0.5167020681644612, 0.5171267193863023, 0.5175035853046129, 0.5178323563588589, 0.5181127521571142, 0.5183445214985303, 0.5185274423812605, 0.5186613219957948, 0.5187459967036778, 0.5187813320015952, 0.5187672224708146, 0.5187035917119991, 0.5185903922654023, 0.518427605516481, 0.5182152415869656, 0.5179533392114347, 0.5176419655994641, 0.5172812162834195, 0.5168712149519787, 0.5164121132694758, 0.5159040906811706, 0.5153473542045606, 0.5147421382068567, 0.5140887041687534, 0.513387340434637, 0.5126383619493853, 0.5118421099819146, 0.5109989518356404, 0.5101092805460352, 0.5091735145654593, 0.508192097435466, 0.5071654974467716, 0.506094207287108, 0.5049787436771643, 0.5038196469948464, 0.5026157809825694, 0.5013713468824944, 0.5000849434181045, 0.4987589151427796, 0.4973903118814883, 0.49598182806282515, 0.4945341535559048, 0.4930479989427165, 0.4915240950119182, 0.48996319224596047, 0.488366060301694, 0.4867334874846155, 0.48506628021692, 0.4833652624995385, 0.48163127536835193, 0.4798651763447774, 0.47806783888093907, 0.4762401517996356, 0.47438301872933436, 0.4724973575344223, 0.4705812665651061, 0.46864171496833523, 0.46667914259942833, 0.4646885166517234, 0.4626741877584858, 0.460637141567704, 0.4585783743877456, 0.4564988925470633, 0.4543997117543465, 0.45228185645924907, 0.4501463592138257, 0.4479942600348367, 0.44582660576707395, 0.4436444494478844, 0.44144884967306786, 0.4392408699643355, 0.4370215781385283, 0.43479091240844947, 0.4325523571119823, 0.4303056490151298, 0.42805300920281103, 0.42579311570821454, 0.42352839607891307, 0.4212599276228088, 0.4189887872876973, 0.41671605103181997, 0.41444279320006555, 0.4121695192707932, 0.40989850342166667, 0.407630141387372, 0.4053654994810282, 0.4031056388029665, 0.40085218134394074, 0.39860497127776595, 0.39636572097114575, 0.3941354608395085, 0.39191521402578583, 0.38970599583085486, 0.3875088131530189, 0.38532466393663417, 0.3831545366300085, 0.38099940965269374, 0.3788602508722969, 0.37673801709094595, 0.37463365354153194, 0.3725480933938659, 0.3704822572708851, 0.3684370527750365, 0.36641337402497903, 0.3644121012027323, 0.3624341001114058, 0.36048022174364375, 0.35855130186091316, 0.3566481605837625, 0.3547716019931833, 0.3529224137431892, 0.35110136668474223, 0.3493092145011405, 0.3475466933549819, 0.34581452154681697, 0.34411339918559525, 0.3424440078710126, 0.34080701038785455, 0.3392030504124302, 0.3376327522311912, 0.33609672047161404, 0.33459553984543017, 0.33312694172842827, 0.3316974948180211, 0.33030437223222386, 0.32895093258412794, 0.32763165290835455, 0.3263503614344862, 0.3251074895645889, 0.32390344793874376, 0.32273862623145283, 0.3216133929649597, 0.32052809533927257, 0.31948305907867086, 0.3184785882944856, 0.317514965363949, 0.31659245082490944, 0.31571128328621534, 0.3148716793535651, 0.31407383357063656, 0.3133179183753012, 0.31260408407072676, 0.3119324588111897, 0.3113031486023997, 0.3107162373161523, 0.3101717867191212, 0.30966983651560226, 0.3092092711336786, 0.3087924961510726, 0.3084181453059245, 0.30808731310591536, 0.30779752818611966, 0.30754721343752517, 0.3073422778899731, 0.3071792346664663, 0.3070607823997998, 0.30698073850215907, 0.3069422722823381, 0.30694515726735816, 0.30698914761208135, 0.30707397823935634, 0.30719936499643974, 0.3073650048271654, 0.30757057595935516, 0.30781573810697294, 0.3081001326865369, 0.3084233830473101, 0.3087850947148083, 0.3091848556471705, 0.3096222365039407, 0.3100967909268319, 0.3106080558320343, 0.3111555517136544, 0.3117387829578637, 0.3123572381673565, 0.31301039049571217, 0.3136976979912692, 0.31441860395012144, 0.31517253727785344, 0.3159589128596411, 0.31677656530317055, 0.3176260875022361, 0.3185067511285365, 0.3194167184747248, 0.3203560141991496, 0.3213239761720104, 0.32231993114211616, 0.3233426285173179, 0.32439257896372325, 0.3254684082960361, 0.3265699741654693, 0.3276953531201525, 0.3288444876366764, 0.3300166369938293, 0.33121105296496867, 0.332426980257243, 0.33366365695453953, 0.3349203149637747, 0.3361961804641495, 0.33749047435900703, 0.3388024127299311, 0.340131207292725, 0.3414760658549242, 0.3428361927744949, 0.3442107894193854, 0.3455990546275879, 0.34700018516739123, 0.34841337619749546, 0.349837821726672, 0.3512727150726581, 0.35271724931997817, 0.35417061777638886, 0.3556320144276447, 0.3571006343903048, 0.358575674362281, 0.36005633307085155, 0.3615418117178615, 0.36303131442183506, 0.36452404865673754, 0.3660192256871184, 0.36751606099938167, 0.36901377472893143, 0.37051159208294215, 0.37200874375851445, 0.3735044663559769, 0.3749980027871023, 0.3764886026780119, 0.3779755227665437, 0.37945802729387235, 0.3809353883901624, 0.3824068864540523, 0.3838718105257702, 0.3853294586536807, 0.38677913825407756, 0.38822016646403407, 0.389651870487131, 0.39107358793189, 0.3924846671427411, 0.3938844675233663, 0.39527235985225484, 0.39664772659032194, 0.39800996218044615, 0.3993584733387794, 0.4006926793377008, 0.4020120122802804, 0.403315917366131, 0.4046038531485295, 0.4058752917826942, 0.4071297192651168, 0.408366635663842, 0.4095849887044354, 0.4107855121597754, 0.41196764615146453, 0.41312974878620773, 0.41427206767786856, 0.41539419055521526, 0.41649572067483626, 0.41757627696775024, 0.4186354941768868, 0.41967302298536746, 0.42068853013551305, 0.42168169853852505, 0.42265052746927284, 0.42359834719082734, 0.42452457933235066, 0.42542537129054836, 0.42630251030705046, 0.427155774821907, 0.4279849602618131, 0.42878987904881044, 0.4295703606011235, 0.4303262513260535, 0.4310574146048509, 0.431763730769501, 0.4324450970713762, 0.43310142764170206, 0.4337326534438126, 0.43433872221716613, 0.43491959841311373, 0.4354752631224126, 0.4360057139944896, 0.4365109651484705, 0.4369910470759977, 0.4374460065358645, 0.43787590644050817, 0.4382808257344064, 0.4386608592644363, 0.4390138511015719, 0.43934474710689314, 0.439653275173528, 0.43993479083825354, 0.4401921624660213, 0.4404255728077941, 0.440635219809947, 0.4408213163896719, 0.44098409020538537, 0.4411237834221328, 0.4412406524719921, 0.4413349678094843, 0.4414070136620243, 0.44145708777544357, 0.4414855011546286, 0.44149257779933027, 0.44147865443521234, 0.4414440802402054, 0.4413892165662518, 0.44131443665652986, 0.44122012535825256, 0.44110667883114557, 0.44097393761654635, 0.4408235245154665, 0.44065519774845663, 0.44046940026903947, 0.44026658425435755, 0.44004494430420693, 0.43980976988454495, 0.4395588589067838, 0.4392870495781408, 0.4390069010997503, 0.43870712851040755, 0.43839914239892236, 0.4380774779761765, 0.437735942448102, 0.4373895967117714, 0.43702136489888466, 0.43665237953753433, 0.43627188865692024, 0.43587663407312166, 0.4354757413154492, 0.4350680289060663, 0.4346481664933676, 0.43422018265284124, 0.4337756523484626, 0.43333448532132246, 0.4328605174052636, 0.4324098616307146, 0.4319523652475992, 0.43147416140466216, 0.43100740411797983, 0.43052866250846694, 0.43005327254189635, 0.42957402657980087, 0.42908724000698495, 0.42860335814457057, 0.4281194880241945, 0.42763278459461723, 0.4271459921587937, 0.4266529994045503, 0.4261689263062569, 0.4256620030682785, 0.42518470963839944, 0.4247088744218187, 0.42422511112381756, 0.42375587473573795, 0.423293794724017, 0.4228312049452488, 0.42237351943250834, 0.4219043902162526, 0.4214605828642061, 0.42101748373403836, 0.420586634949469, 0.4201626620845942, 0.419737725048249, 0.41933051741679644, 0.41891173974963053, 0.41852418336454894, 0.41814497649883875, 0.417771991289424, 0.4174119058064364, 0.4170489434319701, 0.41671140328369877, 0.41638441770737356, 0.416074830263082, 0.41576994956058055, 0.41546859925968543, 0.4151904869368834, 0.4149252901552546, 0.41466155358671475, 0.41442498983011206, 0.4141911389544806, 0.4139833384984802, 0.41378926242609804, 0.4136093671286112, 0.41344406554508506, 0.4132880644382341, 0.4131537494502065, 0.4130347226936575, 0.4129103361195349, 0.4128254545055843, 0.41274363695750826, 0.4126905770379066, 0.41265254534270984, 0.41263956830173315, 0.4126315035898786, 0.41263776910704203, 0.4126633561330242, 0.41270572518005194, 0.41272987545928497, 0.4128106132408746, 0.41291553488622607, 0.4130256944137821, 0.41315208751158533, 0.41326653075551023, 0.41342937815382075, 0.4136321294871869, 0.4138220344463027, 0.41402878296750983, 0.4142285283453965, 0.4144718040870624, 0.41473037124119305, 0.41500430414840744, 0.4152936336175103, 0.4155785183243443, 0.41590108434400236, 0.4162309997652547, 0.4165827722972394, 0.41694836138636127, 0.41732721119854005, 0.41772049022343516, 0.4181161161586957, 0.4185380728533683, 0.4189728078164098, 0.4194168280099691, 0.41987722785457077, 0.420331114779181, 0.4208180702199957, 0.4213157658345242, 0.4218235375141984, 0.42234244490040845, 0.4228580300216801, 0.42339898722287184, 0.42394897478435983, 0.4245032761681729, 0.425071303809731, 0.42564629771166096, 0.42623040256494776, 0.42682197655883336, 0.4274104947893984, 0.42801728935062183, 0.4286185820818303, 0.42923814413490446, 0.4298622142610793, 0.4304842615747178, 0.4311172045890141, 0.4317584028973838, 0.4323966629371606, 0.43303763286571556, 0.4336763264359031, 0.43432190844118596, 0.43495889209315486, 0.4356072872595135, 0.4362552098052682, 0.4368891948368709, 0.4375364985185383, 0.43817159777147957, 0.4388145831712642, 0.43945364063993636, 0.44009576467549494, 0.4407248867987281, 0.4413373849750498, 0.4419580437456594, 0.44257225771391245, 0.4431716428895801, 0.44377259402155633, 0.4443544699908198, 0.4449397166018989, 0.4455083324815655, 0.44607437304708425, 0.44662936608338627, 0.4471808436638193, 0.4477115085582504, 0.4482053574465578, 0.44871486939461724, 0.44921001408669836, 0.4496881706436778, 0.4501537734722548, 0.45060033039522324, 0.4510346539469451, 0.4514522847900874, 0.4518624255922115, 0.452244143878124, 0.45260609973352395, 0.4529525578139886, 0.45328028217150435, 0.45355870452167196, 0.45385114818796674, 0.454111363642905, 0.4543607468943056, 0.4545869174831356, 0.45481284763549595, 0.4549888470062663, 0.4551148764600534, 0.45524825006490577, 0.45535628805178663, 0.45543020013566715, 0.4554877496082817, 0.4555372577057122, 0.4555386912094572, 0.4555138730562821, 0.4554510155858824, 0.4553737687801951, 0.45525355809041573, 0.45512137043862994, 0.45495944116497755, 0.45476244630982693, 0.45454099274586734, 0.4542837025761378, 0.4540012060087977, 0.4536872481940449, 0.45335580441059153, 0.4529765513120033, 0.4525365680498844, 0.4520981834952695, 0.45162623857028333, 0.4511110344419346, 0.4505729718603468, 0.4499914972515235, 0.44938586019994115, 0.44874529330580215, 0.4480834088465196, 0.4473712825120382, 0.4466125080650195, 0.445833449777562, 0.44501922650438874, 0.4441579055318352, 0.44327475132077476, 0.442351684214962, 0.44139719191598675, 0.4404066265452177, 0.43937552183514605, 0.43831357481991995, 0.43721887614014526, 0.43608428046609987, 0.4349138864109649, 0.4337100078371134, 0.4324678745831884, 0.4311766210652454, 0.42986520558173513, 0.4285175955878202, 0.4271203603407572, 0.4257025832782238, 0.4242619464502237, 0.4227698070093088, 0.42124251099404886, 0.4196717056947209, 0.4180756196073524, 0.41642339986442395, 0.4147598699863976, 0.4130604808076151, 0.41134718004879195, 0.4095745805281446, 0.4077498327531054, 0.40591290206647745, 0.4040418930748823, 0.4021207549989507, 0.4001848075026556, 0.39821442644846206, 0.39621132283085225, 0.39417531705799425, 0.3920938589380354, 0.3899951332644527, 0.387886857372201, 0.38572139754579615, 0.38352610292991884, 0.38128149151270674, 0.37903009703550666, 0.376741474270417, 0.3744318322981542, 0.37209299776192867, 0.3697249953101136, 0.36732960999472475, 0.36489597697839565, 0.36244755861236394, 0.35997218690830673, 0.35748750710848254, 0.3549580051126782, 0.35239024007842573, 0.3498148123827634, 0.3472154580764756, 0.3445774903380917, 0.3419340503420118, 0.33926028584590256, 0.3365725884405563, 0.33386295925490106, 0.33114462236899045, 0.3283918094529703, 0.3256126199252345, 0.3228233279571875, 0.32001583397218963, 0.317189110505151, 0.31434743974306306, 0.3114713427810028, 0.30860005122030887, 0.3057127933184432, 0.30282568195883236, 0.29990697833058444, 0.2969653514269269, 0.2940231276837293, 0.29106888565065897, 0.2880999496545748, 0.2851242655214975, 0.28214362220801403, 0.2791479069195912, 0.27614387361387355, 0.2731123652542277, 0.2700962277580687, 0.26706078221211005, 0.26403216359733866, 0.2609971117805813, 0.25796388185042457, 0.2549176704770287, 0.2518753899291954, 0.2488221292091942, 0.24576733887414318, 0.24269922132526664, 0.23964494947802845, 0.23658874338768518, 0.23353497670293508, 0.23048238289016595, 0.22741753954812374, 0.22437129844237452, 0.2213338562914588, 0.21829277640553393, 0.2152562215767182, 0.21221471100333308, 0.20919063664360343, 0.20618735924975057, 0.20317430995990068, 0.20016964759158706, 0.19717453691065534, 0.19418836720073052, 0.19120786572907972, 0.18824325351707527, 0.18528974817846325, 0.182350793907256, 0.17942096882337666, 0.17649401845666296, 0.1735921950267821, 0.17070399591569893, 0.1678328898443804, 0.16497347222507908, 0.1621149661046839, 0.15928926737220456, 0.1564795114109377, 0.15369429639865703, 0.15091739388319372, 0.14815880188435215, 0.1454190516428208, 0.14269866169836834, 0.14000210475033045, 0.13732144077013161, 0.13465617671046434, 0.13201880119687365, 0.12940304576892606, 0.12681618051166932, 0.12424420373637736, 0.12170126710837535, 0.11917569871202498, 0.11667457104777923, 0.11418970486080991, 0.11173949337647725, 0.10929380445007972, 0.10689639841084304, 0.1045235239674785, 0.10218363751920362, 0.09986036158635277, 0.09757600429930958, 0.09530442663317701, 0.09304712142692077, 0.09083323877550047, 0.08864692423057385, 0.08649587541435576, 0.08436474044214012, 0.0822506243891658, 0.0801790467151012, 0.07813614227313595, 0.07612843626793485, 0.07414294507092643, 0.07219748863275278, 0.07027055844160889, 0.06837438326665582, 0.06650110332217868, 0.064667658536766, 0.06285000374271607, 0.06107959526966225, 0.059339127558968745, 0.05762882346226091, 0.055948879235135335, 0.054309665524721974, 0.05268964160350077, 0.051100994349024396, 0.04954034647710858, 0.04801494030218077, 0.046521891847773424, 0.045058812272251045, 0.04362704980641712, 0.04222205780953347, 0.04085345094165682, 0.03950393375452268, 0.03819879960298448, 0.03692395199368507, 0.035682280426256506, 0.03446779092536039, 0.03329007339621509, 0.03213583512229393, 0.031012390096885185, 0.029919614250545776, 0.028857373608624882, 0.027829491042364866, 0.026827379308162043, 0.025855567068139292, 0.02490421900269978, 0.023993611465761816, 0.02311214121677834, 0.0222596688473595, 0.021436040301700984, 0.02063655462788329, 0.019870670177097906, 0.019132833036883276, 0.01842287467539224, 0.017740610988588538, 0.0170762105296599, 0.016449944488146323, 0.015854162906603332, 0.015280271819864905, 0.014732781412337092, 0.014197861071292036, 0.013704183564893196, 0.013242208819102264, 0.012797317640595737, 0.012377366283107564, 0.011990592651521713, 0.01161864797629218, 0.01126449639640035, 0.010942229849421429, 0.010643438595321967, 0.010374039751016365, 0.010120455047529677, 0.009879524038402525, 0.009672546157146883, 0.00948707087843922, 0.009312591454536764, 0.009170478548511891, 0.009040410671999389, 0.00893900276702799, 0.0088566019787647, 0.008791284212180745, 0.008746417526184219, 0.008728224324422098, 0.008718359645959841, 0.00872658554804216, 0.008760461625778277, 0.008802740280987136, 0.008847119908078046, 0.008925681761007947, 0.009019886941043963, 0.009120916512838986, 0.009246513709193936, 0.009393653508990364, 0.009546391898373306, 0.009713144030552795, 0.00989524094169824, 0.010088694325275056, 0.010282104416422098, 0.010502790031193, 0.010734944568487084, 0.010973178095765021, 0.011228031869323328, 0.011490328020827646, 0.011765808589514658, 0.012050827485213841, 0.012362099450016413, 0.012663180385557077, 0.012963099165258908, 0.013284296024365828, 0.013613595814786113, 0.013934784759785209, 0.014281250423628135, 0.014645778833587612, 0.015002842865160643, 0.015366274627347616, 0.015725526123773346, 0.016101937574031687, 0.016476867424067818, 0.016863306072997863, 0.01725361094456156, 0.01763962089402144, 0.018037964863510527, 0.018444678553558202, 0.01884751901339471, 0.019252978763234046, 0.019672124450052265, 0.020080587249697263, 0.02048072878881199, 0.02089507525223411, 0.021310538195958306, 0.021716657767465702, 0.02213486099488391, 0.02256585762661378, 0.022981756020604076, 0.02339778064048535, 0.02380286633976073, 0.02421961478998234, 0.02463897684200006, 0.02505232816319088, 0.025464166290951905, 0.025875964271323836, 0.026283883493499336, 0.026663648589690277, 0.027070455209375004, 0.027473255347002082, 0.027874306647535284, 0.028268760753387003, 0.028671718079132158, 0.02905659184850832, 0.029438034913821548, 0.029820382990879375, 0.030193805247907872, 0.030553844102975167, 0.030920767540499834, 0.031282979798841946, 0.03163073187886786, 0.031984391951924214, 0.03234265435624192, 0.03268379656405943, 0.03301983901572035, 0.03333988728718984, 0.03366671232067403, 0.03397216726897198, 0.034288761250547486, 0.03459837422834387, 0.034912430615095115, 0.03520690639592235, 0.03549129581161157, 0.035773988377104826, 0.03605024908865784, 0.03632629948758854, 0.03658887196662409, 0.03684022291072213, 0.037091131325650874, 0.03733550795769036, 0.037569942156415875, 0.03780165421452588, 0.03803964927822901, 0.038256237439017404, 0.03846685328051409, 0.03865668275335322, 0.03885698595391435, 0.03902875431767242, 0.039217850837543526, 0.03939888588015932, 0.03959250245122025, 0.03975554498505391, 0.03988853869439142, 0.04004210916847874, 0.040188137243491066, 0.04032910972848755, 0.04046040844600296, 0.04057923235950177, 0.0406977829943788, 0.04080950180038989, 0.04092590060231116, 0.04102304745024993, 0.041111665967558636, 0.04119783544561636, 0.0412782635914343, 0.04135983448596303, 0.041428174642005065, 0.041479512513684993, 0.041539185130059164, 0.041606196112051595, 0.04165297921241629, 0.04169508908800487, 0.041717828248982694, 0.04175256990287824, 0.04176721482709422, 0.04179327350234632, 0.041813500408104144, 0.041831584817136724, 0.04184056732955375, 0.04185322070862145, 0.041851681390697816, 0.04184620045079612, 0.04181196858403234, 0.041802125025623076, 0.04181507526593029, 0.041792103812458, 0.041766345873960074, 0.041735025239261966, 0.04170423213737031, 0.041661057146632006, 0.041626087736232234, 0.04158804059345756, 0.04152273960042677, 0.04148217884849833, 0.041458687738460266, 0.0414080526952961, 0.04135540602368099, 0.04128729349831881, 0.04123277553275562, 0.04117421073023783, 0.04111546160370967, 0.04105475045171627, 0.04097984375640772, 0.040917467872090704, 0.04087801857708905, 0.040808774181928825, 0.040739489921577096, 0.040666250420484266, 0.04059754768942221, 0.040518555389535735, 0.04045106285255388, 0.04038311053073885, 0.04031204989215756, 0.040244080626906195, 0.04017601882051462, 0.04010804582936601, 0.04004033298246985, 0.03996624285242324, 0.039900388195428016, 0.03982240826618688, 0.03975900483476484, 0.03969561659337466, 0.039643278063458035, 0.039579340925911456, 0.039500894594039784, 0.03944179437340005, 0.039383389011584176, 0.039346876195446724, 0.03928788496384866, 0.03922799974800243, 0.03917445528904755, 0.03912324141237599, 0.039046635124348014, 0.03900371965413656, 0.03897133683202823, 0.038929269352864074, 0.038889147042144544, 0.038836373307735525, 0.03880239844217506, 0.03879427617485225, 0.03876041324550584, 0.03872981629214845, 0.038691694377286034, 0.03866891998459504, 0.03863797833058227, 0.03862183513105902, 0.038607823251105775, 0.03861025204156344, 0.038599124721267086, 0.038569204583518195, 0.03856746483981223, 0.038567754959309114, 0.03858213505340871, 0.038585441242403, 0.03858506525293457, 0.03859547230065974, 0.03860862344921206, 0.03861777178867539, 0.038637418501070324, 0.03866125525542633, 0.03868574596769536, 0.038712964796353465, 0.03874634843669397, 0.038778693876508716, 0.0388231047334804, 0.03886028355216389, 0.038900928363056225, 0.03894663903939509, 0.03899370627864558, 0.03902535168657141, 0.039081238255252684, 0.03913915976291462, 0.039202010819055784, 0.03926381385922037, 0.039332486171435234, 0.03939838752897345, 0.03946686953772783, 0.039531646386786586, 0.03960591703597564, 0.03967545384930631, 0.03975470670105049, 0.03983561748746661, 0.039940881701033604, 0.04002231959539364, 0.04008520676094331, 0.04017514119901969, 0.040266483924896714, 0.0403705760638317, 0.04046331665355776, 0.04055129479626149, 0.040648856336735165, 0.040747850275110103, 0.04085615683768107, 0.04095685035706862, 0.041046785229601354, 0.04115234152372748, 0.04125865431270247, 0.0413742044336457, 0.04148089106639606, 0.04156776511576186, 0.041679298252189974, 0.041790589753264495, 0.04192436773203053, 0.04203247955128641, 0.04213438891055724, 0.04224558905950106, 0.042357207352734946, 0.042463483266870806, 0.04257637195454976, 0.04267887955860348, 0.042792646727380125, 0.04290555907610108, 0.04303067361046076, 0.043140287657707214, 0.04322884522571106, 0.04334080970492036, 0.04345127287124484, 0.0435699235968171, 0.04367631643585439, 0.043780164797311526, 0.04388501372422717, 0.043988780309046835, 0.044094236326829316, 0.044195292293441005, 0.044294664169168066, 0.04439346403073452, 0.044490930071289105, 0.044585276540063806, 0.044680033278473176, 0.04478273914252824, 0.04487284205167403, 0.04496166470051675, 0.04504736142718743, 0.04513341141429185, 0.04520691235588132, 0.04529065409211766, 0.045371808261045074, 0.04543733813216764, 0.04551494760436811, 0.04559544458842996, 0.04566566300783077, 0.04573304576276646, 0.04579760072250573, 0.04585932958121399, 0.04593012813703871, 0.04598468541759238, 0.0460370617304602, 0.04608148098799183, 0.04612989229988266, 0.04616077154511317, 0.04620540969375906, 0.046246350402418, 0.0463006793160546, 0.04633232366947109, 0.04635861669658972, 0.046385501259941085, 0.0464095543670902, 0.04641373573383984, 0.04643415667447305, 0.04646598300699573, 0.046476792734066186, 0.04648477644151673, 0.046485365950041546, 0.046488171462459246, 0.046486109155206366, 0.04648281247748213, 0.04647629076401121, 0.046458645457338354, 0.04644677922944812, 0.046439277730248446, 0.046419370121702885, 0.046396528111343004, 0.04636057285553669, 0.046333215876392796, 0.04629335534074848, 0.04626038016537252, 0.0462338713694841, 0.04619230984473305, 0.0461479117860174, 0.046084304827372816, 0.046036490352982906, 0.04601342617000996, 0.04595505704410975, 0.04589506114741477, 0.04582260485199503, 0.04576052976130831, 0.04568076823777566, 0.045615915947891716, 0.045547945630593265, 0.045484413238593355, 0.04540983137459418, 0.04531437685432505, 0.045237906920555876, 0.04515840241139803, 0.04510103767091834, 0.04501301960459094, 0.044904205219434425, 0.04481675650908117, 0.04472722220737095, 0.04463180732865503, 0.04453910777251285, 0.04444911889107165, 0.04435237853948854, 0.044254414000747366, 0.044163845848971185, 0.04406271804845405, 0.04395213047016616, 0.0438514059867014, 0.043749874361955224, 0.04365956514979598, 0.04355530242420696, 0.043440516493077494, 0.043338127696439334, 0.043235441781680116, 0.0431422247131981, 0.04303812414336385, 0.04293182769290537, 0.04282941057977785, 0.04272758156378644, 0.04262983016028019, 0.042529020922184545, 0.042419639512534434, 0.04232224367066216, 0.042225522966582364, 0.04211320931065583, 0.04202040515786492, 0.0419521996444926, 0.04185706629065785, 0.04176408362653896, 0.041673869979241114, 0.0415852805120598, 0.04148035401010556, 0.041398922390954794, 0.04131894951348844, 0.04123103517649986, 0.04115588195700804, 0.041080038747263334, 0.04100859811912399, 0.04093913281331636, 0.04087246270086494, 0.04080761750052962, 0.04075738441562503, 0.04069665838813403, 0.0406396960301875, 0.040590541313020055, 0.04054083864844318, 0.040494225286166814, 0.04045316022591158, 0.04041635742661875, 0.04036745213548405, 0.0403414571822153, 0.040324679441477024, 0.040305276743923917, 0.040290142190160826, 0.04028450894697553, 0.040277659804842894, 0.04027971297940176, 0.040282308751643715, 0.040290212430399035, 0.040297233907361, 0.04031667388675958, 0.04034801111047777, 0.04037688958730446, 0.04041144941099678, 0.040446065143296364, 0.0404928301343198, 0.040542824108288834, 0.0406009616090863, 0.04066465342984453, 0.04073457186366236, 0.040809611850160486, 0.040870705602394, 0.0409601095038079, 0.04105445079910961, 0.04117039693670704, 0.04127321664603625, 0.0413672324027741, 0.04148501411481339, 0.04160850512202909, 0.041747494773216515, 0.041881639056884225, 0.0420303860793918, 0.04217689936093403, 0.0423305889404729, 0.042480650807745615, 0.04264994522539162, 0.042832511543334006, 0.04301395228731929, 0.04320236229373808, 0.043383567912377914, 0.04358768431673411, 0.04378945235548963, 0.044007051546330604, 0.044230521890407326, 0.044460576009613784, 0.0446961340871501, 0.04495440464115433, 0.04520052941355736, 0.04545400965236268, 0.04569493621711219, 0.04596540777981091, 0.04626060055588567, 0.046540844740454404, 0.0468283278721687, 0.04712239223425152, 0.04742415597092739, 0.047717566885229455, 0.04803508237984644, 0.04835853732641865, 0.04868855010294138, 0.04902395372753084, 0.04938130933565241, 0.04972688864024041, 0.050079453121965434, 0.05042243305860878, 0.05079064099672032, 0.051160554925685706, 0.05154062376881324, 0.05192616017885296, 0.05231775545082583, 0.052714215813875524, 0.053120176582988676, 0.053527186367809634, 0.05393990901281337, 0.054364510088910446, 0.05478766410436011, 0.05520420076473967, 0.05564049935853757, 0.05608169241214119, 0.05653852307210805, 0.05698806504439584, 0.05743450815787868, 0.05789578906049771, 0.05836172269742132, 0.05882941311247439, 0.05930481605334072, 0.0597833735482781, 0.06026743885365501, 0.060755607838578175, 0.061243285830125886, 0.0617400432701193, 0.062251776816079483, 0.06275434338490925, 0.06326108987723199, 0.06377412826790031, 0.06428848774761521, 0.0648050006908594, 0.06532711845262534, 0.06585267231728803, 0.06637755548076925, 0.06691006430116075, 0.06745273859726665, 0.06798981249694558, 0.06852989285365596, 0.0690563819811264, 0.06960406259957534, 0.07015788085265164, 0.07070817942823532, 0.07126028868047934, 0.07181809730313078, 0.07237308777450219, 0.0729230630754511, 0.07348235801891166, 0.07404280770205118, 0.07461284256914176, 0.07517431344522767, 0.07573945685149278, 0.0763032986519303, 0.07686836879165285, 0.07742656967594032, 0.07799461122877324, 0.07856805867743225, 0.07913598325874491, 0.07970432791947282, 0.0802621950996857, 0.08083234930450953, 0.08140363270815117, 0.08197239332117265, 0.08253606266749659, 0.08310421330378209, 0.0836714130096703, 0.08424668857443963, 0.08481071397197679, 0.08536168996395717, 0.08592599099362697, 0.08648874539910936, 0.08706352622400745, 0.08762138050104709, 0.08816418136168767, 0.088721892604961, 0.08927761098533481, 0.08983357283599415, 0.09038492099462428, 0.09095072435159293, 0.09149597310997874, 0.09204002996018125, 0.09257305881216325, 0.09311535505603481, 0.09365195350007326, 0.09418999994810182, 0.09472539264684389, 0.09525128042497488, 0.09578206967068296, 0.09631476596746086, 0.09683852627236679, 0.09735937566645919, 0.09787046207302301, 0.09838619202906887, 0.09891207178653404, 0.09941918676278741, 0.09992361627930524, 0.10042807670738176, 0.1009264361337863, 0.10140041433040296, 0.10189568487373754, 0.10238668225746816, 0.10287348675931714, 0.10335616623814747, 0.10385517644868283, 0.10432718797028652, 0.10479636273978474, 0.10524386985614613, 0.10570935360894226, 0.10618022955313518, 0.10663607203064167, 0.10708832287367556, 0.1075522479835417, 0.10799528579960489, 0.10840887182866728, 0.10884949314051859, 0.10928553141255022, 0.10971312710805409, 0.110140810968398, 0.11056964584218884, 0.11098769338660522, 0.11140175408490242, 0.11183113796765397, 0.11223491977017981, 0.1126296887573954, 0.11302858208750109, 0.11342413011880594, 0.11380893455598237, 0.11419863626089971, 0.11457544349270489, 0.11495868724723533, 0.11533769856204422, 0.11571090275723324, 0.11608203099006767, 0.11644634851435211, 0.11680999539068743, 0.117169729087543, 0.11752850672777745, 0.11788041909134743, 0.11824649006513957, 0.118589446007409, 0.1189301352615719, 0.11925999091866611, 0.11959703511352139, 0.11992494673955763, 0.1202570245563744, 0.12058594623719482, 0.12092541325865516, 0.12124660727501002, 0.12155890779799279, 0.12187675981500849, 0.12219212045687457, 0.12248805440138576, 0.1228007759108976, 0.12311988533923038, 0.12342510854945675, 0.12372803191110783, 0.12403385992614106, 0.12433185134092586, 0.12461397239967488, 0.12491040497602307, 0.12520446019137438, 0.12549065231602732, 0.12578120033766865, 0.1260757967032414, 0.12636138459566834, 0.12664551878723293, 0.12693058774555832, 0.12721188937699535, 0.127484284843765, 0.1277647350777716, 0.12804395051929407, 0.12832435254127236, 0.12860126812694622, 0.12887695028102863, 0.1291527185409621, 0.1294280139729885, 0.12970238260835773, 0.12997713882454465, 0.13025001931423716, 0.13052474760505714, 0.13079941957532806, 0.1310832188186369, 0.1313569805023666, 0.13164116917301444, 0.131915336174497, 0.13219091427081137, 0.13245370763215386, 0.13273382410487353, 0.1330298095121366, 0.13330925604074678, 0.13359037753216596, 0.1338499378882312, 0.1341373469045395, 0.13443421714129783, 0.1347214863364507, 0.13501007775533827, 0.13529274120760476, 0.13558525364162102, 0.13589318020025204, 0.13618656498102188, 0.1364823169896318, 0.13676347137417183, 0.13706621545973124, 0.1374005236409654, 0.13770272195399855, 0.13800849797600592, 0.1382900068807942, 0.13860622865614697, 0.13892258594615517, 0.13924288819745864, 0.1395653056696731, 0.13990645184913633, 0.14023155173864446, 0.14054206020993673, 0.1408765457193324, 0.1412135828376898, 0.14157260500902297, 0.14191279950738625, 0.14223895848555934, 0.14258961459757952, 0.14294330952896347, 0.14331094696308075, 0.14366975996160405, 0.14403486260815554, 0.14440145533445156, 0.1447722405965321, 0.145131924907368, 0.1455130501204809, 0.14591680203566348, 0.14630235164799552, 0.14669260660035144, 0.14708979167841713, 0.14748905381630903, 0.14789474719530005, 0.14830321934627028, 0.14871645073910203, 0.14912703869573884, 0.14955061840699896, 0.14997109072110357, 0.15040416262822004, 0.15084116388663146, 0.15128105877862263, 0.1517263448530836, 0.15218992641098544, 0.15264175993037232, 0.15309866766311997, 0.15355493140723722, 0.15402255483809554, 0.15451009648587782, 0.15498503440031966, 0.1554654699701607, 0.15593428902100773, 0.15642753743020815, 0.15692445686821133, 0.1574263102006634, 0.1579324777208153, 0.1584339410644103, 0.15895001928616895, 0.15949155687109004, 0.16001286733877806, 0.1605394988554904, 0.16106795006967636, 0.1616053578573315, 0.16215215017606757, 0.16269863744177188, 0.16322633410453655, 0.16378576470124734, 0.16434871050422734, 0.16494589109728022, 0.16551234371532356, 0.16606847204302316, 0.16664783715791892, 0.16723151659235916, 0.1678296914883341, 0.16842065231772207, 0.16902436955022884, 0.169623866101351, 0.1702284225192404, 0.17081804918599588, 0.17143477451729888, 0.172083346454955, 0.17270355894086942, 0.17332894555096312, 0.17395646603306567, 0.17459195781356776, 0.17522113518582355