0.048824181391641644, 0.04834833255757527, 0.04788574523319627, 0.04752900687509062, 0.047075556472702215, 0.046493962995792525, 0.04608358189927249, 0.045675085106954796, 0.04526256068896752, 0.0448575482086402, 0.04459776339904473, 0.04417583034143149, 0.04376256758605657, 0.04336790958359545, 0.04296721906454602, 0.042494992640122554, 0.04211589586056949, 0.04173726839695092, 0.04138699806412898, 0.0410061252165927, 0.04051651386727758, 0.040154477695167515, 0.03978856828372886, 0.03949752066712839, 0.03911673110846887, 0.03868063107345732, 0.03831339152719069, 0.03794609975923314, 0.03755432292993899, 0.03719176961672367, 0.03683490401655969, 0.03647254845540682, 0.03611185139144026, 0.03575606446569544, 0.03539970340109658, 0.035090896640728696, 0.03473541893898044, 0.03438613428424242, 0.034076287356742924, 0.0337348863076961, 0.0332957013516362, 0.03298295356402807, 0.032671494553528864, 0.0324814294093313, 0.03215921863606368, 0.031688259863049906, 0.03140483887846061, 0.031121187651918677, 0.03093266431436488, 0.03063913963799684, 0.030319682820438038, 0.03004504785106899, 0.02977566812295034, 0.02948668880044862, 0.02923143062437578, 0.02896932952998671, 0.02872433762574652, 0.028483591639462402, 0.028386373182820834, 0.028137533754855174, 0.027826620380987807, 0.027612299114315834, 0.027405079748384818, 0.0272104608605993, 0.027016583545806397, 0.026824438299936193, 0.026645789792607903, 0.026474032089410026, 0.026209155959380847, 0.02606392496067784, 0.02594509604678241, 0.02580034862855273, 0.025660026002867493, 0.025582967320331697, 0.025445516807180355, 0.025230927820442926, 0.02512225846475019, 0.02501753893205015, 0.02497851614112716, 0.024875736790581783, 0.02479587428209608, 0.024709322089130785, 0.024632461733119528, 0.024631836120706296, 0.02456550491490571, 0.02444554234363068, 0.024413148716041957, 0.024388926434566242, 0.024372958528721143, 0.0243653313153169, 0.024263316844157536, 0.024285639250143123, 0.024310803302705367, 0.024375852483392305, 0.024404785872157213, 0.024382691046735305, 0.024434005995541856, 0.024490030325052287, 0.024679331581611973, 0.024730745836892554, 0.024784889187156284, 0.024864866460554372, 0.02495706381960432, 0.02498057137352468, 0.025106466555725657, 0.02527810718432007, 0.025413199345892173, 0.02555813015946385, 0.025712922012669833, 0.025877594346104073, 0.026063279275523966, 0.026246355123012422, 0.026309373165928622, 0.026529976883736994, 0.026753646043562895, 0.027134201551223754, 0.027347509177552878, 0.02750280642244949, 0.02775314810926217, 0.028012576600389718, 0.028214517880623742, 0.028500884097128167, 0.028876248803442056, 0.029163935361204475, 0.02946303880878732, 0.029714969874217196, 0.030043599650586877, 0.030390830612479786, 0.030733304486117437, 0.0310843969419992, 0.03144420762153628, 0.0318128091931203, 0.032181913493906276, 0.03256927395629127, 0.03296503879402358, 0.03335536961751967, 0.033769842846674364, 0.03415869105639935, 0.03459292327230833, 0.03503317473629724, 0.03561035878220605, 0.036047001204426846, 0.036492189352035756, 0.03695684104019691, 0.03743357177886009, 0.037918914976565216, 0.03841815854913566, 0.03891356124883367, 0.03943418364286584, 0.03996315633982192, 0.04047796249851572, 0.04102561053045809, 0.04166293250300198, 0.04221261034832993, 0.04277317358822341, 0.043210506754240055, 0.04380758692211987, 0.04456726438819002, 0.04514736171961359, 0.045738941360767046, 0.04622717048046429, 0.046853512755710446, 0.04754920771613956, 0.04817270968476719, 0.048803110572453914, 0.049487296886377555, 0.05012448932797357, 0.05083694247370968, 0.05148218013775272, 0.052138475640864136, 0.052793642658626544, 0.05347036520547272, 0.05412964370542881, 0.054823998132733504, 0.05552326566110785, 0.05624379777921252, 0.05694985140950486, 0.05773591098562031, 0.0584420625404629, 0.05915669845244, 0.059981732057125876, 0.060697729908740096, 0.061439465733482676, 0.06217594321417527, 0.06292231762504584, 0.06361900376453324, 0.06438901543820828, 0.06526800162672554, 0.06603107355002413, 0.06680280866089235, 0.06748762588038525, 0.0682854733350957, 0.0692171748083435, 0.06999913787986953, 0.07078914256456657, 0.07153614609534525, 0.07234562026286938, 0.07328269029052954, 0.07408118608915752, 0.07488876259204262, 0.07570423094058466, 0.07652655876477142, 0.07740765106506367, 0.07823446792717594, 0.07906878740201864, 0.07994574899279265, 0.08078768893675979, 0.08164216131046158, 0.08249644360637343, 0.083356336072673, 0.08423781245355465, 0.08510482877895839, 0.08591825284295328, 0.08680163097087017, 0.0876855019571181, 0.08864221162780649, 0.08951823330634182, 0.09050471832294732, 0.09137666573539273, 0.09225856617957298, 0.09314091911885783, 0.0940404519644916, 0.09492700175216069, 0.09584127678993831, 0.09675972749752967, 0.09770706894034417, 0.09862989096929602, 0.0995492605368287, 0.1004825818929092, 0.10141974222620465, 0.10238840264350565, 0.10332939032629637, 0.10430886876491877, 0.10525569640444778, 0.10620913046623494, 0.10718267106570767, 0.1081464567204985, 0.10914168027929104, 0.11011486304357816, 0.11109535096836223, 0.11207999568344117, 0.11307441546214363, 0.11413623807229645, 0.11513532983885796, 0.11614390337658174, 0.1171642109317125, 0.11818991961138403, 0.11919897407625285, 0.12024428319860078, 0.12129607544201021, 0.12242945171099291, 0.12348497653310948, 0.12446537067901071, 0.12555337658571913, 0.12664678545837618, 0.1277710484747446, 0.12887341886775464, 0.1300144659516926, 0.1311294091739627, 0.13225463234775708, 0.1334095935443089, 0.13455298007763877, 0.1356773175955278, 0.13684757396348998, 0.13802762115952416, 0.1391427410513342, 0.14035279705732193, 0.14158328595094644, 0.1428056007908408, 0.14403704132487372, 0.14538111929865413, 0.14661985371223574, 0.14781431148532856, 0.149094244458208, 0.15038718293621414, 0.1516879508534352, 0.15300874571367742, 0.15439061317014996, 0.1557335211460418, 0.15709374864640988, 0.1583990753862699, 0.15980320713812202, 0.16131251557883317, 0.16273272848405704, 0.16417297315670115, 0.1656498342581985, 0.16712782843631713, 0.1686489275588376, 0.1701657986250267, 0.17170473056181965, 0.17318779195298725, 0.17478038235045731, 0.17642940488919207, 0.17805282743316947, 0.17969732374727407, 0.18126596554168506, 0.1829659151887849, 0.1848242394551575, 0.1865407337627612, 0.18828405995902645, 0.19000127200458436, 0.1918045632811523, 0.19356479042624716, 0.19542423556663036, 0.19730449473713715, 0.1991871122565435, 0.20111437722683737, 0.203175302164847, 0.20513448702105147, 0.20712426561817482, 0.20905564496914475, 0.21111769452515067, 0.21318861200043115, 0.21530463417986098, 0.21744677473563181, 0.21971033088188618, 0.22189515318684117, 0.2240525384625064, 0.2263123786599293, 0.22860510043957477, 0.23092527292738804, 0.2332766387173517, 0.2357401981446866, 0.2381449884601808, 0.24048665361599542, 0.24297764059351834, 0.24549943822145273, 0.24811105570254482, 0.2506890112211209, 0.2532750901161425, 0.2559284390256187, 0.2586162749621578, 0.2613694857436129, 0.2641233814746783, 0.26686994627991867, 0.2697037654450061, 0.2725723211763815, 0.2755260665878536, 0.2784590430505239, 0.2813585261707162, 0.28437809588009033, 0.28743228229367024, 0.29059946361143124, 0.29371470379316983, 0.29684269214003833, 0.3000423125466527, 0.3032805316360825, 0.3065879976563614, 0.30989979055603106, 0.3132187877857528, 0.3166157235787964, 0.3200510156383941, 0.3235386988019106, 0.327049353206001, 0.3305495001085444, 0.3341454838440917, 0.33777813397072537, 0.3415228575095156, 0.3452204351517206, 0.34893485632282417, 0.3527189250603805, 0.3565427196316777, 0.3603255342984244, 0.3642386075356954, 0.36818095602156675, 0.3721649114663927, 0.37618432744448127, 0.38020624727188307, 0.3843018877712359, 0.3884876262859096, 0.39264571631678336, 0.39684221786965185, 0.40106859675757434, 0.40534235684620445, 0.409631161756729, 0.41398208033596484, 0.4183685900619254, 0.4228545210343763, 0.42730383422469487, 0.4318113859518711, 0.43633508141988947, 0.44089721729079595, 0.4454219243275254, 0.4500679430242822, 0.45469297983231943, 0.45940916693087536, 0.4641538775375803, 0.4689495286277851, 0.4737489370787855, 0.47849502645978315, 0.48336480560330997, 0.48825937527795743, 0.49319571358283143, 0.49813854232872545, 0.5030826268862617, 0.5080809650312257, 0.5131037170066417, 0.5181952066369441, 0.5232606599770793, 0.5282967649428608, 0.533420954651891, 0.5385667343318233, 0.5437921112759043, 0.54897257177876, 0.5540960448342889, 0.5593328661872333, 0.5645867132788664, 0.5699461325048114, 0.575221579350943, 0.5805010087373967, 0.585818566239788, 0.5911532560085905, 0.5963705752195286, 0.6017530440686322, 0.6071973975606505, 0.6125854244474289, 0.6179826866543032, 0.6234412569600897, 0.6288480880803154, 0.6341147370985109, 0.6395590014293417, 0.645002154378479, 0.6505052730918757, 0.6559381632652999, 0.6613005484433065, 0.6667451360811943, 0.6721855179481097, 0.6776462778159763, 0.6830737029776632, 0.6884050400389342, 0.6938343721756316, 0.6992522901161579, 0.7047113148738149, 0.7100987651124707, 0.7154959995092464, 0.7208605938150311, 0.726214446787485, 0.7314867892178626, 0.7368240341966413, 0.742239963934877, 0.7475269887318474, 0.7527992728506868, 0.757985645586336, 0.7632321692400167, 0.7683494659148852, 0.7735610390942891, 0.7787409365009871, 0.7839305746253483, 0.7890409157524179, 0.7941040540347297, 0.7991544743124188, 0.8041714346413877, 0.8091262064532012, 0.814076880094712, 0.8189506384215758, 0.8238293330056334, 0.828666015823003, 0.833426651988938, 0.8381813699543618, 0.8429287798790231, 0.8475854932887193, 0.8521967590496937, 0.8567114050452581, 0.8612346060196868, 0.8657115529812837, 0.8701295900485486, 0.8744943827862784, 0.878882727542755, 0.8831281154166758, 0.8872408769397858, 0.8913906208223531, 0.8954803475562084, 0.8994757058440518, 0.9034465644993062, 0.9073941047744093, 0.9112288688537346, 0.9149992746991575, 0.9186957329078806, 0.9223347222536145, 0.9258328931516897, 0.9293427139859531, 0.9327775812120598, 0.9361619252274012, 0.9394419202169982, 0.9426853438317464, 0.9458085194785629, 0.9488564869960222, 0.9517140241570242, 0.9546221416401801, 0.9574893413942787, 0.9602207978401456, 0.9628687247790018, 0.9654851263586356, 0.9679569201142587, 0.9703484976104173, 0.9726526935421105, 0.9748715863335468, 0.9770206661033004, 0.9790633444928843, 0.9809487801139852, 0.9828235221789311, 0.9846043015655845, 0.9862767239848763, 0.9878698195721737, 0.9893444013708751, 0.9907473206127031, 0.9920518500470829, 0.9932855058049519, 0.9943888949564259, 0.9954195610625967, 0.9963237535356144, 0.99713049211823, 0.9978640458890847, 0.9984705361777679, 0.9988593926949947, 0.9992838871440575, 0.9996019646958825, 0.9999055978531496, 1.0, 0.9999771002205587, 0.9998717323125461, 0.9996691729593137, 0.999357228092313, 0.9989421296008578, 0.9984429798732515, 0.9978181074600995, 0.9970068822409491, 0.9961861896556162, 0.9952571188100646, 0.9942561932693984, 0.9931069647879424, 0.9918802866254637, 0.9905171053408762, 0.9890503419462029, 0.9874103859331895, 0.9857448754786458, 0.9840438704729141, 0.9821543076672775, 0.9801621760378314, 0.9780674281260865, 0.9758700771381331, 0.9734590408212099, 0.9710708059224344, 0.9685741059655831, 0.9660673229677779, 0.9633447022954365, 0.960419449516331, 0.9575103790272198, 0.9544961440500738, 0.9513667523825656, 0.9481469147592856, 0.9448134051962596, 0.9413909491697444, 0.9378674530902278, 0.9342523622121306, 0.9305290219876611, 0.9267277857776608, 0.9228082435446772, 0.9187943422336627, 0.9148035760437206, 0.910588568816338, 0.9062020176387026, 0.9018270093907573, 0.8973617211372336, 0.8929098388722433, 0.8882536326434497, 0.8834711655788319, 0.8786571264520875, 0.8737592170716341, 0.868683719026352, 0.8636323708896333, 0.8585971585223131, 0.853361166595873, 0.8480476632335207, 0.8426713658830056, 0.8372036287702774, 0.8315923814389604, 0.8259862723824771, 0.8203041455315608, 0.8145142787355284, 0.8086891974491811, 0.8028383207755041, 0.7968630730005332, 0.7908211611398124, 0.7847501429834509, 0.7785746556290009, 0.7722610862139312, 0.7659760910131845, 0.7596289168601763, 0.7532326134077079, 0.7467654477369494, 0.7402896804666635, 0.7337066214030769, 0.727073888692679, 0.720478993252784, 0.713740164701469, 0.7068356734914057, 0.7000322162602319, 0.6931828266215448, 0.6863562189207794, 0.6794125721458506, 0.6723827055654543, 0.6653743946449241, 0.6583299491367384, 0.6511651297004346, 0.6440650082799229, 0.6370713169220584, 0.6298852603908923, 0.6226769014358646, 0.6154280337519491, 0.6081813302905592, 0.6008845889192125, 0.5936043853930307, 0.5863061763648366, 0.5790251821204937, 0.5716923599983486, 0.5642989815600118, 0.5569529895530893, 0.5495968389785549, 0.5422964722657462, 0.5349179805498242, 0.5274583284337788, 0.5200903062932037, 0.5127200835599471, 0.5053720395138016, 0.4980009995579808, 0.4906547548306749, 0.4832937700226374, 0.4759428574075793, 0.46854807544719196, 0.4612292414728666, 0.4539194914392875, 0.4466268174639088, 0.4393499586796867, 0.43206312056922774, 0.42482733417399665, 0.4176283027873041, 0.41043264134877383, 0.4032620650084308, 0.3962045168318731, 0.38907857332123946, 0.3818850031903514, 0.37484342478903754, 0.36783328588591707, 0.360925961950067, 0.35397556751827736, 0.34704380490771053, 0.3401791113306844, 0.3333563796004161, 0.32655197406554154, 0.31982043751135325, 0.3131057549080621, 0.30646855177104787, 0.29987746214166416, 0.29341197376872746, 0.28690825029309225, 0.2804042823895704, 0.2740191236514356, 0.26768794862046646, 0.2614426876637327, 0.2552196644739763, 0.24901740670467426, 0.24291964087893572, 0.2368813551543449, 0.23100388609478692, 0.22507575924071743, 0.21918591186772202, 0.21339969817858123, 0.20768138266748387, 0.20205668122143675, 0.19647312985470297, 0.19092490276790713, 0.1854893428490718, 0.18012428041991374, 0.17479444969553784, 0.1695775042232376, 0.16440652709554898, 0.1593357768071121, 0.15433669307899334, 0.14941876842704727, 0.14456534933256318, 0.139823414750122, 0.13511700279883643, 0.1304896274112891, 0.12591950349643238, 0.12145432906113421, 0.11712101806189289, 0.11280786153469913, 0.1085778137286089, 0.10436979034088911, 0.10031385009952741, 0.09637666854092226, 0.09247608040311318, 0.08865859093603594, 0.08491043397399953, 0.08126126530701938, 0.07770864055840594, 0.07422319868669532, 0.07082151968926358, 0.06753973181437613, 0.06430100140306343, 0.06107576109204668, 0.05801729544496077, 0.0550398283282996, 0.052138054947864804, 0.04932397907251554, 0.046563362131339284, 0.04391540039796591, 0.04134727553573415, 0.03888142477532265, 0.036470698240087945, 0.03421367833206025, 0.031956522550415374, 0.029784416200637882, 0.027629788650971685, 0.02563360786319682, 0.023766202516609783, 0.021920944016593245, 0.020156666479816468, 0.018483719685988272, 0.016877707181000377, 0.015351015719605721, 0.01390279849783213, 0.012543333372943761, 0.011248153205706995, 0.010029575162831983, 0.008825549381483605, 0.007765168514072376, 0.006744671466888608, 0.005828653482465997, 0.004980503335303615, 0.004224956275802786, 0.0035084737638904173, 0.002976907868738548, 0.0023813743082608516, 0.0018591449508543086, 0.0013390277256292492, 0.0009671079777734373, 0.0006652221436383054, 0.0004206064247747649, 0.00023887416471794653, 0.00023016196463278684, 0.00015708517664423988, 0.0, 7.605880924132462e-05, 0.0002059774906266712, 0.0005198248659227038, 0.0007392719757755419, 0.0010153194893241207, 0.0013520995848109137, 0.0017446259653660673, 0.0021384912736305424, 0.002644415067789275, 0.00320679674496993, 0.0038068781418632318, 0.004453473491028916, 0.005153795276839455, 0.0058889882021428835, 0.006639989322039026, 0.007464683575741088, 0.008329007285176644, 0.009329242693043707, 0.010257571266400476, 0.011111269508399873, 0.012136684744454368, 0.013194044523508568, 0.014382638934550645, 0.015488941374297436, 0.016630401527252727, 0.017805320046854818, 0.01901205767271119, 0.020221241314668074, 0.021490425741755276, 0.02274357644582657, 0.02406810169945033, 0.025413491413240855, 0.02684556275915955, 0.028221590876150168, 0.02961394677753654, 0.03103294741125459, 0.03247056266602881, 0.03388651543561706, 0.035362189451075075, 0.03686693807714543, 0.03836433283941119, 0.039873102249798224, 0.04152549657580962, 0.04303675713165967, 0.04440232796837214, 0.0459627498663835, 0.04752538640055324, 0.049128524701370746, 0.0506887785970985, 0.05229035944993359, 0.053849496962710734, 0.055411163015335135, 0.05692400241094747, 0.05849309077267319, 0.06009694097227304, 0.06165203171595354, 0.06320356444393967, 0.06473929977015695, 0.06628178377349453, 0.06784182387701342, 0.06936530174847608, 0.07088087398289651, 0.072340199213781, 0.07384267262776519, 0.0753842104563749, 0.07685194238424085, 0.07830769540674655, 0.07971152420757445, 0.08114516071570885, 0.08262556269140965, 0.08401622836770073, 0.08539214579825603, 0.08671886543996363, 0.08806626038313418, 0.08946617549762452, 0.09076433303193789, 0.09204555177903886, 0.09331143165829703, 0.09455497903692779, 0.0957534729571986, 0.09695915494033609, 0.09814158715746232, 0.09931685213370028, 0.10044894620611973, 0.10147093106019023, 0.10256537665487245, 0.10362985368225787, 0.1047506861008511, 0.10574483269919338, 0.10662534272574568, 0.10758068251645103, 0.10850513273659709, 0.10944058258124169, 0.11029856633388646, 0.11113685013827394, 0.11193748267868056, 0.1127101173025458, 0.11354064530620082, 0.11424566295137545, 0.11481846902957868, 0.11548865243983954, 0.11612730309955058, 0.11671797086588967, 0.11729631892080679, 0.11783449215760984, 0.11835054153604059, 0.11883491008838112, 0.11934630323161367, 0.11976095848666059, 0.12011762529741593, 0.12048112629295187, 0.12081518377256374, 0.1211449664431808, 0.12141746333975827, 0.12173190252062722, 0.1219405524194741, 0.12212559857237093, 0.1221920708853963, 0.12234048970661264, 0.1224115951741708, 0.12250639563644994, 0.1225695672295605, 0.12267426754296093, 0.12266771329773053, 0.12261113540130464, 0.12255789116779015, 0.12247861518183982, 0.12238764411041782, 0.12225588038719534, 0.1220696407175425, 0.12189427204395743, 0.12169399530591604, 0.12157504015480947, 0.12131348691706043, 0.12098202476025532, 0.12069268313379998, 0.12038288370033638, 0.1200391061073135, 0.11969129972771811, 0.11939015846476032, 0.118994436517203, 0.11858358212487373, 0.11811041007953092, 0.11767550441316872, 0.11715372947835423, 0.11669345169089691, 0.11621316747156378, 0.11580579426542664, 0.11527748844625997, 0.11477391508454353, 0.11421856744856583, 0.11365452195194184, 0.11304020432369298, 0.1124644318382521, 0.11193095907112711, 0.11132815866710206, 0.11071912356340163, 0.10999294318453665, 0.10938628238772707, 0.10872915124060452, 0.10810557688148605, 0.10747078631244152, 0.10692630078786425, 0.10626078344432031, 0.10559939349836475, 0.1049307307519551, 0.10426181353104642, 0.10357361656578364, 0.10290795735584608, 0.1021783987189708, 0.10152150457285329, 0.10086234951427325, 0.1002298895996031, 0.09956613642235429, 0.09901058854002516, 0.09833946694420972, 0.09767838613901683, 0.09692440147214926, 0.09629610462024106, 0.09573585699611536, 0.09510868168715107, 0.09449104886891478, 0.09377769975894239, 0.0931935413512292, 0.09263909823722721, 0.0920624463227491, 0.09145820450327659, 0.0909040761064514, 0.09035817771282574, 0.089932743333782, 0.08939241476922889, 0.08886123163354097, 0.08835689293253142, 0.08786956326114408, 0.08735769536771305, 0.08691009121776552, 0.08649154709759126, 0.08607307062287788, 0.08567162357479206, 0.08523202781933824, 0.08487285562380852, 0.08452043241413458, 0.08419330832075735, 0.0838823836791409, 0.08369679931740825, 0.08340680699664973, 0.08304950951491684, 0.08281962442858673, 0.0826084875468947, 0.08250558817870694, 0.08232235838988883, 0.08212830714496464, 0.08199997428143181, 0.08189441383856644, 0.08176171568173406, 0.08170835368930893, 0.0817447609071744, 0.08172372608285232, 0.0817278647447911, 0.08172646509438823, 0.08178440558604184, 0.08185988044526488, 0.08196486922714982, 0.08209294392498846, 0.08219147824065971, 0.08237289185581223, 0.08256375863075145, 0.082788242419579, 0.08303365195501666, 0.08341995091247857, 0.08369345119380954, 0.08391242254929691, 0.08425344278768425, 0.08461729613491159, 0.08495683432352102, 0.08537256629354913, 0.08590868749831662, 0.08635284306736905, 0.08682362647102758, 0.08733712876713853, 0.08785734903003432, 0.08828399791809083, 0.08887053885883345, 0.08947508281964875, 0.09012304813116567, 0.09076157242282412, 0.09143991879288076, 0.0921166833556286, 0.09281478365204615, 0.09351170600108613, 0.0942544206504838, 0.0950329917805249, 0.09581180725943743, 0.09661038752952737, 0.0974839436245936, 0.09831391387916233, 0.09922953808095229, 0.10009405260607906, 0.10098222500157354, 0.10182607413007094, 0.10276622456779386, 0.10374215638325443, 0.10471201582022557, 0.10569831795502296, 0.10673932377920214, 0.10775168427011482, 0.10871132846096, 0.10976507699831689, 0.11082992213587196, 0.11202232332715455, 0.1130938205724902, 0.11404873793544583, 0.11516943382043957, 0.11629699081589073, 0.11746750425922606, 0.11860406701947768, 0.11977704165047486, 0.12092685119736184, 0.12208585952479514, 0.123206095375897, 0.12438729866368799, 0.12557290727075354, 0.12676261646086753, 0.12795608599088687, 0.12912793354365337, 0.13033093757333294, 0.13149618919874773, 0.1327061605772311, 0.13391454404995598, 0.1351768840637516, 0.13637489061321664, 0.13754909739530302, 0.13875199675859404, 0.13995332414154374, 0.14114425477952663, 0.14234200321099827, 0.14352784080083406, 0.1447190093939287, 0.14590514117785058, 0.14705242664169876, 0.14823128384563655, 0.14946845806447284, 0.15062186823439722, 0.1517700670016744, 0.15290382347631293, 0.1540399985233556, 0.15525681718912773, 0.1563644447265673, 0.1574673076244385, 0.15842781460783084, 0.1595341829727535, 0.16071030672836026, 0.16177295854732188, 0.16282390434455213, 0.16382895146621293, 0.16485820299194862, 0.16586867988762885, 0.16686582824464258, 0.1678458988354264, 0.1688834802645026, 0.1698185884360683, 0.17063113388956755, 0.17155052547441982, 0.17244763783527853, 0.17332244588184484, 0.17417488048450025, 0.17502428542246545, 0.17582915538237534, 0.17661232130095683, 0.17741511168295182, 0.1781485349319311, 0.17880594911223407, 0.17950484263281616, 0.18017884420065847, 0.18084168642538087, 0.18146364502102158, 0.18212764890432037, 0.1826915647616282, 0.183233947773711, 0.18365113889414947, 0.18416100241045213, 0.18468293193350588, 0.18512847877066754, 0.18554707619058977, 0.18589125052745983, 0.1862612283340873, 0.18663982981420707, 0.18694449743846803, 0.18722136739153958, 0.18751190667405615, 0.18772727509476045, 0.18792212848349932, 0.18808413166447396, 0.18821939352261025, 0.18834968685552733, 0.18842733412335544, 0.18844214289760122, 0.18847044033680846, 0.18846908102817933, 0.1884213158987028, 0.18836254148736997, 0.18823131861202413, 0.1881163934226716, 0.18796858432925367, 0.18776332766120352, 0.1875542100400034, 0.1874120644896662, 0.18712470729046338, 0.18681092894881202, 0.1863981206253799, 0.1860396180525686, 0.18575255619593808, 0.1853186922398879, 0.18485998051110136, 0.18427312531561202, 0.1837763669484187, 0.1832783709494941, 0.1827147218788319, 0.18212211438677448, 0.1814674718425387, 0.18082197412206874, 0.18010200097943938, 0.17940264283566654, 0.1786718385154559, 0.17798268662043637, 0.17718233566145233, 0.1763458341518483, 0.17549691024500644, 0.1745808557250883, 0.17368653929222785, 0.17276491541890432, 0.17187215523412624, 0.17089064436155105, 0.16983384886286107, 0.16881411331084778, 0.1677691118592314, 0.16676332770250146, 0.16566140372579644, 0.16443385854744386, 0.16330523962695156, 0.16215073024871657, 0.1610129653246323, 0.15980420037403092, 0.1585912362432466, 0.1573390710319078, 0.1560678723190519, 0.15479740844813072, 0.1534866502207546, 0.15223120090448214, 0.1508776367069632, 0.1495116426831918, 0.14807456058700852, 0.14669027879128924, 0.14532302606502218, 0.14390233874824887, 0.14246811270342066, 0.14097887567739853, 0.13952352068127613, 0.1379808064861064, 0.13650504090642998, 0.13501145016686766, 0.1335735229236604, 0.13203878479978778, 0.13043540799530415, 0.12888792415580258, 0.12732777980333934, 0.12579203572907746, 0.12420476290964734, 0.12267621807041665, 0.12106510069007458, 0.11945079486081317, 0.11781938833860194, 0.11620047560533033, 0.11457495746773738, 0.11294901970880811, 0.11131968825660998, 0.1097818094596117, 0.10813486845296573, 0.10649378696399943, 0.10485233107371329, 0.10321357388934885, 0.10150790949136085, 0.0998830203990936, 0.09827068679051636, 0.09664203425200495, 0.0950141592989044, 0.0933764949459644, 0.09175323270994201, 0.090140125004999, 0.08852009765841858, 0.0869036522163682, 0.08544696960439785, 0.08381970985214662, 0.08213976680701784, 0.08054826501366485, 0.0789657964029558, 0.07744251026791707, 0.07587222885088246, 0.07435323819270125, 0.0728026834464641, 0.07126652750962634, 0.06968057714608389, 0.06818056465401627, 0.06681587449756411, 0.06532111506369612, 0.0638446849486282, 0.062438905323870086, 0.06099115636046356, 0.059558082077244355, 0.05815094184352829, 0.05676274590855222, 0.05543215026775025, 0.05407628607059446, 0.05278001247874407, 0.05146032098518866, 0.05016304414918545, 0.048840551367630436, 0.047593027482553084, 0.046414466055883494, 0.04519881717770312, 0.044005578078164784, 0.04282360620666449, 0.04167658241198513, 0.040629276376879214, 0.03951648517565333, 0.03843050409913773, 0.037426596014308935, 0.03638636709053014, 0.035417096856994866, 0.03442965454735926, 0.033472958651598606, 0.03261865789520654, 0.031712653090035604, 0.030848375529647906, 0.030007278430846614, 0.02919856493073688, 0.02839109100508119, 0.027649415267196845, 0.026912059883869043, 0.026232235322504176, 0.025580456074690075, 0.025029313595018206, 0.02442553325539745, 0.023852148385904298, 0.023314868567092126, 0.02281028501045593, 0.02235225799106297, 0.021911262892833468, 0.021526027765762724, 0.021149274586818395, 0.02080733292755933, 0.020594584407918726, 0.020310079382676798, 0.02010167595506174, 0.019891843391286967, 0.019722717015723555, 0.01950739248925717, 0.019428425338550957, 0.01938622112348035, 0.019375166444804443, 0.019398850471039047, 0.01944922136563316, 0.01954429455732058, 0.019771760258922293, 0.019925158356617564, 0.020119847583464818, 0.020324810942464612, 0.02060468184370107, 0.02092302120051919, 0.021279848161716033, 0.021675208300271, 0.02213973642060035, 0.022608519237291833, 0.02314559326477729, 0.023691735288491163, 0.024279713302090566, 0.0249425911214016, 0.025609235945587953, 0.026371705294664698, 0.027117330583695295, 0.027908223298255947, 0.02870479425852165, 0.029589193012581044, 0.03051215500943952, 0.03147950788836611, 0.032487921131279185, 0.03353462553523891, 0.03462556387916061, 0.03580474418156615, 0.036971806325472235, 0.03818271863142229, 0.039317723849151456, 0.040630694905814904, 0.04208297643410069, 0.0434567672974947, 0.044874402804368, 0.04628848752239201, 0.047799350914755206, 0.0493621476301156, 0.050953548527142026, 0.05258697823202472, 0.05420702548172154, 0.05593202302795739, 0.05769638801829867, 0.05950069461671553, 0.06134544956913124, 0.06325888637274182, 0.06518230392514178, 0.06709332471517122, 0.0691101967391123, 0.07116725018141046, 0.0733650090753792, 0.07549116742647989, 0.07763103754250435, 0.0798550259860172, 0.082123247724379, 0.08444112247016751, 0.08679670210277297, 0.08916586865051561, 0.09161345970929315, 0.09410317722854546, 0.09662401067951068, 0.09919967895334499, 0.10186434051957106, 0.10451767618859144, 0.1072156567140988, 0.10991908016625505, 0.11271039874028434, 0.11555446964642194, 0.11842773668046673, 0.1213434026878572, 0.12434865713632845, 0.1273429892720978, 0.13030161317358163, 0.13339544016718488, 0.1366260226020337, 0.13978682076225377, 0.142993077833809, 0.14620251500907877, 0.14950322878651007, 0.15275095951554993, 0.15614650690292184, 0.15957803431959683, 0.16309065234288478, 0.16659036916222114, 0.17007187150329142, 0.1736592748164952, 0.1772835673973656, 0.1809896499998204, 0.18468333514923646, 0.18844804993887238, 0.19221865181425915, 0.19603112781368678, 0.1998656045116628, 0.2037630397580456, 0.20764168434054397, 0.21162540573095495, 0.21564496485244808, 0.21962278484545522, 0.22372448212756962, 0.2278998308987385, 0.23206086959533376, 0.23625743604494212, 0.2405201925406148, 0.244784172112234, 0.24906326689065095, 0.25340442729219603, 0.25778102672103764, 0.26223179582210754, 0.2666738005643945, 0.27117781717000966, 0.27569008456603195, 0.2802396115189369, 0.2847589507150144, 0.28938919880534986, 0.29396187795016, 0.2986659525799153, 0.30339610041339987, 0.3081528314743808, 0.31293653148051986, 0.3177057906899161, 0.3225494144559435, 0.32741818783651927, 0.33232355390335255, 0.3372420864475852, 0.34224816777240863, 0.34721171784709215, 0.35220487473881634, 0.357249153440707, 0.3622965667081234, 0.3673282279809354, 0.3724377894609806, 0.37757180417305153, 0.3826936567183123, 0.38787964809035774, 0.3931031920506267, 0.3983285641302382, 0.40357515533097205, 0.4088007730031056, 0.41409351303153663, 0.41943130585084387, 0.42475480625020473, 0.43009655683847836, 0.435361477311867, 0.4407498490820621, 0.4462660067289318, 0.4516618625562707, 0.4570754120974538, 0.46242778563627157, 0.4678833969681488, 0.4733631113014866, 0.478837010828772, 0.48432109286838626, 0.4898064208364805, 0.4953100855345858, 0.500771540328861, 0.5062965150401395, 0.511825190912785, 0.5173294804638021, 0.5228680947703489, 0.5284188363112227, 0.5339577752421155, 0.5394976752327674, 0.54498796832313, 0.5505344076645952, 0.5560938525122002, 0.5616305386230965, 0.5671637788306164, 0.5726846141735199, 0.5782100898832262, 0.5837296125606086, 0.5892424666317038, 0.594747885732159, 0.6003506540250487, 0.6058253776336988, 0.6111987837627686, 0.6166759210470688, 0.6221400854631867, 0.6275320842620405, 0.6329751362219601, 0.6383715437354277, 0.6437799385135579, 0.6491669183683711, 0.6546182355581436, 0.6599502250950541, 0.6652502931315013, 0.6705466471642032, 0.6758215376043853, 0.6810598807052939, 0.686290034796275, 0.6914749338689248, 0.696654872714119, 0.7018057700288222, 0.706840551292923, 0.7119414383352091, 0.717041704432874, 0.7220642224398883, 0.7270512979275542, 0.7319437773588977, 0.736864904207483, 0.7417836852873652, 0.7466169382950872, 0.7514101223860675, 0.756209537772385, 0.7609137587819403, 0.7654998419416603, 0.7701318355601019, 0.7747163506593058, 0.7793165742850439, 0.7837958202280886, 0.7881649312253495, 0.7925584353051451, 0.796899400828133, 0.8012064702484795, 0.8054374337301473, 0.8096422036444972, 0.8137606272632071, 0.8178244997433168, 0.8217880686489457, 0.825744614986203, 0.8295569590654892, 0.8334015175011183, 0.8371788324781306, 0.8408747893707078, 0.8445186160215354, 0.8481157094229971, 0.8516184304948456, 0.8550526211485739, 0.8584620466805863, 0.861751428022598, 0.8649892489302988, 0.8681389038120572, 0.8712189807557424, 0.874122644405008, 0.8770732372709135, 0.8800030800290203, 0.8827878073826629, 0.8854960826526057, 0.888127030998828, 0.89067978383089, 0.8931368077861889, 0.8955327065798347, 0.8978469246547494, 0.9001093375650278, 0.9022542524814684, 0.9042615472348762, 0.9062484665995453, 0.9081483883184035, 0.9099914617500038, 0.9117122488733629, 0.9132853074696959, 0.9148399224289875, 0.9163031073286304, 0.9177747227050246, 0.9190418291081046, 0.920125222121985, 0.9212306417330228, 0.9222420774544887, 0.9231566111717161, 0.9239799859675035, 0.9247448533645747, 0.9253742151100011, 0.9259105954254823, 0.9262840274828026, 0.9266417703622031, 0.9269151284511201, 0.9270747085196507, 0.9271370537744509, 0.9270993537436496, 0.9269674733817175, 0.926810324240611, 0.926474238609312, 0.9260446198992495, 0.9255541984009475, 0.9249315267909453, 0.9241322069659055, 0.923332843130772, 0.9223648122888992, 0.9213760329341755, 0.9202845468426228, 0.9190966695727544, 0.9178012783938773, 0.9163889140832838, 0.9148955818500004, 0.9133020832741393, 0.9116507268522713, 0.9098534662330806, 0.9079490367285072, 0.9059612741141916, 0.9038772570012177, 0.901697322487774, 0.8994218222412148, 0.8970983647376853, 0.8946268836126223, 0.8920636502214451, 0.8893058965997319, 0.8865723746448517, 0.8837666911868242, 0.8808367382847121, 0.8778131211852288, 0.87470496937327, 0.8714953441720629, 0.8681254202348387, 0.8647436446291573, 0.8612685983977724, 0.8577877325757541, 0.8541191218504379, 0.85037140327442, 0.8465332383230324, 0.8426117341041356, 0.8386185492779913, 0.8345306477379578, 0.8303951741112052, 0.8261418368233631, 0.821810746754312, 0.8173051112842878, 0.8128322996375885, 0.8083390662525128, 0.8036969047324634, 0.7989795750859849, 0.7941324519875981, 0.7892747096307988, 0.7843583326008883, 0.7793493860281635, 0.7742690868135234, 0.7691882564735523, 0.7639605250306317, 0.758683301513523, 0.7533278514850753, 0.7479114941242768, 0.7424322995281019, 0.7368971061996122, 0.7311841416283389, 0.7255485868833751, 0.7198502909266964, 0.7141303248453781, 0.7083080605885805, 0.7024926748214806, 0.6965558383964536, 0.6905715059714519, 0.6845463961944921, 0.6784699074482061, 0.6723026392665711, 0.6661463144969944, 0.659946387034382, 0.6536406858817242, 0.6473668537146087, 0.6410427024289845, 0.634688197149928, 0.6282956494831942, 0.6219311485218275, 0.6154608999708479, 0.6089847724007086, 0.602456986796095, 0.5959053445704584, 0.5892283804248971, 0.5826461179367748, 0.5761273180981341, 0.5694851763175242, 0.5628270594932068, 0.5560988208132664, 0.5494200994492264, 0.5427266579160007, 0.5360204517824463, 0.529303402436914, 0.5225273810798862, 0.5158006115897299, 0.5091797114086436, 0.5024246252348632, 0.49567222761571594, 0.48883753744982444, 0.4821049517086477, 0.475412770622639, 0.46868027101335413, 0.46195541489241815, 0.455173110509778, 0.44847677323467144, 0.4418169212370529, 0.4351365947096192, 0.4284707153011632, 0.4218488440650778, 0.41521363232496705, 0.40857186528094874, 0.4019840943763298, 0.39541892127342254, 0.38885858076455904, 0.38234609374756745, 0.3759823565409991, 0.3695091338428881, 0.3630727330752876, 0.35662105033546126, 0.35026713431088047, 0.3438910441114411, 0.33761820910793117, 0.3313809641021925, 0.3252394782351011, 0.31907141641520487, 0.3128391109956948, 0.306774189221257, 0.30074967514674716, 0.2947453966907172, 0.2888105776833629, 0.28304027170299856, 0.27718233121183206, 0.27137989311744753, 0.2655892701711588, 0.25990580854422346, 0.2542721974062014, 0.24870145561163828, 0.24318818168403414, 0.23776690753051502, 0.23236787625117916, 0.22691492772617805, 0.221657056199318, 0.21645705982439406, 0.21147508346546653, 0.20637594373919685, 0.20126510374424558, 0.19631997554965436, 0.19144217852411238, 0.18662708159397826, 0.1818873915336226, 0.1771312438009931, 0.1725426773211896, 0.16802063967627487, 0.16365274417691786, 0.15925715554499323, 0.1549730970209593, 0.1507241801544499, 0.14655354008398594, 0.14241126831339532, 0.13840385782509876, 0.13443617963203452, 0.13058561028745877, 0.12680994661708853, 0.12316553064456773, 0.11953487111002373, 0.1159648560762086, 0.11249695152708238, 0.10910824900401078, 0.10584900809840239, 0.10261307592045535, 0.09939031037944875, 0.09632818219995029, 0.0933443025039617, 0.09046123917082576, 0.0876319981423885, 0.08484418645519944, 0.08218051932305166, 0.07959495046181263, 0.07718498206324376, 0.0747439739666354, 0.0723120238234404, 0.0700479443722886, 0.06786231920343247, 0.06583012255519444, 0.0637917097999481, 0.061780083531905894, 0.05991263124577024, 0.058122870527902576, 0.05635493880759484, 0.05472669671754938, 0.053172068683420906, 0.05169111572247025, 0.05028381116438945, 0.049038969412538734, 0.04776731794986264, 0.04652651816223059, 0.04541598791890645, 0.04437885471426015, 0.043367272285193215, 0.0424810587714966, 0.04180262843611558, 0.04103622023085996, 0.040345757381915565, 0.03960184550553165, 0.03907480649522865, 0.03874265709499555, 0.03832733332013948, 0.037855040255243846, 0.03759605472584817, 0.03739774084058829, 0.03733195810292941, 0.03724460365804814, 0.03717333582323142, 0.037217419017052195, 0.03731981010495945, 0.03746026564644022, 0.037679315432441046, 0.03810314150696142, 0.03841190575163737, 0.038782255584759194, 0.039103758397725924, 0.039604912706412115, 0.040114017735189786, 0.040718804378090744, 0.041369042645632, 0.042086328669316636, 0.042822684726098875, 0.04357861964731739, 0.044406305530886654, 0.045275125865759366, 0.04626757588201502, 0.04720546375179296, 0.0481336074294258, 0.04916259753146891, 0.050228361765325844, 0.051399200336628925, 0.05252620174987696, 0.05356527168026189, 0.05478054445353208, 0.05602243058947589, 0.05733473542318192, 0.05862218161307443, 0.05998100619926158, 0.06131544317365172, 0.06267683792964435, 0.0641024950362566, 0.0655081264165257, 0.06686318200831269, 0.06832539689401185, 0.06980430548892295, 0.07136552542063287, 0.07286614861078444, 0.07430057053886209, 0.07584440601169634, 0.07739747115302872, 0.07901724295961901, 0.0805787179254334, 0.08210549801027156, 0.0836906856481833, 0.08528029566549786, 0.08687053215679855, 0.08846627341441629, 0.09009375876393552, 0.09168696123225284, 0.09328099158851531, 0.09489123406306638, 0.09648097223642056, 0.09795753264343265, 0.09955592921614463, 0.10114341009177452, 0.10283075342242949, 0.10438114883349557, 0.10593108400101069, 0.1074672751029543, 0.1089948901271403, 0.11047919189438295, 0.1119897572106234, 0.11346642535323577, 0.11494960476131091, 0.11641535406725721, 0.11790736920988928, 0.11933033839867124, 0.1207138416669445, 0.12210402857536862, 0.12347353605503501, 0.12481317831667176, 0.12613985466945632, 0.12735397776135535, 0.12864391798901484, 0.1299038138798461, 0.13121427488091372, 0.13240388897727273, 0.13353449297916697, 0.13467617648744898, 0.13578871987681096, 0.1368688583343613, 0.1379220131842726, 0.1389694212311997, 0.139957440885095, 0.14091519025099855, 0.14178644025048198, 0.14268875141685286, 0.14356414999389958, 0.14439479972589947, 0.14519042559504072, 0.14596470213144447, 0.14668785831512368, 0.14736220171948702, 0.14801693685284203, 0.14863530913405124, 0.149183778046981, 0.1497330620151795, 0.15033802516801192, 0.15079785586751426, 0.15122435560420344, 0.15151678286319792, 0.1518872399504981, 0.15224466829843547, 0.15253030700600603, 0.15277731368728276, 0.15302463762959762, 0.15318960386807104, 0.153307161754133, 0.15340070281260182, 0.15345688767825735, 0.15341452370661274, 0.15340358453215117, 0.1533073216122172, 0.1532208094087677, 0.1530919690884242, 0.1530466789984564, 0.1528197990904045, 0.15246543378455163, 0.15218414398048147, 0.15186393799553938, 0.1515248405597884, 0.15112603859336113, 0.15066327799571536, 0.15019600887238635, 0.14969173766421887, 0.14927889105981224, 0.14868623773798162, 0.1479904812861172, 0.14735069744756948, 0.14667781318998288, 0.14596941565371527, 0.14523180625939516, 0.14447045308918957, 0.14366809338575473, 0.14283507024712347, 0.14188567703281965, 0.14100355716031168, 0.14021515616211006, 0.13924986528303018, 0.1382599895579915, 0.13716778119318343, 0.13613882990597045, 0.1350785536107683, 0.13399376017733314, 0.13288204404736806, 0.13178875357131176, 0.13062021511015992, 0.12944375737597918, 0.1282303222383245, 0.12699686134812257, 0.12571046929652427, 0.12444253733461316, 0.12313748061564274, 0.1218315780836719, 0.1205059363312491, 0.11919763637190528, 0.1178307996120418, 0.11647407811447671, 0.11507490916234223, 0.11366350980374469, 0.11221811141065924, 0.11078649214240724, 0.10928733180428869, 0.10783957011085847, 0.10637825299132785, 0.10493239185376982, 0.10344407076019463, 0.10205009763080992, 0.10053270511130465, 0.0990143374793578, 0.09736996979944018, 0.09586562454832613, 0.09438141548200643, 0.0928595346078044, 0.09133406812917938, 0.08978651300109483, 0.08825916022532031, 0.08681605900322241, 0.08527507623757989, 0.08373909176089064, 0.08213336045863745, 0.08061776339292864, 0.07913452799369591, 0.07761968657964123, 0.07611038063505095, 0.07464066960268974, 0.07314035673788698, 0.07160234395197375, 0.07012752105384018, 0.06866048887631868, 0.06725769348529569, 0.0658017979712407, 0.06427875729124169, 0.06286028059109189, 0.06145145004342963, 0.06004498458978069, 0.058659609800664224, 0.05738089335642102, 0.056008892695380764, 0.05460344868581872, 0.05327693347946506, 0.051967059315322424, 0.050782815992468165, 0.04949435166751674, 0.04820817922292836, 0.046971268879726163, 0.04575712271710589, 0.044451860776291194, 0.043297855069818425, 0.042252221597685116, 0.04112106210887509, 0.040013836515066924, 0.038833490180791186, 0.037787063808172865, 0.036876495818311934, 0.03585464500190761, 0.03486047977885533, 0.03390504829631721, 0.03296468985404564, 0.0320136573893693, 0.03113463113056378, 0.0302815967061235, 0.029418765267535795, 0.028623277758708713, 0.027844388523429926, 0.027100411494159028, 0.02638202436749116, 0.025725907237900192, 0.025055744843711078, 0.02437858398155547, 0.023771356379087803, 0.02319144872064705, 0.022611460386134794, 0.02209082327834248, 0.021591416972394913, 0.021125540789376077, 0.020687037801174233, 0.02030965304641541, 0.019922815538318976, 0.01952177757306547, 0.019201042501611608, 0.018907975662042116, 0.01873456431872578, 0.01848603806171471, 0.01816819544109499, 0.017999055949228397, 0.017856463993351758, 0.017821303628347853, 0.017722444308525726, 0.017555315158412767, 0.017532105466014525, 0.01753400736868791, 0.017680832421259715, 0.01771873676136026, 0.01774751416915979, 0.01785494699029754, 0.017990950207079946, 0.01811343669320797, 0.018310642806136857, 0.018588458800126197, 0.018828648307274248, 0.019096838541110665, 0.019395229876878837, 0.019717356769775325, 0.01999649696260877, 0.02037983206986299, 0.0207846814558739, 0.02123054194704819, 0.021676037844717614, 0.022082972137758766, 0.02258107232097513, 0.02309774710455978, 0.02372209053035538, 0.024265102851943207, 0.024790271412975257, 0.02538546205695845, 0.026000640248298186, 0.026638201364955812, 0.027291832889531742, 0.02801719706179586, 0.028701562096487027, 0.029406891885468592, 0.030132278474888655, 0.030876856680521134, 0.0316064538739181, 0.032391186230152684, 0.0331908592370327, 0.03399111363470421, 0.034821020938846745, 0.03562754408519394, 0.03648712274738855, 0.037356638649857304, 0.038280425780581426, 0.03916375922625209, 0.04006454594638949, 0.04097033837664375, 0.04188708467962275, 0.04286136154060612, 0.04379206302966856, 0.04477053578737071, 0.04571895026628382, 0.04667907027606696, 0.04756633581511308, 0.04855690472630508, 0.04955393381788677, 0.050551213439740623, 0.05155170672108814, 0.0525939518049591, 0.05359484167604933, 0.05456664169782861, 0.05557954063763087, 0.05659341350959525, 0.0575884106569747, 0.05860548738798281, 0.05965457031092801, 0.06066448376135286, 0.06167436824892372, 0.0626558517031968, 0.06366745386323669, 0.0646674191275615, 0.06567315211923275, 0.06667445577200184, 0.06764325602835161, 0.06863833692627239, 0.06964874407222559, 0.07062708994158436, 0.07159950782556636, 0.07262676227239999, 0.07357847675672921, 0.07440151393610996, 0.07536089827226036, 0.0763079300846365, 0.07732898772831756, 0.07824105088062037, 0.079087726294397, 0.07999244367179774, 0.08088556829080763, 0.08188368629418762, 0.0827384667445789, 0.08350438653227577, 0.08435758259850391, 0.0851984375623563, 0.08595443014061335, 0.08677892384343484, 0.08771681552826424, 0.08849069675718503, 0.08925526341232197, 0.08995685585010327, 0.09070696124020694