0.053977643194040414, 0.053679667631419556, 0.05327789837367215, 0.05288311687911457, 0.05237611116554766, 0.05200736979288606, 0.05174645404986389, 0.051359507109785006, 0.0509770100129899, 0.050540025771567666, 0.05017196158947955, 0.049814741235522916, 0.04944432687275294, 0.049074194088091855, 0.04874804848458787, 0.04837291852717898, 0.04790821821892843, 0.047549889186876915, 0.04718850343921064, 0.04686667399459908, 0.04649533397346564, 0.04606477074809608, 0.04570242076455534, 0.04533746683250267, 0.04496880809732032, 0.044600347805349196, 0.04422410037894491, 0.043854210344321576, 0.04348334352171212, 0.04317822790758333, 0.042797979055414694, 0.04246508430650682, 0.042086258991291044, 0.04171292729982433, 0.0412764804231569, 0.0409210141240168, 0.04058507414579388, 0.040227487459675894, 0.039871366398403676, 0.03950372083933983, 0.0391520697284577, 0.03879621483230858, 0.03844657561945415, 0.038097489327655665, 0.0377247806163941, 0.03738020291491952, 0.03715333495155319, 0.036793091811383606, 0.036439511127993734, 0.036043283228426294, 0.03570707049847313, 0.03532429116560258, 0.034998156553495745, 0.034671148778588914, 0.03435008233832673, 0.03402148764116363, 0.03371596802728504, 0.033385510168698604, 0.03305709797455704, 0.03272099141811053, 0.03239783366798004, 0.032076124716205856, 0.03175593800339917, 0.03143734246867675, 0.03119812979101016, 0.030873080631650934, 0.030518545296784272, 0.03020970884184636, 0.02997034108066883, 0.029659125711096662, 0.029354461976817514, 0.0290832554151382, 0.028786433889576673, 0.02850743010023629, 0.028221534253846096, 0.02794163582073965, 0.027706074124726397, 0.027431769625747383, 0.027149743777566914, 0.026890379335182343, 0.02663593378522223, 0.026358576465532222, 0.02611660623524013, 0.025924248057101515, 0.025681735057900282, 0.02544470721625056, 0.02530520886565497, 0.02506677149690081, 0.02484973571885237, 0.024629157067307, 0.024417731707355086, 0.024208301718010368, 0.02401407706023518, 0.02387875697145964, 0.023691840451343493, 0.023514367533661908, 0.023387853431309308, 0.023222295197838312, 0.023054149312494575, 0.022910334486370282, 0.02277502236154499, 0.0226398173314966, 0.02252171773769819, 0.02247577375827708, 0.022364231192247938, 0.02226371328780583, 0.0221802429275484, 0.022099691280070322, 0.022060217043145886, 0.02199615398191774, 0.021943717651835296, 0.021912274065879343, 0.021880901286786204, 0.021990449463843105, 0.021965257287351925, 0.021958396072084118, 0.021891037064401753, 0.02192754232861901, 0.022051347687859997, 0.02210063114088237, 0.02216546215026584, 0.022297160178478083, 0.02238515461515334, 0.022424050044237965, 0.022554415821314205, 0.022697262530212484, 0.02288190963275407, 0.023046584947100775, 0.02331019991296211, 0.02349373063699349, 0.023696834282971084, 0.023935152159100484, 0.024173820957655433, 0.02437985068871352, 0.02466307294207676, 0.024961955174192293, 0.025364190629442764, 0.025684116052646106, 0.026088590954427986, 0.026442941449671003, 0.026821569417421406, 0.027243210252774624, 0.027665991551204673, 0.028128661892326334, 0.028596322437988698, 0.02908777809033956, 0.029539508649703672, 0.03008554847841944, 0.03064781842034595, 0.031233640522124982, 0.03183963293233203, 0.03252781267678105, 0.03316781905976922, 0.033873389882333314, 0.03455843431439845, 0.03527087793598566, 0.03595868216105648, 0.03673189932301583, 0.037581010664799894, 0.03839625357365359, 0.03923933778350413, 0.04007142073209568, 0.04097521842281386, 0.042013389876790076, 0.0429557088612628, 0.04393095206180408, 0.044912812503773845, 0.045956090227911355, 0.04703642321488667, 0.04814012870892856, 0.0492750047049706, 0.05043794043772406, 0.0516359930787194, 0.05282343826174178, 0.054090068485313336, 0.055386385032526436, 0.05670817789171711, 0.058066399802646135, 0.05952067686720649, 0.06093388981556041, 0.06238322399659463, 0.06382985882573045, 0.06535651854568099, 0.06692869995951242, 0.06852276344588046, 0.0701525661517619, 0.07178607237197929, 0.07349249977931087, 0.07523875760272158, 0.07701512422372842, 0.07882791813433163, 0.08065659074362669, 0.082546382845394, 0.08448580854706567, 0.08644792194492719, 0.08844860185892625, 0.09050607788223673, 0.09258286836888524, 0.09471174755091406, 0.0968688249124507, 0.09906771823612473, 0.10127940202428934, 0.1035659892120567, 0.10592230026259475, 0.10828673830637184, 0.11069413270088456, 0.11316078179748496, 0.11565236676171527, 0.11814119946707824, 0.12072713576886998, 0.12335466245684998, 0.12609382500225233, 0.1287969434954014, 0.13148518142675705, 0.13428915485565365, 0.1371359093628687, 0.13999664355123065, 0.14293365645848785, 0.1459127721893886, 0.14893449321925728, 0.15199926967487506, 0.15509616815881924, 0.158249649134215, 0.16147253264563505, 0.1647100935177905, 0.16799329230056143, 0.1713481084128015, 0.17471950499545882, 0.17810092036389352, 0.18157137410654567, 0.18508665873908026, 0.18868902252780334, 0.1922890566674327, 0.19584757938453162, 0.19955370369625036, 0.20330185552987723, 0.20718643270931333, 0.21100812299601, 0.21482326825348033, 0.21874845625461722, 0.22271812815644584, 0.22669344207135633, 0.23075703118646404, 0.2349406296385055, 0.2390792090080413, 0.24326487540615327, 0.2474550340074176, 0.25173874325834456, 0.2560382388007335, 0.26041196528241717, 0.26482724899914917, 0.2692825456181815, 0.2737813209249089, 0.2782698157632017, 0.28285815846815376, 0.2874849683973239, 0.29215375651229386, 0.2968578184510761, 0.3016286122285451, 0.30640759940868995, 0.3112272665638027, 0.3161131740754878, 0.32100985226202255, 0.32586495357988265, 0.33085345492130763, 0.335877064124286, 0.3409018103640651, 0.3459999568945169, 0.35117812823759986, 0.35633655022434996, 0.36151616862964514, 0.3667474951832866, 0.3720127841354315, 0.37731323019470525, 0.3826449229823887, 0.3880367998221466, 0.3934297694442463, 0.3988558004744332, 0.40421366108068324, 0.4097160052577968, 0.4152950918042939, 0.42084070631771897, 0.4264139981680038, 0.43205157479989953, 0.4376735707709735, 0.44322617343558707, 0.4489149600104649, 0.45462402309505956, 0.46038067020648016, 0.4661260554872179, 0.47188748565417843, 0.4776746074542016, 0.48348095393407464, 0.48935762440827296, 0.49519367614968307, 0.5010495977710042, 0.5069241533183902, 0.5128161307960203, 0.5186093686501827, 0.5245471726113952, 0.5304972846393387, 0.5364491562774014, 0.5424082110406668, 0.5484646764140065, 0.5544251912834874, 0.5602603639963448, 0.5662580357927397, 0.5722559832113223, 0.5782879626625402, 0.5842813036839121, 0.5902255605878379, 0.5962266523687825, 0.6022243430998814, 0.6082828918505749, 0.6142639624397508, 0.6201819361782478, 0.6261663859093312, 0.6321432700014474, 0.6381118091240595, 0.6440711635933614, 0.6500609224592648, 0.655994060294057, 0.6619174660114541, 0.6677601620135766, 0.6736688718380572, 0.6795356302013044, 0.6854113197490395, 0.6912663860482041, 0.6971859609373069, 0.7029867814093186, 0.7087678881204102, 0.7145311452425285, 0.7202730927185971, 0.7259566055213503, 0.7316559652166394, 0.7373421713257761, 0.7429830987947097, 0.7485948346959701, 0.7541615305240443, 0.759712907701395, 0.7652158956174464, 0.7707003454730984, 0.776147876041096, 0.7814521960982802, 0.7868360673537776, 0.7921464178351857, 0.7974415417876712, 0.8026885248707589, 0.8078855028367807, 0.8130355523832808, 0.8182091522484758, 0.8232507932470569, 0.8282460021100384, 0.8330995521557427, 0.8380098565263648, 0.8429746683455805, 0.8477593093564955, 0.85249338089901, 0.8571121583995472, 0.8617484070540921, 0.8662547134923901, 0.8707816525273904, 0.8752440112512494, 0.8797401647784064, 0.884059580150349, 0.8883136462929273, 0.8925112704096901, 0.8966453269635453, 0.9005979246153748, 0.9046157173736398, 0.9085612153706202, 0.9124307096208859, 0.9162257641237762, 0.9199799456571249, 0.9236204418103767, 0.9271496653136498, 0.9306459365847253, 0.934064330088722, 0.937473891007177, 0.9407259342080184, 0.9438292821332798, 0.9469376515957042, 0.949963687709367, 0.9528938872418399, 0.9557552224825816, 0.9585755004261479, 0.9612612444398548, 0.9638636276582133, 0.9663445063521282, 0.968782207896533, 0.9711982410335985, 0.9734509185755582, 0.9756182362447577, 0.9776068408184109, 0.9796120170119208, 0.9816273262915837, 0.9834322725040633, 0.9851492543944416, 0.9866849533288397, 0.9882347023290194, 0.9897095386816657, 0.9910646482733522, 0.9923248489668484, 0.9934850169571425, 0.9945552215642184, 0.9955132715793222, 0.9963933955879809, 0.9971762457854274, 0.997853665774988, 0.9984428068072387, 0.9989372650830953, 0.9993301520092815, 0.9996252911300535, 0.9999117110929153, 1.0, 0.9999306872450611, 0.9998407823637889, 0.9996530650907464, 0.9994306803371614, 0.9990393532452377, 0.998500369147701, 0.9979269163127369, 0.9972554480087631, 0.9964440198225446, 0.9955823399670538, 0.9947115064255081, 0.9936392589853842, 0.99247338364191, 0.9912201660168014, 0.989865722587775, 0.9884144406735282, 0.9868731927289286, 0.9852382082928662, 0.9835306927642085, 0.9817060984873052, 0.9796810995762307, 0.9776865591178956, 0.9755944073049745, 0.9734058130022196, 0.9711218989804303, 0.9687534641241029, 0.9662808975289948, 0.9637167095489128, 0.9610213367372934, 0.9582817727769062, 0.9555158206117238, 0.9525869723845538, 0.9495730108599819, 0.946526385091812, 0.9433375757845319, 0.94005884862599, 0.9367111862790993, 0.9332835076963655, 0.929671124461894, 0.9260984854894735, 0.9224644821436652, 0.9187225009988987, 0.9149008923013539, 0.910997731203709, 0.9070212017789979, 0.9029606621734154, 0.8988346300974955, 0.8946348219636796, 0.8904419331167083, 0.8860885766687406, 0.8815840893767796, 0.8771116538955761, 0.8725705398068062, 0.8679606484091951, 0.8632869232140921, 0.85860075055069, 0.8537934263314514, 0.8489276995618027, 0.8440386217762531, 0.8390549742122838, 0.834021343452291, 0.828931744395296, 0.8237828838319671, 0.8185929922213754, 0.8133535728860833, 0.808033441724714, 0.802702713828147, 0.7972758016806815, 0.7918575948389504, 0.7863922373674637, 0.7809464868068271, 0.7753845491227176, 0.7697185293459983, 0.7640909476495565, 0.7584246669747714, 0.7527572499962468, 0.7470148416456103, 0.7411863773040201, 0.73539047638938, 0.7295635839463086, 0.7237692353045836, 0.7178785361905528, 0.7119791177690664, 0.706044809158124, 0.7000923320805617, 0.6940857646837435, 0.6881056608677716, 0.682070501862617, 0.6760646430803152, 0.6700438287709317, 0.6640100619895425, 0.65796529591673, 0.6519081995554362, 0.6458475255713365, 0.6397812719611775, 0.633753359739197, 0.6276760457314862, 0.6215231430682883, 0.6154613162988671, 0.6094000470448845, 0.6033753758521666, 0.5973169603907489, 0.5913284546339842, 0.5852805889749766, 0.5792476913212496, 0.5731951870418472, 0.5671999260457741, 0.5612047237157624, 0.5552454723162821, 0.5493044767258081, 0.5433298784917884, 0.5374368640982641, 0.5316334049481923, 0.5257733787572672, 0.5199409951210975, 0.5141553062112748, 0.5083796812044531, 0.5026072869494328, 0.49690121289250805, 0.49122811737647626, 0.48559261462350606, 0.479989175509861, 0.47439220230446205, 0.4688684132127799, 0.4633827033260664, 0.4579349627841459, 0.4525300965531992, 0.4471999920497786, 0.4418771682940336, 0.43660126711056596, 0.4313798079735252, 0.42620005302431946, 0.42098000792902773, 0.415913465338199, 0.4108941490521046, 0.4059350753128922, 0.4010137220953772, 0.3962162323580737, 0.3913924107287015, 0.3866277577064192, 0.3818645853673361, 0.3772274723918558, 0.3726351524621585, 0.36811627065209623, 0.3636565490193492, 0.359227931722191, 0.35489342656422235, 0.35067134968491886, 0.34645265808327297, 0.3422996907836431, 0.3382243507317445, 0.3342030820258136, 0.3302514355164623, 0.3263663830292894, 0.322550244881477, 0.31880987948440437, 0.3151318837190943, 0.311464360827231, 0.30793500676979585, 0.30447325241570544, 0.3010847096592782, 0.2977597302895086, 0.29452572407911637, 0.29133843855029457, 0.2882232234553058, 0.2850863928408962, 0.2821278655935905, 0.27924160916349205, 0.2764181944800853, 0.2736641447586087, 0.2710804833408161, 0.2684542493494749, 0.26584954686098633, 0.2633829929987642, 0.260989044692101, 0.2586903963639131, 0.25643882386842126, 0.2541930685413994, 0.2520974742557417, 0.2500713232842922, 0.248195822075602, 0.24629896113433822, 0.244390744530601, 0.24265302846921818, 0.24098369426058008, 0.2394573027570345, 0.23791545467812844, 0.23645425593992886, 0.2350557470234438, 0.23372877195730188, 0.23235919268858657, 0.23118727145761742, 0.23014297412032012, 0.2290887238305225, 0.22810116697158703, 0.22718459089952261, 0.22632806810977088, 0.2254492772788482, 0.22473347137051589, 0.22407653633546354, 0.2235124525413131, 0.22296877782578978, 0.22253245593181398, 0.2221030371578664, 0.22173541373128425, 0.22136375072906372, 0.22112472492169688, 0.22093258909597263, 0.2208040290861755, 0.22072887553311196, 0.2207729317348242, 0.22079437016517112, 0.2208143203075753, 0.2209520071628551, 0.22113913450306746, 0.2213716614036121, 0.22165562948726247, 0.22204623894838926, 0.22241519162767848, 0.2228324096471001, 0.2232656815980166, 0.223779016202618, 0.22426339164958867, 0.22486919704917402, 0.2255110468149651, 0.2263049649721512, 0.22700238401698236, 0.2277161703626113, 0.2284962530609873, 0.2293122440787816, 0.23007690270971343, 0.230971331177716, 0.23189590120328538, 0.2328430574970076, 0.23381589132960579, 0.23486863126998964, 0.23588332179085064, 0.23684479446550738, 0.23792035771354741, 0.23901478026891956, 0.24016617814378066, 0.24129109837543988, 0.24247673046904852, 0.24363231255545986, 0.24480639102985502, 0.2459050799385704, 0.24712310272992513, 0.24842428424203078, 0.24964949236388279, 0.2508860143530973, 0.2520579095586317, 0.2533221455725895, 0.2546993467138643, 0.2559545854184677, 0.2572172455073045, 0.25840298095008, 0.2596857114454015, 0.2609710070696509, 0.26224763449895944, 0.2635204079657662, 0.26485634547744935, 0.26610981872144907, 0.267237167893815, 0.2684985123220031, 0.2698601545079882, 0.2710805909886333, 0.27229332795887967, 0.2734061731389404, 0.2746105021940967, 0.2758219718577994, 0.27698831504775817, 0.2781375965619762, 0.27922844288304555, 0.2803460398880432, 0.28145294710136665, 0.28252448176062767, 0.2835734287105225, 0.28465086076322965, 0.2856458283482404, 0.28656377705128294, 0.28752057903847394, 0.2884499702505585, 0.2893739501522374, 0.2902436275875834, 0.2910381576361606, 0.29185651482990504, 0.29264230276865744, 0.2933837198556058, 0.2941043764703031, 0.2948551258258003, 0.29549779369054185, 0.2961085133683872, 0.2967057137885531, 0.297247122813927, 0.297758055085489, 0.29823061158692565, 0.29866767440069847, 0.29905051831201207, 0.29941616818982314, 0.299661799791626, 0.2999589830519279, 0.3002114070550585, 0.3004774850094674, 0.30063332495800765, 0.30069121479350924, 0.30077119356625337, 0.30080578852345957, 0.30081446417890545, 0.30075590410917435, 0.30067735714544164, 0.30052697820123525, 0.3003333014739457, 0.3000991879942504, 0.2998174070094852, 0.2995125283129212, 0.29913948375485516, 0.29872289802164836, 0.29828503730623596, 0.2977773452645896, 0.2971372713274239, 0.2965537688890081, 0.2959211549189978, 0.2952965231760231, 0.29455974582732936, 0.293783069044253, 0.292956053937928, 0.2920843778537744, 0.29118578631824543, 0.2902223784414501, 0.2891682752218442, 0.2881232461116278, 0.2870317250673342, 0.28593135152178506, 0.284743324995429, 0.28345217387624255, 0.28218540647132817, 0.28087231733605417, 0.2794828079700106, 0.2780829482485184, 0.27667584568520637, 0.2751797198544694, 0.2736413464794686, 0.2721081540235255, 0.2704807614796595, 0.26874555641788034, 0.26705072000414676, 0.26531408453571387, 0.2636222603090607, 0.26179351721570765, 0.2598685642175169, 0.2579782975218827, 0.25605007414153635, 0.2540408609778474, 0.2520443192696414, 0.25001267878922917, 0.24794010259091462, 0.2458314316083479, 0.24368275915275742, 0.24150534033884408, 0.2393072874601896, 0.23706197632316608, 0.2347856281515897, 0.23255674994387, 0.23021083971495565, 0.22778553647329797, 0.22539806973222468, 0.22298356727902963, 0.22061079089229055, 0.2181358829127939, 0.21559146603497048, 0.21308108064115808, 0.21054759750950644, 0.2080581889462107, 0.20547247517938227, 0.20286816224592283, 0.20024898782872344, 0.1976134109140863, 0.19489873737336338, 0.19223977988126675, 0.18958834388287463, 0.18689047279609214, 0.18417792497120433, 0.18148722017934268, 0.17874351041291164, 0.17605785002464025, 0.17328625519698543, 0.17050983235167075, 0.16768503106999108, 0.16490509409952386, 0.16210248833655982, 0.1593124425529073, 0.1565166310404319, 0.15372250901669174, 0.15091728556601824, 0.14813065664928354, 0.14531879314081894, 0.14250752982017176, 0.13975917639035157, 0.13694368543615668, 0.13411845142806023, 0.13131825081388626, 0.12852435272197638, 0.12576651997856736, 0.12298343025194228, 0.12023129823254493, 0.11746585298454312, 0.11471253736543213, 0.11202035930117665, 0.10928651060076384, 0.10661108915965609, 0.10390477414463538, 0.10121765040793701, 0.09852708572320466, 0.09588143679640458, 0.09328976779343204, 0.09067684221395882, 0.08808535881410215, 0.08564681111269354, 0.0830826916998868, 0.08054695921299251, 0.07804252783564697, 0.07556713224712361, 0.07313840616056198, 0.07071843281326319, 0.06834940968486448, 0.06598661943781979, 0.06365511341176022, 0.06134849926014799, 0.059080739994907525, 0.05684283704587283, 0.05463864447880503, 0.05246671839365755, 0.050343786506272414, 0.048235990202660645, 0.046195472383491795, 0.04415386913426717, 0.0421500178666737, 0.04029919686513431, 0.038357290815872414, 0.03639913497563753, 0.034555100409459374, 0.032752089595477506, 0.03108107642507213, 0.029349577276976846, 0.0276004426981001, 0.025971100035396377, 0.024384764044940842, 0.022917978103355514, 0.02140936618894948, 0.019972081314464624, 0.018557800513638846, 0.017193302338789403, 0.015920550286187645, 0.014649965089578755, 0.01337792025312488, 0.012217794550566536, 0.01110623987243835, 0.01004847155070308, 0.009034535576119936, 0.008158008847546682, 0.007233309953983728, 0.006364214482030325, 0.005518009073113614, 0.004763323067936605, 0.0041135159968644554, 0.003458568610235909, 0.002908531584160294, 0.0023599022953020255, 0.0018699939307020986, 0.001438339659275098, 0.001064570857030697, 0.0006512461970943837, 0.0004047580870055833, 0.0002100660777445583, 9.215023174457098e-05, 0.0, 6.65660098465269e-05, 7.182322356241913e-05, 0.00013865635112125858, 0.0002924505386613448, 0.0004776713076991793, 0.000648481894427571, 0.0009662067176920637, 0.001340411692609228, 0.0017502952256262124, 0.0022408553574687702, 0.002878097875319553, 0.003469566516830887, 0.004122830784406754, 0.0047645905229259725, 0.005549420878293843, 0.006394061387661219, 0.0072919252052849465, 0.008247104999247135, 0.009332671102822643, 0.010393844007733116, 0.011546085516054901, 0.012726944990881955, 0.013970467544923088, 0.01519183222337156, 0.016569540664329842, 0.01798408883862236, 0.01947702680852391, 0.02102556414552255, 0.02270125647427304, 0.024352846744653767, 0.02610689264690915, 0.027873445883081584, 0.02970190059518939, 0.031588309531877745, 0.03353891315304577, 0.03554929070173049, 0.03761892620185869, 0.039747343469343, 0.04185475489170985, 0.04410947290572191, 0.04648367142947032, 0.048836446236821145, 0.05124652180725438, 0.053702185867170134, 0.05622717917562655, 0.05873649687336337, 0.06138139605455932, 0.0640773655003328, 0.06682309915175659, 0.06962227698104945, 0.07249744005223427, 0.07539705321888997, 0.0783498951320732, 0.08132014540211639, 0.08438333589282022, 0.08754891003669689, 0.09070669876815393, 0.09391794215824324, 0.0971416528572717, 0.10046341559657418, 0.1038316243579802, 0.10725300102452266, 0.11072351396815736, 0.1142769593064566, 0.11784078366541396, 0.12151160287481624, 0.1251683256667087, 0.1288774098850012, 0.1325261116823937, 0.13635107444099878, 0.14030186240529743, 0.1442029237633903, 0.1481519138644099, 0.1520525648100918, 0.15610733390768639, 0.1602430479154411, 0.16437373795622298, 0.16854731662362557, 0.17273104324608743, 0.17699340831653454, 0.18128276209865585, 0.18562649635138176, 0.19000908725223029, 0.1945324061877189, 0.1989793239602685, 0.20339736618807824, 0.20794037462344464, 0.2125211311619778, 0.21715542469812216, 0.22180839597347418, 0.22653437373002253, 0.2312570111861888, 0.2360178439011605, 0.24073016952648726, 0.2455756418584849, 0.25042604848561356, 0.2553363882883673, 0.2602758668498646, 0.2652396234366259, 0.27023790900060474, 0.2752858814984324, 0.2803386055873494, 0.28542074218328767, 0.2906047025632954, 0.29573504983804544, 0.3007986663598047, 0.30600447633248784, 0.31123460093977534, 0.316509863705276, 0.32178521758528894, 0.32703988190250816, 0.332369721370589, 0.33772054850263217, 0.3431552928058662, 0.3485393786158607, 0.3539293354416172, 0.35936214268834127, 0.3648158570981693, 0.3703205265499565, 0.3758100063007011, 0.3812438497056168, 0.38678292261256586, 0.3923362810080859, 0.39788256937001903, 0.4034661944343911, 0.409105579278718, 0.4147074757190947, 0.4203232496182675, 0.4259084375329469, 0.43155526301419356, 0.43723070359312854, 0.44289303564305393, 0.44856478813032447, 0.4541870175183834, 0.4598830172699349, 0.46565765422777394, 0.47135230397972616, 0.4770547517069436, 0.48275755611593835, 0.4884735433721873, 0.4940985828268955, 0.4998349663736845, 0.5055688536036758, 0.511364930450101, 0.51708528647474, 0.5227738750655361, 0.5284987120858191, 0.5342206467133552, 0.5399585179848806, 0.5456703805739047, 0.5513737016344975, 0.5570779752733487, 0.5627766172950128, 0.5684153873800043, 0.5741071057716147, 0.5798007177524227, 0.5854682839887164, 0.5911246735034454, 0.5966964108941245, 0.6023378063999216, 0.6079798296636577, 0.6135844912121038, 0.6191726458084394, 0.6246952745962938, 0.6302551780363189, 0.635872081077104, 0.6413804914650324, 0.6468720236288821, 0.6523408120509501, 0.657796184691538, 0.663203872480934, 0.6686214617663749, 0.6740154500267868, 0.679355964718191, 0.684704236749043, 0.6900136915833415, 0.6953078777442082, 0.7005727908385481, 0.7058224560366617, 0.7110252882621, 0.7161250171301194, 0.7212758041755564, 0.7263906710395529, 0.7315211997629629, 0.7365568824272959, 0.741552123227769, 0.7465198158652956, 0.7514514133218789, 0.7562958761910612, 0.7611590970805423, 0.7659436096076385, 0.7707281482143428, 0.7754681521112055, 0.7801536388507619, 0.7848049222088271, 0.7893809479620029, 0.7939432947063152, 0.7985347539794179, 0.8029897558370453, 0.8073998491119532, 0.811768830319829, 0.8160853250107313, 0.8203329998480632, 0.8245555696404765, 0.8287271138933544, 0.8328306040830337, 0.8368996385754064, 0.8408284113723955, 0.8447987195750974, 0.8487083592102307, 0.8525848255713224, 0.8563694557978206, 0.86014317460791, 0.8638021794088057, 0.8674033797669195, 0.8708421805274497, 0.8743380189184644, 0.8777755207060038, 0.8811374079396816, 0.8844331117651821, 0.8877303620513822, 0.8908842017178327, 0.8938904695005624, 0.896927247595546, 0.8998940202820489, 0.9027889368703247, 0.9056151557930386, 0.9084028170708665, 0.9110826959118448, 0.9136926979924984, 0.9162726235469981, 0.9187357146396591, 0.9210935554407458, 0.9234209213736998, 0.9256747585761008, 0.9277718930371694, 0.9298873577144884, 0.931940737945168, 0.9338942677254035, 0.9357690534307134, 0.9375746499377238, 0.9392902019076605, 0.9409885087447306, 0.9425383978717489, 0.9440123024435765, 0.9453770022614448, 0.9467005891302789, 0.9478808917580148, 0.9490517935302375, 0.9501382219015704, 0.9512067030088119, 0.9521161490273878, 0.9529596970009061, 0.9537058423136185, 0.954371344433186, 0.9549750812871846, 0.9554752304253274, 0.9558894597315146, 0.956227536263108, 0.9564832158280758, 0.9566220921427495, 0.9567161256562198, 0.9566600284900587, 0.956591550696888, 0.9564341194756857, 0.9562320101522848, 0.9558927519095409, 0.9554976478648889, 0.9549847785178153, 0.9543886827461182, 0.9537302582957042, 0.9529646295364307, 0.9520194594200083, 0.9511011447531759, 0.9500946425512132, 0.9490913209270561, 0.9478989927807565, 0.9465979666967475, 0.9452466181925898, 0.9438122944026174, 0.9422304036696197, 0.9406388880994667, 0.9390148226580456, 0.9372453586132077, 0.9353944318617242, 0.9333910740212343, 0.931387099423768, 0.9293876455285556, 0.9272042583244706, 0.924943143325989, 0.922599572422262, 0.9201840614549351, 0.9176587181943846, 0.9150927373959039, 0.9124481907086718, 0.9096852662805497, 0.9068907248115344, 0.9040432864077874, 0.9010888758753303, 0.8980591200076226, 0.8949207675779638, 0.8917468879445302, 0.8885417542982164, 0.885213442720353, 0.881814678205698, 0.8783266795839243, 0.8747914451378754, 0.8712563311132384, 0.8675741614681647, 0.8638281731039198, 0.8599458410069439, 0.8560825386023451, 0.8522044076762368, 0.8482024100643089, 0.8441389628114327, 0.8399921114289804, 0.8358108254136346, 0.8315691021305428, 0.8272679710755532, 0.8229084775123443, 0.8184738698526016, 0.8140031009966018, 0.8094438115558569, 0.8048661171853045, 0.8002329643879262, 0.7956106286507781, 0.7908628461807126, 0.7859802130849354, 0.7811495665382638, 0.7762684398182931, 0.7713611852603242, 0.7663812279272236, 0.7614217369431655, 0.756346345330744, 0.7512330062369478, 0.7460695920331779, 0.7408845342272272, 0.7356407811080435, 0.7303876307162713, 0.7250993972974362, 0.7197596034916087, 0.7144074658309433, 0.7089730658374861, 0.7035646391685564, 0.6981243012889194, 0.6926668762516823, 0.6871666262096591, 0.681616335423492, 0.6760692555441795, 0.6704982330570938, 0.6649098638289365, 0.6592955069309693, 0.6536512173802196, 0.6480026658336782, 0.6423379848519803, 0.6367300253324806, 0.6310288463029489, 0.625261944894388, 0.6195542168075463, 0.613837705956287, 0.6081025688738839, 0.6023743804618978, 0.5966152803639742, 0.5908818895293432, 0.5851450697438194, 0.5794842323129901, 0.5737357331532089, 0.5680157526335178, 0.5622770137274602, 0.5565472974484392, 0.5507351308833861, 0.5450376687019576, 0.5394325169746251, 0.5337388979535792, 0.528059969989268, 0.5222978842765358, 0.5166636546394204, 0.5110803386590914, 0.505467125160226, 0.49987172954682535, 0.4943101039528229, 0.4887526140131518, 0.48322592474654164, 0.4777140155684419, 0.4722276516525613, 0.46676309407298644, 0.4613317926399913, 0.4558611104876235, 0.4504968235673945, 0.44515965105663163, 0.4398431789813282, 0.434566227800552, 0.42932075345221504, 0.4241082836930187, 0.41893027512641584, 0.41383993628163807, 0.4087284095900861, 0.4035886154660085, 0.39856942163258097, 0.3936216782334424, 0.38867788410096227, 0.3837776329359295, 0.3788911272144629, 0.37408473122066077, 0.369303542568996, 0.3645900147919002, 0.359922245315698, 0.3553775212833028, 0.3507951160658612, 0.34630170317843595, 0.34182190548148095, 0.3373982490874412, 0.33301466986878536, 0.32870577988711785, 0.32441054930224517, 0.32021889335003234, 0.31608142662116356, 0.31193736717926035, 0.3079182791532032, 0.3040379012823789, 0.300114879980474, 0.2962517567526541, 0.29240022607778127, 0.2886638667897615, 0.2849855111589879, 0.28136582884805394, 0.27780543789213524, 0.27425956656587935, 0.270825150614133, 0.2674830545613298, 0.2641617665333719, 0.26090221222460447, 0.257659409726607, 0.25453009065494997, 0.25151597215348825, 0.24850058591432334, 0.24554956407517134, 0.24271473154531767, 0.23988589346234035, 0.23707572553239598, 0.23438707350849358, 0.23176207035733093, 0.229242819367566, 0.2267397714848465, 0.22420065334333172, 0.2218419892709153, 0.21954275059149114, 0.2173487238889889, 0.21516385038651728, 0.21309221735884432, 0.21102690930522858, 0.20902709021612656, 0.2070403137160612, 0.20517616273852918, 0.20342621244074932, 0.20167668052783289, 0.1999905689309057, 0.19830082875223823, 0.19674799765744158, 0.19523188667029037, 0.1937971771842635, 0.19241883389554465, 0.19114702785289206, 0.18987491483861407, 0.18859367871218793, 0.18744730589528677, 0.1863547265870371, 0.1854275674687986, 0.18442805440749296, 0.18344758060592112, 0.1825710123044208, 0.1817493098055127, 0.18100110854728713, 0.18028429112246105, 0.17963399186523393, 0.17902170552600014, 0.17846180853422489, 0.17784153420557738, 0.17739746202714585, 0.1770256168656265, 0.17666393938355623, 0.17634672070144078, 0.1761042255872479, 0.175870474811183, 0.1757071561926745, 0.17555827906353452, 0.1754535745426285, 0.17540325168514195, 0.1753820970874995, 0.17538784560741968, 0.17545031262055497, 0.17555111075338645, 0.17563092805511074, 0.1758127101992294, 0.1760281251962763, 0.17627318455218083, 0.17654919963057047, 0.17681339855527187, 0.17715459155193092, 0.17763072455288983, 0.1780106334406095, 0.1784220823146029, 0.17874052704798749, 0.17922623154910314, 0.17973713018381887, 0.1802625305708344, 0.1808077267191307, 0.1814433987784875, 0.18201740354742488, 0.18257929737363263, 0.18320007033111316, 0.18383821293912148, 0.18450729911530084, 0.18517532659102598, 0.18585526888711207, 0.1865528652649759, 0.18726314667401944, 0.18792671331206773, 0.18866642635704728, 0.18944787947905717, 0.190194699981367, 0.1909483459411953, 0.19166409418816535, 0.19243390909563438, 0.1933184305959288, 0.1940759663459847, 0.1948398610052562, 0.19548863781547118, 0.19627553778781434, 0.19712537490960597, 0.19789306801865209, 0.19865852785002172, 0.19942550062714878, 0.20018256975110274, 0.20092955985032973, 0.20167572324397837, 0.20241426508448113, 0.20309238298514742, 0.20381930007888155, 0.20452469791989847, 0.20522528477428206, 0.2059109447446326, 0.20656174180727221, 0.20721845987778445, 0.20795633418092607, 0.208564890630461, 0.20916047257100212, 0.20972559414375258, 0.2102934680022516, 0.21074663254840467, 0.21129072731258375, 0.21180993688437272, 0.2122863492386572, 0.21275768188839922, 0.21332896519979105, 0.21373150474889827, 0.21411449592957132, 0.2144346046786708, 0.21478021083651, 0.2150178731258059, 0.21532254540276646, 0.21559593527906468, 0.21589477643964788, 0.2160985521573507, 0.2162272757474851, 0.21638025680415052, 0.21650143476291203, 0.21661173054297722, 0.21666622423106952, 0.21675926241200683, 0.21674241744445857, 0.21669767614818497, 0.21655126523999613, 0.21645731196789245, 0.21633861225222442, 0.21617441361124243, 0.21597610611775322, 0.21578075195484317, 0.21550898015080985, 0.2152062888555301, 0.2148687816307182, 0.21449796927768808, 0.21411615134019146, 0.21367479577499107, 0.2131324186912352, 0.2126332174313694, 0.21209640277022862, 0.211591846146887, 0.21097171015830365, 0.21023596723674698, 0.20955987516216906, 0.20884548258010513, 0.20813532365845297, 0.20734027566990013, 0.20654613246978287, 0.20567716362854072, 0.20477554714106408, 0.2038556456618199, 0.2028863183319243, 0.20184098371538056, 0.2008124529374517, 0.1997489267252313, 0.19871063296565677, 0.19757049177533206, 0.19634463396395924, 0.1951499978980527, 0.1938631161216561, 0.19260839161858956, 0.19131733381824784, 0.19009611797580278, 0.1887217941445505, 0.18728726814781865, 0.1858613423387278, 0.18440572306521105, 0.1828851146925697, 0.1813756265384578, 0.1799326691911247, 0.17835033214340443, 0.17674418861044888, 0.17504449444893816, 0.17339928783459949, 0.17171332677416212, 0.170014845059273, 0.16828920734942754, 0.16655177343357336, 0.16477232481607712, 0.1630401046745868, 0.16120423736089678, 0.1593496173522457, 0.15749088957413931, 0.15559721223867365, 0.15367632255693514, 0.15174904619359464, 0.14980413175048096, 0.14784358053516689, 0.14586438096066753, 0.1439077880498349, 0.14189166568351852, 0.1398625146088859, 0.13784974690007604, 0.13579171640342144, 0.1336909024048645, 0.1316163904694845, 0.1295301796852439, 0.12754948898194862, 0.12542705722511524, 0.12331925948547297, 0.12118799444816336, 0.11905423963431312, 0.11685959373599153, 0.11472803932975602, 0.11265554776628887, 0.11050509199284343, 0.10835400868242126, 0.1062316923338755, 0.10407649784956458, 0.10190711415570008, 0.09975822260431026, 0.09761101107962579, 0.0955858545054105, 0.09342854455118228, 0.09131219889085303, 0.08917111745589447, 0.08704156155813121, 0.08488605475816623, 0.08278371405666399, 0.08066950012556456, 0.07858865011024281, 0.07651681132347823, 0.07459887117802791, 0.07252916990957974, 0.07042066344091105, 0.06839699569463287, 0.0663890707179503, 0.0644119122744648, 0.06243504576270432, 0.06056695868042312, 0.058615326436301046, 0.056687943395370234, 0.0547798286046083, 0.052901319368002825, 0.05104193501878204, 0.04921226734196199, 0.04740691624667555, 0.04569920615087173, 0.04393469893228234, 0.04224222958667337, 0.04053228769476729, 0.03885478484634041, 0.03715454313366067, 0.035548638126165134, 0.03407570761506695, 0.032516023716605946, 0.03099281565807715, 0.029528616312520444, 0.028075201019058377, 0.026685374963322666, 0.025304041383960117, 0.023961938239206157, 0.022594273155304934, 0.0213388627636558, 0.02011118516901209, 0.018929226243179352, 0.017784181674162194, 0.016689838832806295, 0.015619470092947252, 0.014602152832851802, 0.013611022355352848, 0.012662074487921027, 0.01179797554707368, 0.010929765783319575, 0.010101323616115914, 0.009326649264972205, 0.00859834718212778, 0.007928100047384767, 0.00729217137508465, 0.0067982677817349955, 0.0062469779325416246, 0.005749690570307989, 0.005302751269290293, 0.004912736935663116, 0.004582078799320567, 0.004296895709421802, 0.004064808484412875, 0.003806439812125566, 0.0036905403094232227, 0.0036654563858754805, 0.003642416469405111, 0.0036719205257354053, 0.0038044986833341925, 0.003933740533918522, 0.00411610319574425, 0.004358400375758848, 0.004656774826721168, 0.004988593927562815, 0.005402132103722527, 0.0059062974209663915, 0.006425630899071312, 0.007002549288408296, 0.007651620590778849, 0.008341875335228763, 0.008996670510693775, 0.00981566321146462, 0.0106877583651108, 0.011639613410776347, 0.012616808323881073, 0.013639250642346511, 0.014731374555858745, 0.01588007172154203, 0.01718609366255402, 0.018436264913824375, 0.019644328817620592, 0.021033532055115205, 0.02247889830641418, 0.02397758608319723, 0.02553682453844504, 0.027253472570107934, 0.02891431320783798, 0.030638296074965935, 0.03241346020516857, 0.03426334336895169, 0.03610601767311789, 0.03808572916401288, 0.04012170568585955, 0.04222712822659485, 0.0443746300294503, 0.046626627154491646, 0.04888325473975254, 0.051200013371882236, 0.053557038329462216, 0.055995241380493374, 0.05842000639986782, 0.06098262703964592, 0.06359862775021992, 0.06631045851222833, 0.06902886265287819, 0.07177953788306352, 0.07461392986249842, 0.07750309187746482, 0.08045831408091991, 0.0834554071944494, 0.08648012388443296, 0.08959075140054475, 0.09275446507286818, 0.09599062697589297, 0.09925780111474868, 0.10259824015555168, 0.10597027073735449, 0.1093965025803231, 0.11284077009665508, 0.11637829111757608, 0.11999069479840521, 0.12362608796605602, 0.12731291806365116, 0.13108306868925382, 0.13486716609531607, 0.13861879372341818, 0.14251622967975172, 0.1464591487928336, 0.15052846800945033, 0.1545519083798874, 0.15856189432300447, 0.1626918442179854, 0.1668662360600541, 0.1710961013647884, 0.17535699534883145, 0.17970242921514165, 0.18404582035180586, 0.18837299147912584, 0.19281393097843164, 0.197295037173887, 0.20184837781893067, 0.20640472505988078, 0.21093072808974778, 0.21557719830390853, 0.2202591819892235, 0.2249716954530803, 0.22972487002014577, 0.2345888032616864, 0.23940137146900944, 0.24425223068393154, 0.24907073977731325, 0.2540039789833583, 0.2589281640242009, 0.2639289998850866, 0.2689581840401297, 0.27403985603335157, 0.27912213333105207, 0.28422371730507895, 0.2893646988692988, 0.2945329827033792, 0.2996859061267736, 0.30491239604822257, 0.31026242566027584, 0.3155221780788143, 0.3208099794608273, 0.32609379380563897, 0.33143781916331827, 0.3368142018391672, 0.342201379191801, 0.3476099404095197, 0.3530340511905936, 0.35848307684706754, 0.3638661143130125, 0.3693613117395116, 0.37486818997217636, 0.38042700807261365, 0.38595137695499815, 0.391501745108922, 0.3970497946404065, 0.40261005424517404, 0.40817999227043766, 0.4137621370329067, 0.41935203704938173, 0.4249522296315431, 0.43055989075219586, 0.43616440587325817, 0.4417855325678805, 0.4473995402310668, 0.45302970156147915, 0.45866176905209427, 0.46419458260679425, 0.46984084539873466, 0.47555875460104885, 0.4811830146255188, 0.48680541158309715, 0.4923991773383352, 0.49801853003839136, 0.5036189866912686, 0.5092274002069167, 0.5148277206977351, 0.520336704474976, 0.5259292613078735, 0.5315248035079594, 0.5370853455946565, 0.5426317311328337, 0.548118155193602, 0.5536404949332258, 0.5592174001548998, 0.5646936263919282, 0.5701549562972718, 0.5756051883181212, 0.5810329304158249, 0.5864169556430497, 0.5918112563726822, 0.5971840992372546, 0.6024892645865577, 0.6078222690463303, 0.6130816221651091, 0.6183666199772785, 0.6236211125499259, 0.6288901514330306, 0.6340769435838151, 0.6391909263074417, 0.6443241752879082, 0.6494240751220343, 0.6544900503829866, 0.6595214705135938, 0.6645581394048614, 0.669513252610516, 0.6744339265313852, 0.6791862647967537, 0.684051522637241, 0.6888894025104548, 0.6936620224421874, 0.6983903228902131, 0.7030674540228813, 0.7077067404969088, 0.7122821943874784, 0.7168311699260351, 0.72133202250605, 0.7258781845364839, 0.7302693934499955, 0.7345173363103649, 0.7388306561575732, 0.7430911955033664, 0.7472774013711102, 0.7514334849138389, 0.755587393162865, 0.7596250312798014, 0.7636090749549252, 0.7675191006973459, 0.7713954512136239, 0.7752676220866657, 0.7790211922732799, 0.7827185609600846, 0.7863439309379366, 0.789927123648978, 0.7933315777861155, 0.7968077052409299, 0.8002147935192605, 0.8036597725805433, 0.8069153465504462, 0.8100753998183732, 0.8132077554222809, 0.8162731155940636, 0.819191437499364, 0.8221307559344717, 0.82507266581692, 0.8278552955030269, 0.8305685435347634, 0.8332083962750407, 0.8357809886871407, 0.8383060518261658, 0.840731255579897, 0.8430846633799027, 0.8453362914264686, 0.8475473273386337, 0.8497052212102274, 0.8517612878596331, 0.8537418659624424, 0.8555232444531711, 0.8573665062042108, 0.8591222965484491, 0.8607979383007983, 0.8623899424057019, 0.8639779373295841, 0.8653934038167366, 0.8666720152933618, 0.8679371726045215, 0.8691194064314234, 0.8702170614322846, 0.8712335138536549, 0.8721246538437328, 0.8729799075047, 0.8737493673288035, 0.8745223000462019, 0.8751094741639522, 0.8755790751381024, 0.8760096555523209, 0.8763565854406182, 0.8766682117382391, 0.8768410170363221, 0.8768966241146918, 0.8769102136152994, 0.8768391509328443, 0.8766800404279997, 0.8764396354690919, 0.8760573207707273, 0.8756535534757972, 0.8751612711257882, 0.8746602556616231, 0.8739821831124721, 0.8731694374386633, 0.8723319139174469, 0.8714081020852125, 0.8703593779110935, 0.8692686219817775, 0.8681403176770708, 0.8668682815138805, 0.8655124047188585, 0.8641067914085881, 0.8625792585762669, 0.8609653175625992, 0.8592752090574217, 0.8575031606064311, 0.8555682761358561, 0.85364284193582, 0.8517009072785127, 0.8495952683975082, 0.8474090887938822, 0.8451506941873879, 0.8428031388520977, 0.8403795470011262, 0.837873315980837, 0.8352886042492518, 0.8325205014679726, 0.8297932128778926, 0.8270863316454204, 0.8241807952128893, 0.8211032437246061, 0.818060628167932, 0.8149384531895598, 0.8118075773472038, 0.8085211126257568, 0.8051333840894551, 0.8017069041390013, 0.7982077722252555, 0.7946044390464151, 0.7909666123339767, 0.7872552202081214, 0.7834748187691953, 0.779624581205495, 0.7756893950827819, 0.7717047561957018, 0.7676169379643842, 0.7635028600046632, 0.7593215348423346, 0.7551650502350485, 0.750841932980085, 0.7464623478137644, 0.7420233937006829, 0.7375275856917676, 0.7329334631392097, 0.7283312469143233, 0.7236346475520138, 0.7189239888593699, 0.7141563549060377, 0.7094141397827729, 0.7045265709272014, 0.6995599938703727, 0.6945805229041411, 0.6895525248375285, 0.6845045809816753, 0.6793792281511214, 0.674208494480473, 0.668996714874246, 0.6637429116940062, 0.6583930209729193, 0.6530651462738309, 0.6477308686419387, 0.6423159720960309, 0.6368640968697112, 0.6313472980432241, 0.6258287737580979, 0.6202752872816052, 0.6146883179165193, 0.6090693280510348, 0.6033857595699404, 0.5977113567533453, 0.5920445721954355, 0.5863078936155728, 0.5805470060311188, 0.5747713097171343, 0.5689648941804231, 0.5630722511892982, 0.5572358040525534, 0.5513782967601628, 0.5455468685764351, 0.5396468464305912, 0.5337610650441196, 0.5278322646105977, 0.5218942789597409, 0.5158639655942557, 0.5099214698625075, 0.5039602365646998, 0.49799930019087724, 0.4920308406699472, 0.48606471665953943, 0.4800854131263712, 0.47407338464995286, 0.4680955865903731, 0.4621171295357511, 0.45618506139223414, 0.4502046139028053, 0.44421642084508967, 0.4382526467766542, 0.4322972308040918, 0.4263838485448268, 0.42044490666517453, 0.4144535711009112, 0.40855200407832293, 0.40266269747678446, 0.3967872051920844, 0.39092702896761755, 0.3850836225621074, 0.37925839552244023, 0.37345271659067003, 0.36766467815322906, 0.3619024629178239, 0.356131118306604, 0.3504207703011727, 0.34473434747433235, 0.3391494148915162, 0.3335055326338224, 0.3278794709305443, 0.32230289995453654, 0.316759294383337, 0.3111701593173448, 0.3057050767265888, 0.30030022494600217, 0.2948951260409663, 0.28952567265765483, 0.2842788054887487, 0.27897310679049897, 0.2737078737343429, 0.2684903148130823, 0.2633169761579236, 0.25817697203966233, 0.2530948932004446, 0.24795745755959755, 0.2429787901722136, 0.23804081328664448, 0.23314013048137322, 0.22828843699114879, 0.2235120306286109, 0.21874671948725652, 0.21403003693838896, 0.20936442863673407, 0.20474723744413345, 0.2002070352208819, 0.19568942695609445, 0.19122571692357715, 0.18673050706869518, 0.18238671494811856, 0.17808840445868399, 0.17384699973154585, 0.16965775449207587, 0.16552971429168065, 0.16144652449750066, 0.15743311517861724, 0.15345913824663615, 0.14954240907213665, 0.14575296498902054, 0.14194311075946545, 0.13818418587215553, 0.13450003282978001, 0.130877023143703, 0.1273069590597375, 0.12380697161024702, 0.12036903181579198, 0.11698969664573872, 0.11367087925561066, 0.1103979870678357, 0.10720198720549953, 0.103995985929236, 0.10092812724618763, 0.09791612495640534, 0.0949524733981857, 0.09205488635767163, 0.08923525015386348, 0.08644919546899782, 0.08372192755001369, 0.08110371009447992, 0.07848781431250422, 0.07589794640241992, 0.07340938088676073, 0.07097951882089926, 0.0686017048833463, 0.06628950274566793, 0.06399776856893742, 0.06180548223370358, 0.05966834865613879, 0.05758152452202913, 0.05555528594351178, 0.05359672516041646, 0.05167815815211188, 0.0498147077764615, 0.048036785342751694, 0.04627857387308498, 0.04457926707833872, 0.04293126962875425, 0.041337702709392674, 0.03977030228811565, 0.038286870600889575, 0.03682173277437086, 0.03544324060274448, 0.03411255026929434, 0.032894120775484696, 0.031649845991197224, 0.030391124506606866, 0.029254693710819374, 0.028162978388604078, 0.027151161553376886, 0.026142996664248436, 0.025133112398068477, 0.024220496526778813, 0.023348742363154477, 0.02254325774007635, 0.021748396304436198, 0.02105573069216475, 0.02033356260741129, 0.019653795193323935, 0.01891627990632253, 0.018329740153323483, 0.017779327436624463, 0.017257711884002443, 0.01676821687735937, 0.016358831497999892