0.06538020488114864, 0.06386634368547826, 0.0625394598735844, 0.06111838002055255, 0.059752240409642124, 0.05842353599022335, 0.05713147241629725, 0.0558229747552084, 0.054594323329640836, 0.053366291233828855, 0.05217628799536899, 0.050999362943474826, 0.04983366389818816, 0.0486777364120272, 0.047454453951206586, 0.046324677278896345, 0.045297757173159404, 0.044161835755409135, 0.04303535207946536, 0.04189429635749265, 0.0407891198959766, 0.03982486155222348, 0.03871904236553527, 0.03762950275642028, 0.03652250270133376, 0.03546848094230376, 0.03431870482248874, 0.033305849861513435, 0.032301066643149405, 0.031291437569634976, 0.03030856211656968, 0.029417597428803118, 0.028448087269072803, 0.027496792323376196, 0.02656899343175882, 0.025655137045739792, 0.024680632941790303, 0.02381777864761803, 0.022971601490443992, 0.02227159307766721, 0.02144608394705263, 0.02057656718916966, 0.019814555394645238, 0.019075792069540135, 0.018384692257423296, 0.01769137755247735, 0.016986552598330262, 0.016351460150690354, 0.015741571791634566, 0.015295413263844681, 0.014720684410431603, 0.013962441326151938, 0.013484990192369862, 0.013029520694965305, 0.012721084916711395, 0.012298380852067432, 0.011785239962596108, 0.011444539942874424, 0.011130408493898592, 0.010901102628638306, 0.010636524345048661, 0.010485933549048863, 0.010278095884329172, 0.01010904801831816, 0.009893124469915904, 0.00981212442689998, 0.009793421183239807, 0.009777147582852821, 0.009797743654175073, 0.009760655222677047, 0.009868435263874898, 0.0101707443533782, 0.010325321700046944, 0.010524381474948424, 0.010606173803082966, 0.010914109789038926, 0.011361653246719063, 0.011727872509520997, 0.012137636500477798, 0.012524757027403568, 0.01303104508853567, 0.01359247907535334, 0.014179694894851231, 0.014810451305930953, 0.015490247368181343, 0.016209705158189747, 0.017108189028878246, 0.01790344928130958, 0.018753452646052472, 0.01965300848878286, 0.0206119051484377, 0.021567303324227193, 0.02264038081166019, 0.023763731533937363, 0.0248998978123819, 0.026130271847458305, 0.027443734103478987, 0.028770441635156543, 0.0301505737591138, 0.03162744075878006, 0.0331106603106068, 0.03466560656588667, 0.03626217473703117, 0.037917467586645395, 0.03940833492171503, 0.04120985383508674, 0.0432434903947077, 0.0451172770733147, 0.04705222357165252, 0.04887748569846444, 0.0509570191617044, 0.053259840824187624, 0.05542385408801417, 0.05765280889170159, 0.059775605635336924, 0.062155960765505856, 0.06477692094225158, 0.06724586801195234, 0.06978321002383518, 0.07228881716406035, 0.07497457583005591, 0.07763673045452653, 0.08045775918548892, 0.08333707764515065, 0.08629962917099256, 0.08929594482882497, 0.09240730750533832, 0.09552319520688143, 0.09870595088464205, 0.10201263261883946, 0.10532202233132298, 0.1085875208958942, 0.11205114886334626, 0.11557763027354602, 0.11903920470031808, 0.12270911256141827, 0.12653104022155376, 0.13030424208314179, 0.1341422264745683, 0.1381212075411747, 0.1420796540408216, 0.14609803020965728, 0.15019594291722896, 0.1543615793576125, 0.1584566712973039, 0.16277375353815351, 0.1671209088053382, 0.171559406802294, 0.17605604703278793, 0.1805971924555536, 0.18521362863385255, 0.18985083256414312, 0.19458997330329592, 0.1993863178935775, 0.2043828200591241, 0.209276644522715, 0.21412246749396552, 0.21916165934011964, 0.22425829028684302, 0.22936471778907286, 0.23458176432342934, 0.23998599047986977, 0.24529451685109446, 0.25066457957652977, 0.25595237439160384, 0.26145978642376844, 0.26699805806604454, 0.27260759236509663, 0.278265786728445, 0.2841626173105302, 0.2898937456932457, 0.2956693706121663, 0.3015178801650453, 0.3074205982631691, 0.3133759121901289, 0.31938227743438213, 0.3253811928245961, 0.33149246988822595, 0.33764729736526694, 0.3437830193678337, 0.3500300715573023, 0.3562527067024263, 0.3625818101042645, 0.3689437907718395, 0.37538603399010895, 0.3818072402797862, 0.38831072471206235, 0.39479456927884965, 0.4013140238578073, 0.4077821906951855, 0.4143795606387909, 0.4209798617533926, 0.42763291945724946, 0.4343098569430097, 0.44118105066726615, 0.4478819984725048, 0.4544620688975689, 0.4612422547243068, 0.468040526654287, 0.4749890041342652, 0.4818037912793663, 0.48864590164282895, 0.49550303425720443, 0.5023786854870232, 0.5092232474751438, 0.5161357264293428, 0.5229106674299572, 0.5298597397999183, 0.5368072142089854, 0.5438002374797516, 0.5507372535034811, 0.5577973276443191, 0.5647165991823548, 0.5716399227235643, 0.5783844557702846, 0.5853319125899601, 0.5923473905714755, 0.5992584728917619, 0.6060458577978006, 0.6129504741874129, 0.6198358852351413, 0.6268724479031109, 0.6336956034389479, 0.6404544113237727, 0.6472575732017476, 0.6540409160205649, 0.6607502937790578, 0.6674949728480318, 0.6743870830637309, 0.6810513548693597, 0.6876942036271446, 0.6942699338708862, 0.7008666863546928, 0.7074454830860796, 0.7139738111773382, 0.7204663885564504, 0.7268402459374851, 0.7332650154675234, 0.7395195719874458, 0.7458652434004471, 0.7521545435221006, 0.7584915711309436, 0.7646534669748973, 0.7707061143087396, 0.7767690823714246, 0.782773268988119, 0.7886509352449158, 0.7945422554221638, 0.8004100032540699, 0.8061624126457011, 0.8118491157008546, 0.8176065312833773, 0.8231402467468584, 0.8284834801777294, 0.8339064556645879, 0.8392550096745215, 0.8444755608336305, 0.8496779049145766, 0.8547988686263709, 0.8598374878292675, 0.8647927326273981, 0.8696445107916967, 0.8744321016928387, 0.87919362291778, 0.8837966720098517, 0.8883131921534708, 0.8927272935034717, 0.8970676823733059, 0.9014204609681746, 0.9055619257316315, 0.909614285330635, 0.9135040442805707, 0.9173806590060137, 0.9211388626527467, 0.924817773801504, 0.9283936532762842, 0.9319509475160261, 0.9353067268138767, 0.938442294955585, 0.9416085214200676, 0.9446633197973094, 0.9477154089490655, 0.9505318161889371, 0.9532554175360644, 0.9558543976875764, 0.9583442076089873, 0.9605761263855251, 0.9628620389922985, 0.9650550391774959, 0.9670945468815577, 0.9690142528731602, 0.9707805917099783, 0.9724639655974286, 0.974172001887544, 0.9755914158346863, 0.9768962820819695, 0.9781042861419683, 0.9791738200438622, 0.9799837413258761, 0.9808360395996522, 0.9815611548992202, 0.9820975832874363, 0.9825768997783024, 0.9830783045804017, 0.9832791574696272, 0.9833598575908825, 0.9832912054110999, 0.9831332277238353, 0.9827899398207127, 0.9823925003113683, 0.9818677301758477, 0.9813348293594679, 0.9805416132442156, 0.9796337039274277, 0.9786004432645079, 0.9774470183213961, 0.9759735146661614, 0.9746040392163804, 0.9732687623279618, 0.9716156228989355, 0.9698427375975486, 0.9678836155918943, 0.9658798220652446, 0.963733884618564, 0.9614870264293804, 0.9591175883405142, 0.9565410238450394, 0.9539401696709389, 0.951362150963883, 0.9484954165666579, 0.9455157302921531, 0.94237590667076, 0.9391773997569741, 0.9359072873992259, 0.9324756035692496, 0.9289339133959532, 0.9251783681225109, 0.9214320020931616, 0.9175292637281172, 0.9135628165914411, 0.9094837811101527, 0.9053131620762022, 0.9010124738665892, 0.8966868342834978, 0.8921661476344579, 0.8875475759245592, 0.8827038064574262, 0.8779086793376644, 0.8729925890468265, 0.867998151008457, 0.8629050218334066, 0.8579007320661638, 0.8525933990258902, 0.8472090065855811, 0.8417380110009413, 0.8361867349302167, 0.830323157932825, 0.824643281274401, 0.8189108372552439, 0.8130480200088772, 0.8071026703148322, 0.801129520662303, 0.7950198324931818, 0.7887284734924701, 0.7824896987912721, 0.7761761572256807, 0.7698713931449962, 0.763406318614982, 0.7568742891763016, 0.7502872707530037, 0.7436415215400437, 0.7370340005841325, 0.7302645788897468, 0.7235283623233728, 0.7166547955929458, 0.7097407135167904, 0.7027726279617704, 0.6957817884838701, 0.6887334288442318, 0.6816693162670712, 0.6745684431386981, 0.6673327536954786, 0.6601762207858871, 0.6531347582985032, 0.6458877772118432, 0.6386177588045221, 0.6312215859385476, 0.6239230628690607, 0.6164909180665467, 0.6091600870753965, 0.6018038637123215, 0.5945254070019345, 0.5871157874455861, 0.5796391064847027, 0.5722188158931432, 0.5647896953090009, 0.557264127111408, 0.5498366756964257, 0.542474392804031, 0.5350289345770056, 0.5275876529095673, 0.5202574477292251, 0.5128183639408342, 0.5053202746662214, 0.49792623939028896, 0.4905478268064764, 0.4830731433882811, 0.4757467912448221, 0.4685120338650017, 0.46121020008948926, 0.45393404063015563, 0.44662865174335753, 0.43941735016243055, 0.43236778612240784, 0.42519951920218724, 0.418072245886704, 0.4110251944062773, 0.4039788089836914, 0.39693659897758937, 0.3899905543325884, 0.38301996541066463, 0.3761779238199735, 0.3693816967670947, 0.36278070803406476, 0.35606380986875397, 0.34930740571845165, 0.34272442572879086, 0.33619771851757774, 0.32974326115745783, 0.3233324322649916, 0.3168744610669085, 0.3106032355913947, 0.30439100738185354, 0.2983874100543148, 0.2922814393346006, 0.28608781303345054, 0.28015083482848835, 0.2742802847673035, 0.2686683685927247, 0.26291295595719666, 0.2570743859243653, 0.25150652283667824, 0.24601302553196835, 0.2407096495007126, 0.2353555219546012, 0.2300347402747597, 0.22485894254966518, 0.219766843862392, 0.21475465238282773, 0.20983339094472095, 0.20516461933057994, 0.2003955901676026, 0.19572379599929307, 0.19093012516515628, 0.18647891727893634, 0.18223967562020718, 0.1779411328851033, 0.1737363868256084, 0.16966367652504336, 0.16564240689568926, 0.16157997184367004, 0.15776929977774984, 0.15404739912132392, 0.1504818735979932, 0.1469322352242357, 0.14347324359119423, 0.14011520722215823, 0.13685267691172923, 0.1337380900585195, 0.13066043807261454, 0.12770537477972177, 0.12482201102948833, 0.12203808101218248, 0.11930077463054205, 0.11672071196404345, 0.11442564230885201, 0.11201135638802268, 0.10970249757480306, 0.10736909754143086, 0.10528241910507848, 0.10334636553836085, 0.1014394313507338, 0.09962874852006913, 0.09799430632944191, 0.09636358267076783, 0.0948456075438346, 0.09340868815014734, 0.09206838563828047, 0.09084237004203229, 0.08968896859879583, 0.08849642381300545, 0.08754634393481385, 0.08668017320399422, 0.08583603613382258, 0.08514508178525469, 0.08465276731544019, 0.08410663466290799, 0.08364714653480082, 0.08340625077439681, 0.08309995457395074, 0.08292250001244462, 0.08279088707904514, 0.08274801976254345, 0.08278690463772938, 0.08291553783535877, 0.08297901768593371, 0.08328870753526778, 0.08366866149290124, 0.0842751713369317, 0.08477423098131281, 0.08538860672414486, 0.08603547042644435, 0.08675786104149819, 0.08746811293616036, 0.08834605500959651, 0.08936462772277048, 0.09036099883841667, 0.09142387986397718, 0.09244217184452046, 0.09364649951083985, 0.09493443181585394, 0.0962445628746998, 0.09760974965407211, 0.09901458618875959, 0.10048819797134083, 0.1022120711911624, 0.10376072458728539, 0.10536897665031866, 0.10709103086823217, 0.10880299592549415, 0.11034648142542253, 0.11219353025529154, 0.11407740847013785, 0.11596891097244276, 0.117927881068818, 0.12012406392576659, 0.12212231485991552, 0.12416346292391602, 0.1261974907874067, 0.12832306202513602, 0.13058151474698437, 0.13275891042079968, 0.13497153151021987, 0.13710762667937512, 0.1393972503810179, 0.14177073792467573, 0.14409553669508315, 0.14644348094665632, 0.14877960016803088, 0.1511729672737688, 0.15369668574425974, 0.1561069876038296, 0.1585374545363668, 0.1610476802011745, 0.16350426909750715, 0.1657455119977371, 0.16826415642245987, 0.17078270784800886, 0.17341979178296502, 0.17592255514258773, 0.1784596203197407, 0.18096897170541545, 0.18348297324790888, 0.18603334919561212, 0.18854790748948405, 0.19098855390772487, 0.19351533397156842, 0.196036822920475, 0.19854743800481006, 0.20105645065494093, 0.20370470491295256, 0.20617820066438358, 0.20865033288253226, 0.21088631257979618, 0.213379396083648, 0.21604738857349393, 0.21847636190627726, 0.22089689159189005, 0.22316497164889404, 0.22558235022583156, 0.2280694771298342, 0.23043435774356605, 0.23278366458331212, 0.23503101101990892, 0.23735744695747055, 0.239827363575974, 0.24208709749550628, 0.24433322656521825, 0.24640750071334985, 0.24864202044928257, 0.25089768682875385, 0.25307364862001924, 0.25522622975319537, 0.25743116523523635, 0.25952652323554093, 0.26152592228861965, 0.2635901644364532, 0.2656285863151787, 0.2675936093263052, 0.26958620977164693, 0.27161666692258724, 0.2735438696576555, 0.275446784272997, 0.2774106746283405, 0.2792534575312906, 0.28087653504432963, 0.28270343224364225, 0.2844974571007097, 0.28651620294414276, 0.2882150014193324, 0.28975081921115037, 0.2914355785376183, 0.29309400220893117, 0.2946503364591852, 0.2962665239061423, 0.29805252542997634, 0.29958492298392203, 0.3011005825865095, 0.3024181730209906, 0.30392100920829945, 0.30540935258309465, 0.3068539974634573, 0.308277596998323, 0.3096709258557906, 0.31104044957241656, 0.31252949252087087, 0.31383571246619324, 0.31497162907029325, 0.31627025559783356, 0.3175459003348855, 0.3187759186521904, 0.3200118966315701, 0.3213455551172795, 0.32252549216246884, 0.32369331375496935, 0.32482539805288896, 0.32597247707214294, 0.3270069637562653, 0.32814157736658756, 0.3292589040457782, 0.3303746158936668, 0.33145975241689374, 0.3326702511494913, 0.3337142308905898, 0.3347557274904175, 0.3355951355379846, 0.33665687110367104, 0.33783339946220203, 0.3388537884348615, 0.3398714957611433, 0.3407968594259522, 0.3418224966578931, 0.3429326074276747, 0.34393665902807513, 0.34494278060220596, 0.34593730637986625, 0.34695117381082174, 0.3478541536774796, 0.3488895381386127, 0.34992329473508654, 0.35105695028405376, 0.3520799730855409, 0.3530929020364318, 0.35413681332377317, 0.355189915595801, 0.35631483361710325, 0.3573810759214964, 0.3584625405756579, 0.3595595824769977, 0.3606726156889482, 0.36171658138827073, 0.3628738567428121, 0.3641103760284655, 0.3652859652831788, 0.3664805093789645, 0.36767088695492756, 0.36890827028145934, 0.37008446076351964, 0.37137209135518895, 0.3726764990970766, 0.37402293163918693, 0.3753622650160271, 0.3765956095979619, 0.37799679215909376, 0.3794150810781856, 0.38102348472001246, 0.38246005719526754, 0.384023728134641, 0.3855125302645747, 0.38703898320673785, 0.38857399195650644, 0.39017771569230475, 0.3918588526964668, 0.393526446831446, 0.39523110201820133, 0.3966494630451117, 0.39846839816510493, 0.4005527990856771, 0.4023798384308385, 0.40424398573924736, 0.4060027584371276, 0.4079593455156174, 0.41009257505440816, 0.4120904941671927, 0.4141284116852623, 0.4159875813544157, 0.41813261922453987, 0.4203001863103968, 0.42250204234250854, 0.42473402277341, 0.42708296035701776, 0.4293681237588109, 0.43160134822020574, 0.43397474091754906, 0.4363816342604822, 0.43902235722152155, 0.4414731965131337, 0.44389938705224274, 0.4464512829101896, 0.44904349939658766, 0.4515948192338244, 0.4542765647939076, 0.45706405129901867, 0.45980593871003217, 0.46258664075095574, 0.46544840246474534, 0.4682997744362316, 0.4709674906163948, 0.47392555190333646, 0.4769090425680402, 0.47997122216599847, 0.4830017475108257, 0.4861723233716824, 0.48925059752532857, 0.49236573431501585, 0.49529337951774083, 0.4985073880757547, 0.5019279879975155, 0.5051619597895292, 0.5084290490917515, 0.5116379113508462, 0.5149794585625693, 0.518279366582812, 0.5216787710772205, 0.5250986086305794, 0.5285009239003345, 0.5319664624119832, 0.535435809315706, 0.538939254984164, 0.5424597790723048, 0.5460399646290096, 0.5495885674074036, 0.5532412504236167, 0.556815265778843, 0.5604108140275735, 0.5638741748506819, 0.5675270278810669, 0.5712782492276058, 0.5749355275815519, 0.5786051552752165, 0.5822003055986499, 0.5859015317036772, 0.5896776458225103, 0.5933764537100401, 0.5970815048162629, 0.6008056644518888, 0.6045172292056276, 0.6082174055608662, 0.6119349914406054, 0.6156516298174991, 0.6193897031304133, 0.6230973152533559, 0.6267299077598696, 0.6304374592102572, 0.6341341334807493, 0.6379282516893181, 0.6415864173581671, 0.6450514964882065, 0.6487155452032032, 0.652357516236001, 0.655991303673183, 0.6595861095600043, 0.6631154258778768, 0.6666693654072772, 0.6701964611489596, 0.6738196264273959, 0.6772754409591734, 0.6806093947065385, 0.6840317679098942, 0.6874227210439006, 0.6907670050138704, 0.6940938806329402, 0.6974756704506756, 0.7007193821324866, 0.7039306996879235, 0.7070650188518812, 0.7102114842036389, 0.7132797783222147, 0.7163493848125664, 0.7193740108489975, 0.7223953870353162, 0.7253215175997507, 0.7281353623126381, 0.7309769160591408, 0.733766085539539, 0.7364402324480727, 0.7391297918822503, 0.7419413265814686, 0.7444904224889173, 0.7469900324572971, 0.7494238155898926, 0.7518201132095306, 0.7540841858273691, 0.7563760460233012, 0.7586042279332473, 0.7608058641142372, 0.762899241814366, 0.7649426795530708, 0.7669046756522154, 0.7688009371834469, 0.7707062633418355, 0.77245782752773, 0.7740683906592052, 0.7756979307515405, 0.7772549907496884, 0.7785676887963763, 0.7799989516709398, 0.7813552310581298, 0.7826169491219, 0.7839858867723783, 0.785058185869839, 0.7860587837446639, 0.7867249219247392, 0.7876109795248504, 0.7884969861646713, 0.7891919612198678, 0.789803481636654, 0.7902554700236852, 0.7907094881283698, 0.7912703145699234, 0.7915241607312875, 0.7917017625146011, 0.7916497926317182, 0.7916904091158088, 0.7918090707737466, 0.7916524476283241, 0.7914174470781498, 0.7910459262623377, 0.7906581379646107, 0.7902285557803254, 0.7896659612943937, 0.7890206919706235, 0.7882114508015969, 0.7874095691769751, 0.7865049313714344, 0.7855282384761312, 0.784463021644737, 0.7832575180994154, 0.7820233592264973, 0.7807134777132171, 0.7792984657236955, 0.7777960313220313, 0.7763113997834804, 0.7746229659811612, 0.7726316858985233, 0.7708122348613048, 0.7689004331124464, 0.7669550889705372, 0.7648566142034507, 0.762864026018679, 0.7605741538790612, 0.7582126902264493, 0.7556697387366813, 0.7531772378338216, 0.7506626851282149, 0.7480055755029331, 0.7452740987186622, 0.7423402987268211, 0.7394773875305555, 0.7364628789752858, 0.7334499235915912, 0.7303557757167467, 0.7273582952682615, 0.7240855926270277, 0.7206428747209035, 0.7172527600213016, 0.713792072200392, 0.7102954404597602, 0.7066934901120265, 0.7029936287698694, 0.6992676391266187, 0.6954772729843699, 0.6915716413930203, 0.6876632524316881, 0.6836916628064204, 0.6796586539315509, 0.6755659549443258, 0.6713677355779585, 0.667166676425458, 0.6629319578809276, 0.658615027498228, 0.6542458741266476, 0.6498974109971061, 0.6454196967154975, 0.64092710967361, 0.6363600230880194, 0.631753199644785, 0.6270837545834801, 0.6224031548998167, 0.6177128350137402, 0.6129534499552153, 0.6081600257606504, 0.6033954489048854, 0.5985295513343076, 0.5934418032273111, 0.5885472376653068, 0.5836163756517619, 0.5787467999039935, 0.5737388857156117, 0.5687121103090038, 0.5636578675139675, 0.5585832886429297, 0.5533948331464917, 0.5482960765753042, 0.5432996976858819, 0.538145298717096, 0.5329811808529218, 0.5277989843529944, 0.522620113798367, 0.517396566245007, 0.5122105357951695, 0.5070184659501414, 0.5016700356661667, 0.49649026613105496, 0.49148634988122036, 0.48626714307867824, 0.4810545080600762, 0.4756879830947376, 0.47051222153596844, 0.4654181290931962, 0.46023645001211283, 0.4550650784244399, 0.4498105912321336, 0.4446766358740999, 0.4396616666382099, 0.4345355872817164, 0.42942979723590413, 0.42439774111223594, 0.4193294681540429, 0.4142737272900739, 0.40926161086337093, 0.4042770998500095, 0.39931644378352465, 0.3943907754735304, 0.38937199208532314, 0.384523896260052, 0.37970151805030894, 0.3750827787418428, 0.37029584594264725, 0.36536520092730956, 0.3606852579848049, 0.35603733852229114, 0.351594509015862, 0.3469949334726096, 0.34221460084189714, 0.33773878145998093, 0.33329814304311023, 0.32897572694343713, 0.3246018667231358, 0.32031202927180874, 0.31602652672496045, 0.3117913972952824, 0.3075598588706149, 0.3034336696440935, 0.29929558447764065, 0.2952780307814998, 0.29130898367479635, 0.2875752071470293, 0.28368400541621924, 0.2798034846063138, 0.2760444342853297, 0.2723447919601295, 0.2687665738847753, 0.26517870246115505, 0.26160224228621126, 0.2581481339620591, 0.2547544416980949, 0.25136450018958595, 0.24809990313965616, 0.24485080866393927, 0.24170894680882643, 0.23862447935423403, 0.23559841761254893, 0.2326316695599766, 0.22981532367319618, 0.22695813394618813, 0.22416749626442514, 0.22150501357183475, 0.2188391911915397, 0.21615266186021745, 0.2136367709695946, 0.21118420535186744, 0.20886646411314036, 0.2065321810910471, 0.204251532520665, 0.20205436605636828, 0.1999233958138989, 0.1977205433770713, 0.1957385321857871, 0.19387115643651423, 0.1919980038970172, 0.19018719077003984, 0.18845307369119976, 0.1867653814547716, 0.185169459318854, 0.18360449583312258, 0.1821039756080299, 0.18049635327771568, 0.17914485532072288, 0.17789895802194033, 0.1766483745675218, 0.17545558210559584, 0.17433966948975502, 0.17326020537535217, 0.17222055030104041, 0.1712607721520724, 0.17035799054939252, 0.16944537915117855, 0.1686640122221714, 0.16812484361319477, 0.16742376829708985, 0.16673794428330824, 0.1661666911304352, 0.16565219617882979, 0.16511727671349022, 0.16472245610829556, 0.16450025920280223, 0.16418751382071073, 0.16392977228031624, 0.16368744034935162, 0.16353983843658101, 0.16339781185481198, 0.16335121636878738, 0.163348421020126, 0.16345048889346833, 0.1635253362011675, 0.16352170371821603, 0.16370099260562476, 0.1639158568829306, 0.16431810931152682, 0.16458410772090695, 0.16474594618855748, 0.16511511991664576, 0.16551580943230562, 0.16593813141202757, 0.16640182981094231, 0.16684286303512133, 0.16737184002182223, 0.1679263518915311, 0.16851090378233424, 0.16911503559881122, 0.16988170160901547, 0.17051731604169, 0.17118416870811795, 0.17179965628303723, 0.17253378926496304, 0.17345091816406613, 0.17420656042841134, 0.17499077667275725, 0.175630222579512, 0.1764864810158858, 0.1774027767777728, 0.17827755918139554, 0.1791664416892843, 0.17997338571542645, 0.18089945168613497, 0.1819595402825945, 0.1828806089427781, 0.1838140272298208, 0.18471082860466323, 0.18567065082341236, 0.186612200953919, 0.18758507775833191, 0.18856026387495906, 0.18956078153195668, 0.1905353533394369, 0.19141626455104152, 0.19240459715668431, 0.19338699390307437, 0.19439650698648353, 0.19536211887408575, 0.1963798108823518, 0.19732763972993939, 0.1982723068815401, 0.19917459875831306, 0.20011418295161043, 0.20111150718121382, 0.20202434351736173, 0.20293057637813772, 0.20378137892133516, 0.20467654354359302, 0.2055111891979932, 0.20638561512416687, 0.2072429054912403, 0.2080114531826781, 0.20884243897957955, 0.20990300138818024, 0.21065779438442384, 0.21140466776231473, 0.21191825306717244, 0.21267154696014653, 0.21340826155408435, 0.21410842994538148, 0.2147834458561448, 0.21546657465606922, 0.2160870412972683, 0.21658429973432533, 0.21717011804280775, 0.21772609169186183, 0.21832388493808338, 0.21881224054833473, 0.21930416103425027, 0.21973859007433566, 0.2201488131275463, 0.2206244601947212, 0.22097295700927772, 0.22120546615968845, 0.2215228051089965, 0.22181147065063575, 0.22203795740835722, 0.2222727584817774, 0.22257135297493952, 0.22273173492865617, 0.22286632966261874, 0.2230029180235878, 0.22308023666939095, 0.22308392225034326, 0.22311429326986254, 0.22311454150061483, 0.22308926993419795, 0.2230282618988585, 0.2229893222579322, 0.22286122608750378, 0.22270573023502951, 0.2223988610284457, 0.22220295782472974, 0.22192413982399525, 0.22166422829198212, 0.22136776129594077, 0.22122585128960606, 0.22083531837106493, 0.22022698818675898, 0.21981438697415265, 0.2193665472089216, 0.21894632131643416, 0.21842335713594097, 0.21795238817961543, 0.2173620019818247, 0.21674806705771096, 0.21598199640048438, 0.21533637125408336, 0.2147923847715575, 0.21406810122204806, 0.21332175017888438, 0.21240106497307687, 0.2116292227868058, 0.21095464956221954, 0.2101057823008766, 0.20923547679101429, 0.20831051301438452, 0.2074017157477439, 0.20656018521171188, 0.2055944273458093, 0.2046116881011559, 0.2034359417107177, 0.20244089979369456, 0.20143764418209992, 0.20038723086638022, 0.19931350678952445, 0.19813682778699562, 0.19703002307373352, 0.19588908302475028, 0.1947358276516854, 0.19356050729533547, 0.192407336871248, 0.19118672649759133, 0.19002176091242107, 0.18876169961657593, 0.18749160325804812, 0.1863541898438569, 0.18504657373169525, 0.1837423358441657, 0.1824305321834881, 0.18111612106793792, 0.17953723915189776, 0.178249199103772, 0.176961723922377, 0.17563637520429357, 0.1742974537616111, 0.17297500426557902, 0.17160983660234871, 0.17030351992806622, 0.16891562583366257, 0.1675257906518823, 0.16616291708573816, 0.16476680480977235, 0.16337161236327263, 0.16197757836724058, 0.1605849898271223, 0.1590658889133292, 0.1576934408117385, 0.15648263951840638, 0.15508132438220334, 0.15368751794438754, 0.1522678958116429, 0.1508932010299602, 0.14931037989428833, 0.14797451722751542, 0.14663321397197351, 0.14545020519084942, 0.14408396075406465, 0.1427891029113083, 0.14143463975162868, 0.14009398595236383, 0.1386197345865205, 0.13732505606583773, 0.13617358238289906, 0.1348735764043684, 0.13358915538357144, 0.13210173099301373, 0.13087610137112582, 0.12988195261659063, 0.12863619897215522, 0.12741025159227037, 0.12613730320018005, 0.12495859642339596, 0.12371930901866283, 0.12258155982858172, 0.12146065000992333, 0.12034752682147892, 0.11924877264330347, 0.11817948688532885, 0.11711013507227831, 0.11601077232184134, 0.11498297401388577, 0.11397105170309013, 0.113080381266428, 0.11208944748040435, 0.11105603379347694, 0.11012137116025106, 0.10920661891911822, 0.10825040321834475, 0.10738443100069776, 0.10674504864857348, 0.10588849540819935, 0.10506270791289603, 0.10422862268027216, 0.10346615145688286, 0.10265352559322331, 0.10195202075797538, 0.10127141285197135, 0.10065005273453104, 0.10000742051545534, 0.09923670058059267, 0.0986611518871612, 0.09810092646134275, 0.09762847906740883, 0.09709329290064989, 0.09655679593732683, 0.09606971332515551, 0.0956041173672402, 0.09507005047441294, 0.09465974037566985, 0.09429514285577828, 0.09391651650052447, 0.09355831772990786, 0.0933159651638821, 0.09298769384891233, 0.092686110900179, 0.09241061447237706, 0.09216063533258695, 0.09202591060089793, 0.09181395940427872, 0.09147425369001524, 0.09133901757506767, 0.09122174413715801, 0.09107519055623237, 0.09100059387856287, 0.090951405656315, 0.09090787854096126, 0.09088160842122633, 0.09089179038921313, 0.09089812508344092, 0.09107993194229456, 0.09110362713040024, 0.09115443037350365, 0.0912308480207224, 0.09133151409288502, 0.09149794079743208, 0.09163804974241242, 0.09180135806723494, 0.09188677435488715, 0.09210527966790748, 0.09219999877908464, 0.09246374158153314, 0.09273335141785989, 0.09297644805966704, 0.09326448173377966, 0.09363472765228427, 0.0939262522603985, 0.09422953092046742, 0.09474395106045655, 0.09504494499103983, 0.09514017691715441, 0.09551271858477725, 0.09589113181850277, 0.09620914435300836, 0.09660836049052335, 0.09708145753906117, 0.09747740973112348, 0.09788089200385355, 0.09848165900501714, 0.09887522825136778, 0.09925747183662323, 0.0996870825566452, 0.10012858341393896, 0.10059009191830338, 0.10105012297964634, 0.10151398231156056, 0.10199060483659002, 0.10247329237700464, 0.10286605600169221, 0.10337007403837273, 0.10374860040847729, 0.10426431251252016, 0.1047710581519295, 0.10532674111607983, 0.10581084269599628, 0.10646241703669744, 0.1069177227239642, 0.10737896332713497, 0.10760231305591747, 0.10810167172516012, 0.10870799222527612, 0.10916946058662129, 0.109627172211912, 0.11011392165952874, 0.11055851563919945, 0.11094279901120646, 0.1113872767390433, 0.11182381849541016, 0.11239950334672344, 0.11280087873235332, 0.11304981792443208, 0.1134681661294174, 0.11387478128807764, 0.11435043780381575, 0.11472333135723915, 0.1150651425681997, 0.11542562368150362, 0.1157759657120903, 0.11619171436633155, 0.11651075558741966, 0.11667050749040349, 0.11699325332618825, 0.11729825208579119, 0.11764763987234084, 0.11791036333274138, 0.11803615674418474, 0.1182873830200096, 0.11851763092504725, 0.11882260824094877, 0.1190008086505881, 0.11925534877844021, 0.11939386994985327, 0.11952275410116207, 0.11944610710907907, 0.11957719411925037, 0.11975602904981135, 0.11983182651683767, 0.11988952352021508, 0.11998136605890686, 0.11999617633129388, 0.12008598442491993, 0.12005833660347655, 0.12001954792765931, 0.1199874967341522, 0.11992077010094464, 0.11977444264555309, 0.11968903822572777, 0.11958508412396718, 0.11953843505735016, 0.11938729689010646, 0.11898864298892596, 0.11883685441880965, 0.1186560136127861, 0.1185472659033318, 0.11829965104905829, 0.11801323764324631, 0.11772859478474945, 0.11742339192696957, 0.11700289004279471, 0.1166694240889228, 0.11632986422986458, 0.11594478157946524, 0.11553752559743738, 0.11524650950289787, 0.11477928302013714, 0.11436580492210391, 0.11386395837540723, 0.11335183222274234, 0.11265259968893121, 0.1121392126139344, 0.11155075962703082, 0.11099916276924614, 0.11042333048244597, 0.10988610660869234, 0.10925711459051657, 0.10877182294850143, 0.10808700607081251, 0.10739398780954067, 0.10663947864900242, 0.10593374791781923, 0.1052522702765882, 0.10451403559354204, 0.10376387725872051, 0.10292540859198851, 0.10216001384332649, 0.10129207581211803, 0.10050395344356, 0.0996949934208965, 0.09905166558430994, 0.0981810030257418, 0.09711307262464021, 0.09625144184552645, 0.0953708988796013, 0.09444886079948248, 0.0935369251853101, 0.09263650070279333, 0.09168807414440608, 0.09081189926532061, 0.08982681476481819, 0.0888346165284238, 0.08780197350915998, 0.0867995886805155, 0.08574063905467004, 0.08472649162839183, 0.08370129364710881, 0.08269902655779414, 0.08164964369269004, 0.08054560232032452, 0.07948827574967382, 0.07842181538006025, 0.07730418214543636, 0.07622698654511492, 0.07516405382896324, 0.07406581095744207, 0.07296122164521468, 0.07194117395979108, 0.07081427476739201, 0.06975434423563434, 0.06861972145460193, 0.06748892467975767, 0.06630906834080255, 0.06519079253170844, 0.06405289459554823, 0.06293591759167919, 0.06181755167072763, 0.060788424740500356, 0.059656930489255085, 0.05838765476035205, 0.05728335696936129, 0.05617522023055909, 0.05504996930115972, 0.05393882792047032, 0.05282104052045309, 0.05170762173753527, 0.0505937982815487, 0.0496419421957519, 0.04850929714048109, 0.047387615040424685, 0.04627626106706382, 0.04517471767075212, 0.04398754457125064, 0.04291649574357059, 0.041853713033800394, 0.04078969877468443, 0.0397306497083118, 0.038672327635919435, 0.03762532893949558, 0.03667953643521411, 0.03563337187804112, 0.03459968288586691, 0.0334926304343796, 0.03249383996776974, 0.031573271413725, 0.0305799452006342, 0.029598684729179765, 0.028596167297511854, 0.02764309694059612, 0.026833197262798533, 0.025883883769462053, 0.024952794355409095, 0.02391562828915125, 0.023034440706534348, 0.022295656680785744, 0.021416944674845232, 0.020556166724792848, 0.019617728274455373, 0.018803236533560825, 0.018023698275828958, 0.017229065591983676, 0.01644787823654316, 0.015666112803325343, 0.014914311158312307, 0.014242366386250295, 0.013509170078512833, 0.012793709269038639, 0.012024483656953371, 0.0113528661972725, 0.010860735753313429, 0.010194939132311178, 0.009552568566665828, 0.009051470341189565, 0.00843824878223602, 0.007691138888296441, 0.007152125468328298, 0.006628843803641061, 0.006273502683768479, 0.005762960077687326, 0.00532471098572827, 0.0048566799611404685, 0.004414168895290213, 0.003891515001056343, 0.003510033544349174, 0.0032023136350566453, 0.00284727158260691, 0.0025125055893072627, 0.0021929874835633664, 0.0018986066575778422, 0.001604578415432223, 0.0013512411768732662, 0.0011160781653496905, 0.0008944778023008077, 0.0006966878819382541, 0.0007833149465160319, 0.0005887437485847565, 0.0004278076394779964, 7.047241298435213e-05, 0.0, 0.00019703222286205824, 0.0001266395614599766, 8.713670806494148e-05, 8.172724867687695e-05, 9.897206408637552e-05, 0.00011483569714737182, 0.0001889246872251481, 0.00028666617584908923, 0.00034104688327366836, 0.000493115977733075, 0.0008206866379178192, 0.0009906263996344556, 0.001188637088991995, 0.0012046697561446293, 0.001482441696475265, 0.0019878283268514323, 0.002267254588035628, 0.002574546848775468, 0.0028756074901642777, 0.0032404459190582408, 0.003733654364284139, 0.004132710819147054, 0.004561038205620309, 0.005046158997562754, 0.005526609264343398, 0.005935607536753619, 0.006484498183634412, 0.007054583648110192, 0.007745857269738125, 0.008346359167945556, 0.008865016567081241, 0.009533621186290203, 0.010222444357947983, 0.010984218018293601, 0.011708234189781655, 0.012423437972302196, 0.013200500396694697, 0.014000057595996183, 0.014784351882743827, 0.015634447546832186, 0.016557877890048093, 0.017444010889233967, 0.018355107232805472, 0.019457451026012578, 0.02039740982281096, 0.021328879618224172, 0.02234146220554882, 0.023383429248871327, 0.02437334606708542, 0.02548240904648827, 0.02657185719164293, 0.027732870408277533, 0.028915114834395312, 0.030223689009031312, 0.03143682795391657, 0.03274513030870599, 0.03400672628464139, 0.03529992381235532, 0.036452839374530206, 0.03782848661524146, 0.03937602380791235, 0.040772997383293944, 0.042199985602634243, 0.043599448069833194, 0.04509218550109098, 0.04655813716057933, 0.048108596459404185, 0.04968191168063894, 0.05150197544971989, 0.05309444471637726, 0.05460509738630805, 0.056285164110792485, 0.05799299977423886, 0.05978081632693941, 0.06153745220081168, 0.0631821773765544, 0.06501770813183577, 0.06687516142649584, 0.06886946336377657, 0.07075893619001009, 0.07276468863926898, 0.07470460203585579, 0.0766796118117484, 0.07846555623937142, 0.080536583323325, 0.08265175763749756, 0.08476184882399235, 0.08689610543044499, 0.08920266370892982, 0.09136906937591144, 0.09360344464252196, 0.09583448917572368, 0.09797275457309086, 0.10029035282494532, 0.1026349914382576, 0.10519251270121893, 0.10756936802999216, 0.10994237751171103, 0.1124013941602286, 0.11489491911603769, 0.11741299863610247, 0.11997546743082987, 0.12248050846322651, 0.12511992534314775, 0.12778684120332043, 0.1305626759791332, 0.133276259443342, 0.13596663397785874, 0.13875488510984743, 0.14157346613296543, 0.14454153198551495, 0.14740683446234218, 0.15022463330138872, 0.1531761276229019, 0.15615960820433486, 0.15917052531957934, 0.16221917431358657, 0.16527160947002417, 0.16838866155996154, 0.1715368115855913, 0.17485425878397434, 0.17804836531692844, 0.18107809279893858, 0.18437707698153682, 0.1877029932716543, 0.19118990009164077, 0.19455579467443193, 0.19801580776805194, 0.2014483134299527, 0.20492039591740774, 0.20832200959383998, 0.2118848626239012, 0.21556465303676223, 0.2191798714653851, 0.222831965955387, 0.22639697896406485, 0.23013722793668126, 0.2339110389236602, 0.2377089996688256, 0.24153732672900627, 0.2455152792463418, 0.2493906681649683, 0.2532662858493055, 0.2572222776326904, 0.2612130716700884, 0.26520514749882457, 0.2692689804709078, 0.2733840035899218, 0.2775098358958759, 0.2816689580030479, 0.2859324673769779, 0.2901486310493198, 0.2944110489212032, 0.2986987494719996, 0.30302227046395847, 0.30727161019363997, 0.3116784911533116, 0.31611782425075435, 0.32057982222359294, 0.3250703506846955, 0.329551542406759, 0.3341043148344071, 0.33870751188634607, 0.3433109108504984, 0.34794281863183285, 0.35256041865995286, 0.3572545433143229, 0.36213602906248976, 0.3668615171563434, 0.37162213219047324, 0.3763358149440964, 0.38117313680128456, 0.38611824826880203, 0.3909990111842122, 0.3959105561911414, 0.4006855331576249, 0.40567658449628613, 0.4106718742495554, 0.41570217925370484, 0.4207509889344522, 0.4259944560878224, 0.43105898462457154, 0.4360955860966495, 0.44122412746062994, 0.44637589566380076, 0.4514646156952927, 0.4566714159217179, 0.4620132181089843, 0.4672374049278481, 0.4724843412867074, 0.47772913853838483, 0.4830212362169182, 0.4883410119072568, 0.4936674599860177, 0.49901103256873675, 0.5043471212339857, 0.5097254103001728, 0.5150932298585362, 0.5205004820913104, 0.525918443119521, 0.531375168669824, 0.5368095471342715, 0.5422595178281457, 0.547714190473811, 0.5531783952754741, 0.5585135115685219, 0.5640117140636803, 0.5696802784487974, 0.5751557533544626, 0.5806405549065462, 0.5859907780993768, 0.5915082231234032, 0.5970040619866464, 0.6025186408634621, 0.6080293129543193, 0.6136927622516395, 0.619175354390604, 0.6245244092752548, 0.6300312748519932, 0.6355314288015963, 0.6411432592816064, 0.6466137074825675, 0.6518736469424831, 0.6573660857154656, 0.6628423106648905, 0.6682693152622419, 0.6737179214519299, 0.6792627869852533, 0.6846615218602031, 0.6900489262909799, 0.6954619112831313, 0.7008185434020029, 0.7060391286029224, 0.7113849444103232, 0.716708522906772, 0.7219429928133616, 0.7272293608411672, 0.7325597091232926, 0.7377824199931768, 0.7429815805027209, 0.7481040395977469, 0.7532600174083847, 0.7583439958939643, 0.7634463541065598, 0.7685158962559414, 0.7737565860538399, 0.7787335242548693, 0.7835547482450449, 0.7885009067567972, 0.7934125577000612, 0.7984170687813243, 0.8032407056977944, 0.8080247223125134, 0.812787332494722, 0.8175154254351484, 0.8222025631170641, 0.8268572540138404, 0.8314913738124107, 0.8360631122997547, 0.8405936147613252, 0.8448201307597931, 0.849297007281612, 0.8539134851499564, 0.8582460922294793, 0.8625314921419865, 0.8665927669744619, 0.8708026659429228, 0.8749902510938978, 0.8790750823805371, 0.8831023502248381, 0.8871051156655714, 0.8910123739494491, 0.8948013372925614, 0.89860267074573, 0.9023426263227536, 0.9060827478684026, 0.9096913890271142, 0.9132697373434266, 0.9167562523429574, 0.9201837406643961, 0.9235748380453074, 0.926877949096154, 0.9300488612550593, 0.9332379419103959, 0.9363597846993527, 0.9394661624778446, 0.9424454273028263, 0.9452543342096399, 0.9481142115841524, 0.9509005408265612, 0.9535942953509042, 0.9562358054416857, 0.9587786997295294, 0.9612734622414175, 0.9636919052936991, 0.9660768374645874, 0.9683373048472732, 0.9704810339897092, 0.972598483106523, 0.9745530834179659, 0.9765265716126731, 0.9784176435229618, 0.9804120952931031, 0.9821162686994923, 0.9837638375204169, 0.9853232041008265, 0.9868100514438534, 0.9881424234326556, 0.9894910117201055, 0.990697563698938, 0.9918932081145848, 0.9930046923218349, 0.994022813236988, 0.9949680286630437, 0.9960383721983026, 0.9967895377187904, 0.9974689673551131, 0.9979611300209612, 0.9985071977517105, 0.9988143764957923, 0.9992160088234081, 0.9995266250581352, 0.9998852541563942, 1.0, 0.9999065120735066, 0.9998773684853312, 0.9997606894571571, 0.9997664417616879, 0.9994508885268315, 0.9990429996062574, 0.9985821930376855, 0.998045151602963, 0.9974835940658513, 0.9967859468025191, 0.9957903699373081, 0.9949710761396532, 0.9940634650561356, 0.9930831978708005, 0.9920012648439875, 0.9908784918743668, 0.9896249555043657, 0.9882921745897253, 0.9869994888442354, 0.9854948620667561, 0.9839335736521049, 0.9822849164328463, 0.9805654746605763, 0.9785801678023655, 0.9767430885569314, 0.9749901196068799, 0.9729692567896132, 0.9708786777451487, 0.9687659881308253, 0.966530329504501, 0.9641188640435737, 0.9617639212676414, 0.9593363298579405, 0.9568703941494174, 0.9542964200714759, 0.9516024935545732, 0.9489004970144813, 0.9461293922026761, 0.9432476294374306, 0.9403473244307763, 0.937274534278016, 0.9342530160656854, 0.9311605715641397, 0.9280326611462137, 0.9248006069694514, 0.9215389107290854, 0.9181783678623339, 0.9147597551249169, 0.9112936867700411, 0.9077610424333729, 0.9043214203805957, 0.9006625847511649, 0.8969596919311559, 0.8929654574002989, 0.8892052041292521, 0.8855293680977263, 0.8816370242138077, 0.8776987861798182, 0.8737819580943113, 0.8697459104278501, 0.865499110304853, 0.8614056376364588, 0.8572636614507103, 0.8531321072071169, 0.8488915492709994, 0.8445541319486866, 0.8402423017756184, 0.8358898276113577, 0.8315648749903752, 0.8271275770759913, 0.8227769104453895, 0.8182612299203907, 0.8137219736056953, 0.8090356394414462, 0.804465093712532, 0.8000165913944441, 0.7953682245005094, 0.7907011821405152, 0.7858920743679428, 0.7812038759040074, 0.7763483579272367, 0.7716301318576314, 0.766882110482891, 0.7622351799151067, 0.7574189758845248, 0.7526540083093372, 0.7477999417631541, 0.7429365590853555, 0.7378981492395154, 0.7330389946004504, 0.7282724375944286, 0.7233682063845178, 0.7184575274075666, 0.7134321267323871, 0.7085254067724944, 0.7038372325266383, 0.6988845497024906, 0.6939388777535975, 0.6887340278935917, 0.6838358331315869, 0.6791008507561983, 0.6741677657980298, 0.669241106673954, 0.6643216008974405, 0.6594100114107186, 0.654416855170291, 0.649534920342807, 0.6446582919505314, 0.6398645797483161, 0.634993639434811, 0.6299895226188296, 0.6251662094606019, 0.6203503022230176, 0.6154915182149537, 0.6107028428344744, 0.6061285009238252, 0.6013360663748906, 0.5965690206885264, 0.591741927034878, 0.5870368135273859, 0.582233986651179, 0.5775870127961971, 0.5729563648979952, 0.5683914236509444, 0.5637928714747065, 0.5593040050271979, 0.5547440381416608, 0.5502151234301966, 0.5456890198769941, 0.5412266476445833, 0.5369229082475676, 0.532505585021985, 0.5281269589438344, 0.5236250159939192, 0.5193429311968232, 0.5150514129484, 0.5108324419949118, 0.5066421416256766, 0.5026671237941791, 0.49851455111886034, 0.49436190086529347, 0.4902996332539842, 0.48627681035553844, 0.4823362620755863, 0.47838716232838063, 0.4743614344644512, 0.4705114910555753, 0.46669675000172817, 0.46307490801949275, 0.45931337824732726, 0.4555603372472857, 0.45189605969820007, 0.4482751408339943, 0.4445407230921485, 0.44102620199765386, 0.43757467438234743, 0.4341268147502164, 0.43071749654578434, 0.4274473059611073, 0.4241047880294621, 0.42055675282734467, 0.4173384520689101, 0.4141518792324992, 0.4110843988494022, 0.4079557542098108, 0.4047972095051487, 0.40176083504447146, 0.39876277515869774, 0.39590847816149555, 0.39297643656728803, 0.38998162043814516, 0.3871560895336363, 0.38437028300223036, 0.3816865143341221, 0.3789738680908523, 0.37631521947906743, 0.37369009900673683, 0.37124725015794796, 0.36869328757350867, 0.36619076696910935, 0.3637096746470182, 0.361309257355346, 0.35878824542892324, 0.3564993408703688, 0.3542450270213488, 0.3520876088690117, 0.34989616185241446, 0.3478200705654297, 0.3456974033920166, 0.34361776200670197, 0.3415326984050798, 0.3395423683994491, 0.3375327347015539, 0.3356246321373664, 0.33375021631608326, 0.3318857593498885, 0.3300817406945677, 0.3283194685045298, 0.3265787689657654, 0.3248708370020752, 0.3231954840851218, 0.3215524678477803, 0.31996050247294877, 0.318378837488077, 0.31682957133817596, 0.31534064595721867, 0.3138508588519442, 0.3123458145367266, 0.3109257131033535, 0.3095335478399172, 0.30822591454077425, 0.3068811156908446, 0.3055708437110762, 0.30428402454408, 0.3030253387204937, 0.30177483317391995, 0.3005720056828446, 0.2994124978890317, 0.2982551845551239, 0.2971218335461007, 0.29609236183704357, 0.2949941735393071, 0.29379843647586756, 0.29276639627148887, 0.29175061204170505, 0.29083158561566774