0.05075456458291522, 0.05028711291833169, 0.04980137979775613, 0.04932663479270137, 0.04886780517855318, 0.0484096311778499, 0.04794992652175809, 0.047506098058594515, 0.047066930954656264, 0.046657798291862916, 0.04622261687747928, 0.04573086525998428, 0.04531139013851045, 0.04489169283477086, 0.044478378187137346, 0.04405768191645489, 0.04360700387961738, 0.043191163838329695, 0.04277427396948488, 0.04239801632056962, 0.041974896293757426, 0.04153018529471981, 0.041114727988241555, 0.040700250710251566, 0.040352205878880026, 0.0399321045396197, 0.039471634147045215, 0.03906756810724526, 0.03866564714071047, 0.03830951272294265, 0.037906849474067666, 0.037476622148509955, 0.037087986991198404, 0.03670221958851906, 0.03633685728264549, 0.03595505432602135, 0.03555577910419476, 0.035185267014743296, 0.03481782089062232, 0.0344601669782602, 0.034098627744450945, 0.033701962613302446, 0.03335351661810857, 0.03300712627124646, 0.032665396878246426, 0.032324094226671485, 0.03197309511035497, 0.031640440224939656, 0.03131097255151341, 0.03096329806938746, 0.030643964472242175, 0.030386245038477713, 0.030065729118594526, 0.029752217342809792, 0.02941730588711467, 0.029120983161605975, 0.028844944368026766, 0.028556970687360784, 0.02827519478971044, 0.028001792166540022, 0.027732146670128324, 0.02752320082420117, 0.027259368461632367, 0.027004941197925004, 0.02669861960271947, 0.02646950532331983, 0.02626052201102943, 0.026039543239250264, 0.02582479103838435, 0.025579389463756045, 0.025382028693979437, 0.025226053406794766, 0.025033255628550133, 0.02484770399872527, 0.02462159261764167, 0.02445667658554829, 0.02435513987653308, 0.02419258378262271, 0.024038827574723226, 0.023793739401500803, 0.02366991290468391, 0.023609884715204855, 0.023484953429007534, 0.02336779006726852, 0.02330416834462608, 0.023197101844404183, 0.023061552319530783, 0.02298047536901567, 0.02290736246081324, 0.02283364284976416, 0.022777932409936568, 0.022703971750358896, 0.022667426360100648, 0.022637611774550013, 0.022606199491481443, 0.022592015818266475, 0.022593772037394905, 0.022593312980808758, 0.022601226843118865, 0.022628586198281824, 0.022652454015508573, 0.022707592008749507, 0.0227478235050625, 0.02279891591687465, 0.02289553519978772, 0.022963600870597237, 0.0230224232050025, 0.02311788699092194, 0.023223978025000664, 0.023257989425462776, 0.02339554982640135, 0.023591084964294372, 0.023734257491774324, 0.023887334359899096, 0.02406995792079598, 0.024240583991545096, 0.02437458099114799, 0.024573565964133647, 0.024780885066579286, 0.025044683965774816, 0.025263519388507145, 0.025459411176739635, 0.02570616248137517, 0.025962480090544283, 0.026228508377138547, 0.02650437298689853, 0.02679887961843916, 0.027093626828669722, 0.02739897782846169, 0.027682312908215337, 0.028012976283784234, 0.028352386761436046, 0.028700790413826397, 0.029058397223481594, 0.02942103566349124, 0.029798099936529727, 0.03023892527414725, 0.03062805374526283, 0.03102987049243873, 0.031387486419332505, 0.03182078867857704, 0.032269152046745665, 0.03271889066893373, 0.03317786992905542, 0.03365268180391455, 0.03412950379430941, 0.03461825296201524, 0.0351142649399254, 0.03562006077515649, 0.036187747730485394, 0.0367062793385109, 0.03714813204959674, 0.037702359493703555, 0.03826307643920019, 0.03888493559762389, 0.0394525928225183, 0.03998269249767175, 0.04057667132349207, 0.0411776966806554, 0.04179025065112197, 0.04240518441980329, 0.043047275499213423, 0.04367491427460193, 0.04431122211053224, 0.04496035043375011, 0.04561285632869712, 0.04624977011931859, 0.04692172175586371, 0.04760020345273217, 0.048296059182170066, 0.04898612348962691, 0.049652745992338744, 0.05036048551133267, 0.051073169185060246, 0.05180390771308083, 0.052524990185653465, 0.05325619165501689, 0.05398813071095936, 0.054745371605436875, 0.055486109096662295, 0.0562332849848442, 0.05700610594727869, 0.057762612770829946, 0.05855170435277715, 0.05931741904690143, 0.06009016304398898, 0.0608279932916283, 0.06161817622458456, 0.06243306581917339, 0.06322626401515094, 0.06402331567589546, 0.06483039649625455, 0.06563330555023664, 0.06639160621180164, 0.06720666099703955, 0.06802156466889947, 0.06888638839481741, 0.06969481866889925, 0.07043206393016922, 0.07125488955143704, 0.07207546142588785, 0.07290050550470889, 0.07371629854115086, 0.07453499959035526, 0.07534735980647027, 0.07615848464846724, 0.0769530499709426, 0.07776329189136807, 0.07854931762118704, 0.07935731367088648, 0.08016148529808437, 0.08106191335190872, 0.08184592961999596, 0.0825578560593164, 0.08335402107964265, 0.08414619545932993, 0.08492335409729676, 0.0857084408857732, 0.0865014535866373, 0.08727453044230891, 0.08804295328516175, 0.08876513723611117, 0.08952864935099131, 0.09038871674655559, 0.09112345106585916, 0.09185626856609938, 0.0925145342512638, 0.09325001008359209, 0.09397274347934834, 0.09469186166260503, 0.09540208166836209, 0.09610545382030566, 0.09679720977718707, 0.09751889507157667, 0.09818708903061647, 0.09884786492815707, 0.09949416549417776, 0.10013935689757357, 0.10074698229128232, 0.1013767479519062, 0.10199484428707128, 0.10262287323380638, 0.10321444393974401, 0.10377988049200026, 0.10435119339858233, 0.10491004152250977, 0.1055105736653744, 0.10603698787992553, 0.10647942133386139, 0.10699441641428328, 0.10749394436432776, 0.10801717750121177, 0.1084808958711024, 0.1089596239232899, 0.10939289250583843, 0.10981378195982973, 0.11024782711424547, 0.11063903205846529, 0.11103734679905494, 0.11140051244312636, 0.11175108247501714, 0.1120731456106239, 0.11239844393536044, 0.11272363826629203, 0.11301598177063504, 0.11329312672113645, 0.11356550807896937, 0.11380961589225329, 0.11401621099211413, 0.1142311250119291, 0.11442828499465238, 0.11464015887765693, 0.11479726044025156, 0.1149880465653813, 0.11510580402706974, 0.11520934233033359, 0.115291446048563, 0.11536537814313348, 0.11544898564578142, 0.11548637691692569, 0.11550805368727123, 0.11560917323314458, 0.11558585957725301, 0.11555956936899375, 0.1155107225937429, 0.11544866662188073, 0.11543993136593299, 0.11534044297590232, 0.11523145668009036, 0.11510728409520696, 0.11496959279173527, 0.1148697899721179, 0.11469626689432863, 0.11446672187718093, 0.11427278651449228, 0.11406234310290557, 0.11386127107950961, 0.11361394928343634, 0.11337725070881882, 0.11309546694380183, 0.11279930353226417, 0.1125276068209422, 0.11219694817209269, 0.11192523407368563, 0.11155951351244989, 0.11118436307639606, 0.11077292869658739, 0.11038008117449302, 0.1100571127857102, 0.10962818339497281, 0.10919093661808667, 0.10873602005234231, 0.10828141950340393, 0.1078512619662137, 0.10737138117319844, 0.10688282328037102, 0.10639182295094742, 0.10588433150996696, 0.10544408370687244, 0.10490921107166906, 0.10436974674581331, 0.10382519322531095, 0.10327519507853432, 0.10274344129609288, 0.10217895794336551, 0.10161001463834475, 0.10101692588183285, 0.10044129003041201, 0.09993614511100063, 0.09933998480611601, 0.09874317305665907, 0.09814768911387275, 0.0975488308637303, 0.0969187544743387, 0.0963222895331749, 0.09572362277455664, 0.0951515236771846, 0.09454642537933208, 0.0939249295164854, 0.09332439353655157, 0.09272466750475242, 0.09216984236225652, 0.09156807437677514, 0.09091707669929527, 0.09033275013148949, 0.08975118282159897, 0.08926455276027657, 0.08867951949425341, 0.08806142841183677, 0.08750284666255544, 0.08695252844507986, 0.08642629684142226, 0.08589241315547355, 0.085404311529064, 0.08488855753292886, 0.0843868642807786, 0.0839191217146254, 0.08344409849222047, 0.08288535102842683, 0.08245588508458417, 0.08203780769998265, 0.0816541050148083, 0.08125973361316467, 0.08090111985585617, 0.08053757942808633, 0.08019316362794912, 0.07991209541374547, 0.07960264575501791, 0.07935394885313662, 0.07908780488046072, 0.07884837201843016, 0.07856408975752444, 0.07838780061447292, 0.0782784720335096, 0.07814460213876925, 0.07803856637033497, 0.07796747135593433, 0.07791805734939813, 0.07788345262332022, 0.07789662495101465, 0.07795542329472337, 0.07802825412253649, 0.0781338906197208, 0.07830777595860226, 0.07847660409542744, 0.07861479561388969, 0.07886609590073003, 0.07915125581394089, 0.07948001229041259, 0.07983487710189145, 0.08025102684276181, 0.08067847714808433, 0.08114636692314808, 0.08162055149063739, 0.08217565746426893, 0.0828299054483699, 0.08345939657355989, 0.08413445772677264, 0.08484679165749787, 0.08561532158366815, 0.08644978550801072, 0.08730911722323512, 0.08821701298983307, 0.08913039138563904, 0.09014215216363466, 0.09120566839825132, 0.09231250871869269, 0.09346860135786217, 0.0946681453562754, 0.09592570985950831, 0.09721686226887465, 0.09857929643999933, 0.09999311941115693, 0.10146999206023175, 0.10298754215589934, 0.1046093392869838, 0.1062296202894656, 0.10790807636200368, 0.1095948241168273, 0.11139635636977653, 0.11327545067754181, 0.1151864646817679, 0.11715566829180754, 0.11917688726086495, 0.12126433001979901, 0.12341060899653335, 0.12561609039055488, 0.12788112079025848, 0.13017341243285102, 0.13256262537444397, 0.1350104779876333, 0.13751749948427205, 0.14008416641809723, 0.14270873145007199, 0.14539619832063488, 0.14820303829755224, 0.1510047280828207, 0.15387096210816598, 0.1568058487147802, 0.15979992204047389, 0.16281681145785876, 0.16594414178871097, 0.16913285181067486, 0.17238307737628764, 0.17569492118125055, 0.1790423620138404, 0.18248092145786904, 0.1859797531883348, 0.1895781834830565, 0.19319312255464155, 0.19687310939979702, 0.20061323949285692, 0.20441579623563513, 0.20823480554796053, 0.21216704064136344, 0.21614730387511197, 0.22019873986641256, 0.22430846238991053, 0.22852431017976124, 0.23274450831459537, 0.2370494274509094, 0.2413876566891889, 0.24578692552371884, 0.250152988189408, 0.2546839243716738, 0.2592771496873566, 0.263914214435733, 0.26860536249180317, 0.2733612750214771, 0.27815857901672786, 0.2829989432799446, 0.28790502569022314, 0.29286346826370546, 0.29785642254893213, 0.3029203745139459, 0.3080798671644653, 0.3132373563098932, 0.31844633122154753, 0.3236275897562373, 0.32894664817711944, 0.33441002392518904, 0.339804722115996, 0.34524862343854584, 0.35073392673909204, 0.3562732528925191, 0.36181852532657444, 0.3674518155574535, 0.3731256998098225, 0.37880022200014757, 0.3845577540098316, 0.3903533043665542, 0.3961816507844007, 0.4020446981557997, 0.4079482231501949, 0.413877553437992, 0.4197808432875796, 0.42578197489037234, 0.4318105335960301, 0.43785509364254893, 0.44393812716406994, 0.45005692054381236, 0.4561876385154988, 0.46234233956965315, 0.46852223998706016, 0.4747217028336625, 0.4808617860308761, 0.4871124329423178, 0.49337734020527324, 0.49969291446115766, 0.5059798860991859, 0.5122507544350535, 0.5185690881656941, 0.5248976829370111, 0.5311963975975909, 0.5375473847245923, 0.5438967073011716, 0.5502573646295792, 0.556620684152091, 0.5629748095041796, 0.5693417969095759, 0.5757228804994488, 0.582084592377142, 0.588443763471537, 0.5948251381422122, 0.6011718514174087, 0.6075068222921354, 0.6138422723571044, 0.6201688425137146, 0.6264697242687092, 0.6327756929260462, 0.6390345458211458, 0.6453141702733874, 0.6515745189343343, 0.6578013189015278, 0.6640210433647543, 0.6701821719367618, 0.6763574507459564, 0.68250446928401, 0.6885917612862611, 0.6946829652198123, 0.700745283800629, 0.706768515849132, 0.712756775499794, 0.718693713871821, 0.7246105140355513, 0.7304705551281043, 0.736309680511624, 0.7421061263534174, 0.7478653194638328, 0.7535722399578192, 0.7593073332445257, 0.7649121132936249, 0.7704726909583873, 0.7759371306025121, 0.7814099045200907, 0.7868344080998722, 0.7922000333708649, 0.7975105610630184, 0.8027863391426178, 0.8079797453211475, 0.813069454329262, 0.8181510193778713, 0.8231689371674132, 0.8281677611729069, 0.8330492768821324, 0.8377945982618942, 0.8425547983117179, 0.8472435641082325, 0.8518709224314055, 0.8564128779769463, 0.8608726847987315, 0.8652678224823993, 0.8695869848080502, 0.8738879235420657, 0.8780448399046591, 0.8820870515494383, 0.8860963398949212, 0.8900250400127919, 0.8938286545668382, 0.8975986579801535, 0.9012826451561172, 0.9048800028050549, 0.9083900926570635, 0.9118057337543388, 0.9151401237145658, 0.9183739937053526, 0.9215298237751098, 0.9245941107620225, 0.9275662898897955, 0.9304457840238836, 0.9331906961698819, 0.9358882843656848, 0.9385130229137891, 0.9410137987943935, 0.9434186067187335, 0.9456899740766372, 0.9479059935664464, 0.9500463693741713, 0.952060046272697, 0.9539750861730558, 0.9558323676888882, 0.957543620818186, 0.9590920603147901, 0.9606156660527421, 0.962036633428959, 0.9634244546575771, 0.9646310813777137, 0.9657495649806924, 0.9667561278889711, 0.9676630391756118, 0.9683957670887284, 0.9691109834741531, 0.9697099388574961, 0.9702159587103448, 0.9706163864518516, 0.9709702114447976, 0.9711528701898623, 0.971177519548643, 0.9711641619228322, 0.9710457946874714, 0.9708053844548692, 0.9704802787501858, 0.9700263508874957, 0.9694949647008891, 0.968858331232597, 0.9681823609274331, 0.9673290032009765, 0.9663521136868026, 0.9653026479836552, 0.9641524744023133, 0.9629454768857836, 0.9615896103825939, 0.9601345797036347, 0.9585851420282043, 0.9569389325569566, 0.955146234871545, 0.9533137457578782, 0.951400136004655, 0.9493692908358204, 0.9472426575377761, 0.9450601172721749, 0.9427392155802045, 0.940270497665863, 0.9377746811831232, 0.9351854839746636, 0.9325279088500562, 0.9297521831252301, 0.926822450267927, 0.9238783176860789, 0.9208435794061094, 0.9177697297093014, 0.9145518761467076, 0.9112592728773803, 0.9078744165593524, 0.9044086121188791, 0.9008215261534153, 0.8972020206922073, 0.8935631725557516, 0.8897769384315881, 0.885916720160788, 0.8819268971111114, 0.8779286495027248, 0.8738387517974215, 0.8696957175363749, 0.8654804917535499, 0.8611773269072828, 0.8568248350554908, 0.8523953531731198, 0.847909103057895, 0.8433574966006695, 0.8387618429762365, 0.8340822396702128, 0.8293956940929378, 0.824592744481439, 0.8197366046803166, 0.814800095268487, 0.8098444641162545, 0.8047765973223284, 0.7997274210685974, 0.7946264227159873, 0.7895103773104566, 0.7843072474664453, 0.7790252816016423, 0.7737400369074307, 0.768411955848211, 0.7629972421242974, 0.7575948217910436, 0.7521981622333991, 0.746712313934683, 0.7411933498182257, 0.7356168268726592, 0.7300398670927299, 0.72446803630993, 0.7188291930656041, 0.7131662809286167, 0.7074894929980747, 0.7017818406191079, 0.6960159855310337, 0.6902766037391342, 0.6845188809611763, 0.678701127775427, 0.6729175848238705, 0.6671751045840706, 0.6613555476028358, 0.6555277746947057, 0.6496606667944144, 0.6438250756208559, 0.6380426399302483, 0.6321902893213761, 0.6263391810021949, 0.6204753272633853, 0.6146323567442263, 0.6087631217628341, 0.6029337892809523, 0.597109804391683, 0.5912406741005387, 0.585439024642715, 0.5796469540046317, 0.5738618650760143, 0.5680882778104284, 0.5623758865655474, 0.5566247691718473, 0.5508171285105432, 0.5451160848214995, 0.5394329372121738, 0.5338565577932215, 0.5282038233505403, 0.522516271717876, 0.5169289595487807, 0.5113683170562956, 0.5058423889246828, 0.5003387784317157, 0.49485140797256644, 0.489413976123193, 0.4840097842021189, 0.4786924057706285, 0.4733522200835133, 0.46800222855147017, 0.46274961230180806, 0.4575360852370827, 0.45239987480401483, 0.447263601896755, 0.442133019933937, 0.43709219573148256, 0.43209568900636963, 0.42710334137906536, 0.42220410905018224, 0.4173828194393506, 0.4125714772948603, 0.40780992868075966, 0.4031339028119972, 0.3984703260633094, 0.39382424206541766, 0.3892748033304604, 0.3847788519405438, 0.3803350624169376, 0.37594886639225616, 0.37161193850523955, 0.36733889767471317, 0.36312273951153423, 0.3589837569555397, 0.3548810194344568, 0.35082308802385315, 0.3468427704640763, 0.34292249220224086, 0.3390475601039151, 0.33525083062057914, 0.3315125879714364, 0.3278380016523016, 0.3242249982856227, 0.3207197078805649, 0.3172254598269988, 0.3137227034695136, 0.3103686093534219, 0.30707573029799007, 0.3038794267517158, 0.3007062193561769, 0.29763246477854566, 0.2945842696251518, 0.2916028308676869, 0.28858570731481537, 0.2857499651514255, 0.2830180075072616, 0.28029795341446617, 0.277641715706581, 0.2750341181842448, 0.27250752545200496, 0.27005694255187584, 0.2676546686115506, 0.26537047606028663, 0.26308860909653675, 0.26087314775484327, 0.25864514640356034, 0.25657040476212395, 0.25457312370163265, 0.25261633055779814, 0.2507205445372723, 0.24886159566657343, 0.2470900496933219, 0.24539251148486596, 0.24373644053738627, 0.2421396013790207, 0.24054070225222626, 0.23906875521864082, 0.23770129370620496, 0.2363319530985407, 0.23501975785328655, 0.23376410833833677, 0.23256437831293908, 0.23140469624481658, 0.23031675174131375, 0.22928184843232602, 0.2282515547883129, 0.22732695619441715, 0.22647256272239571, 0.22564182708362368, 0.2248600733658609, 0.22420059526917527, 0.22350551815390005, 0.22279414824741886, 0.2222084732685475, 0.22166748432239056, 0.22119437763232136, 0.22073753911845037, 0.22032446612940537, 0.21995415147660516, 0.21962558568733906, 0.2193225367194747, 0.21907635492578287, 0.21882671262160644, 0.21866055938805895, 0.21852812581697603, 0.21848316945346105, 0.21840944549459787, 0.21840531687813192, 0.21839561720667425, 0.21842030976791071, 0.2184301154880762, 0.21852535354684072, 0.2186111359442246, 0.21876512724637442, 0.2189426666254532, 0.2191648319816516, 0.21938467456298957, 0.21966411343243897, 0.21992357839119822, 0.22020579780716365, 0.2204725174376064, 0.22080107379569272, 0.22111825131061677, 0.22148323797412126, 0.2218616742370759, 0.22231372142974934, 0.22270916192340973, 0.22310180279956862, 0.2235273190859831, 0.22396386168993085, 0.22442336906121768, 0.2248770050790072, 0.22534998620702665, 0.22581801957026476, 0.22629281136367027, 0.22668182677923532, 0.22717807344694738, 0.22770284921679868, 0.22819103737439345, 0.2286781840919536, 0.22920267424849522, 0.2296805120220671, 0.23016806307164062, 0.23064109373682345, 0.23111137312096786, 0.2315473139886243, 0.23201253623299736, 0.23242865605496976, 0.23288272398139512, 0.2333250906618085, 0.23381182704746156, 0.23422222286968292, 0.23463564614352211, 0.23502334398491137, 0.23539976614736097, 0.235744293826496, 0.23609753313200466, 0.23638102116971374, 0.2367095790725032, 0.2370181761665224, 0.23737609570866733, 0.23763505384879882, 0.23787696912135536, 0.23810089519135189, 0.23830593404659436, 0.2383912149905613, 0.23856861105462035, 0.23876256211573363, 0.23888067119516174, 0.23897437402950947, 0.2390584971375717, 0.23910027805088305, 0.23914775669500052, 0.23913568315056827, 0.23909955290800108, 0.23896253729462696, 0.23888578160411675, 0.23878953205275846, 0.23865069535697203, 0.23848211834017305, 0.23830324454723495, 0.2380723242802606, 0.23779060855774872, 0.2375040221746111, 0.2371865583215241, 0.23688812358799205, 0.23650227025899662, 0.2360793322130911, 0.2356372953077228, 0.23516541965037321, 0.23468076529138607, 0.23414604881099318, 0.23354244506573166, 0.2329528162536392, 0.2323305702831567, 0.23164314610792364, 0.23095995698054533, 0.2303142545203572, 0.22955380147905124, 0.2287637660492316, 0.22785472329371836, 0.22701601637833038, 0.22614422943787002, 0.22523533579017918, 0.22429246072782297, 0.22338133315604025, 0.22236371731671664, 0.22123892097041362, 0.22017329172279657, 0.21907421301411134, 0.21797274787878324, 0.21680475399196436, 0.21564809754305128, 0.2144152180046123, 0.2131552648758603, 0.21179645961274016, 0.21049140427416932, 0.20917054158905743, 0.20780220247666242, 0.2064050519783422, 0.20500352636806798, 0.20354727962032892, 0.2020520584574009, 0.2005459184656618, 0.19901376976307758, 0.1974973891145259, 0.19590940289361666, 0.1942621841233498, 0.19263449270173294, 0.1909828279494841, 0.18929904712911458, 0.18760220524635376, 0.18584127279742904, 0.18410474076302463, 0.1823443971688801, 0.1805568659636851, 0.17875232508956598, 0.1769287002123772, 0.17508226384906844, 0.17321645008660147, 0.17134512090559892, 0.1694413277712762, 0.16755388516130404, 0.16561409006162298, 0.16366115925401334, 0.1617302667116359, 0.15974785348833948, 0.15773811282344413, 0.15573822890125336, 0.15372788792989311, 0.15174232976630248, 0.14970806133194217, 0.14766021272617957, 0.14561291475509436, 0.1435587727292923, 0.14140906426299504, 0.13935381921573092, 0.13734030101947364, 0.13525879481745248, 0.13317220013373998, 0.13106818601521653, 0.12897521014665503, 0.12690465415177202, 0.12480185820714162, 0.12269848661504347, 0.1206081723008989, 0.11850377528254678, 0.11632523546650095, 0.11423489491517225, 0.11219113435068227, 0.11009340574021866, 0.1079993861693441, 0.10593583739892067, 0.10384794430838806, 0.10175200577577413, 0.09968083717966471, 0.09761691228669338, 0.09557606503940443, 0.09352654552413751, 0.09139999474407769, 0.08938184496842537, 0.08736974985153675, 0.08539318838528416, 0.08339318899389182, 0.08144120346832162, 0.07945940078396593, 0.07749222887038865, 0.07554662020183864, 0.07360912261852844, 0.07163569195331947, 0.06973767143321681, 0.06785373972486379, 0.06609777736523029, 0.06423013172382228, 0.06232870488951805, 0.060513490229998725, 0.05871749332454404, 0.056967186468109846, 0.055207471859654404, 0.05345219695140951, 0.0517385279922934, 0.05004609828277475, 0.048410061392311486, 0.046756806094046546, 0.04509522215365489, 0.04349474500272415, 0.04191691928655291, 0.04042955061973152, 0.03888970140061509, 0.03738398460536443, 0.035898358071253474, 0.03444041960899729, 0.032975260468728826, 0.03157678596330443, 0.03020600118259885, 0.028858568962737384, 0.027537342728716368, 0.026268673148736234, 0.024997331830943704, 0.023758770035307113, 0.022543771001488435, 0.02135752479405728, 0.020287030327593183, 0.019147388067742067, 0.018069768014734356, 0.016993428583066832, 0.015951253915118632, 0.014988218083158039, 0.01400664172737976, 0.013070897071821729, 0.012157082793122229, 0.011277386130238407, 0.010398537251664897, 0.0095893337019328, 0.00885857364820613, 0.008104410089955416, 0.0073833151637127895, 0.006757892097906122, 0.006093677219806531, 0.00544099929419331, 0.004849942891129222, 0.004291557644379994, 0.0038567849029504885, 0.0033511157773950064, 0.002873575840682468, 0.002441698812789794, 0.002044366737988658, 0.0017135436940933753, 0.0013793163263069548, 0.0011232580050393398, 0.0008522228147277557, 0.0006170521148086015, 0.00045820471228829685, 0.00028709339400938467, 0.0001693256602495496, 6.702746935934307e-05, 0.0, 4.1364105714526446e-05, 3.322161331438051e-05, 7.761163715191696e-05, 0.00014105431809343887, 0.0002405788002639396, 0.0004230566631541849, 0.0005859355657366824, 0.0007154836340969523, 0.0009586470758981153, 0.0012322730679631354, 0.0015448631488135574, 0.0018777614398956131, 0.0022824307170850287, 0.0026708419241561845, 0.003091692747868478, 0.003596699367141055, 0.004074487381600273, 0.0045668381440525365, 0.005114626833721638, 0.005694063923911729, 0.006404754507291196, 0.007033651836768324, 0.007620436225457529, 0.008330465055580345, 0.009070213908071579, 0.009826422443170873, 0.010626641942284546, 0.011529201899804192, 0.012376854274597972, 0.013256974256513995, 0.014121084579046752, 0.015070331907961775, 0.016084604145562734, 0.017085233674122475, 0.01811586573440912, 0.01918483475610175, 0.020273319911929388, 0.021467412219681452, 0.022604951438544307, 0.023775628223943433, 0.024902456512370476, 0.026146476514288114, 0.027434396706455165, 0.02872922981527636, 0.030051543857137562, 0.031442505563923494, 0.03281413640797845, 0.034267354252658484, 0.03569075360777671, 0.03714565439032373, 0.038605200856655676, 0.04012420418906423, 0.04165165284469476, 0.04322885550023922, 0.04483240894346229, 0.04651660301032708, 0.04816579482552029, 0.049763773205011054, 0.0514811389624747, 0.05322234866819618, 0.05506162465610071, 0.05684203309025746, 0.05857078627194117, 0.060418575283092246, 0.0622899353664694, 0.06425263435944402, 0.06616366844076926, 0.06811173455719201, 0.07007805656741493, 0.0720726766983453, 0.07402356559508153, 0.07608306350801264, 0.0781878628273098, 0.08029213880575085, 0.08242197313156704, 0.08459056879505798, 0.08677032990477417, 0.08898769041036181, 0.09121955361110713, 0.09347880186656327, 0.09580016793969175, 0.09810963497844898, 0.1004526660518189, 0.10281972268669196, 0.10521570345791681, 0.10758818914804302, 0.11004795211599251, 0.11257009244966086, 0.11507631185086756, 0.11761060341682447, 0.12013162195297523, 0.12272720172376726, 0.12542459550604784, 0.12806233422593513, 0.13073074033709725, 0.13333601207079573, 0.13607670935930724, 0.13888120310613314, 0.14166686238961682, 0.14448050880610325, 0.14730709806515396, 0.1501791656447635, 0.15310497051595853, 0.15602931424095162, 0.1589833165585075, 0.16198006093245107, 0.16499185399209887, 0.16803852885913023, 0.17111079880541097, 0.17421378693320386, 0.17726483305921917, 0.18043961508375353, 0.18366434420200964, 0.18688884235704264, 0.19014635379600656, 0.1934279883674132, 0.19673921228554725, 0.20007810968316642, 0.20344953917562048, 0.20689028086162295, 0.21031732296998265, 0.21377713992900504, 0.21728915977095223, 0.22081165243418568, 0.22427851411666758, 0.2278790714797671, 0.2315076997254858, 0.2352627865686402, 0.23893675529194203, 0.2426392154372002, 0.246383626344033, 0.2501619139873992, 0.25387814625574157, 0.2577355297182424, 0.26164247300795546, 0.2655533358501393, 0.26949435250360176, 0.2735114633523472, 0.2775078143282459, 0.28152455926346115, 0.2855892419042336, 0.28968625143528937, 0.2938024754888113, 0.29796558565554465, 0.3021122461770539, 0.30634420162434056, 0.3106048930877172, 0.3148620812877727, 0.31918542970946234, 0.3236235929013458, 0.32799208792370915, 0.33239414048531823, 0.33677716832151605, 0.3412517550828555, 0.3457449532123596, 0.3502799465306074, 0.35484390345259315, 0.3594825581525719, 0.36409884376467033, 0.3686728144970645, 0.3733612482686956, 0.3780763090335447, 0.3828312301120221, 0.38759838922255246, 0.3924737194961527, 0.3972860441340089, 0.40213035379991874, 0.4068949299182677, 0.41181479005252125, 0.41680589338142127, 0.42176670731495697, 0.42675390512687666, 0.4317845298377382, 0.43682122269328927, 0.4418363301276054, 0.4469310236961081, 0.4520481900227313, 0.4572028870079342, 0.4623625380510042, 0.46747530603634846, 0.472688720827707, 0.4779200544028393, 0.4831541741236809, 0.48842344028231316, 0.4937075911527477, 0.49901120681728106, 0.5043315868186006, 0.5096685411380834, 0.5150218061485055, 0.5203953997215879, 0.5257796828590167, 0.5311793503656291, 0.536580822890169, 0.5420112660971064, 0.5474220238401607, 0.5528819047288812, 0.558351750313574, 0.5638659806808063, 0.5693501802917256, 0.5748080231654383, 0.5803172691804336, 0.5858333490571351, 0.5913230707642221, 0.596855157857744, 0.6023968877388394, 0.6079339321383177, 0.6134734755318055, 0.6190409631470255, 0.6245802140596681, 0.6300713285367224, 0.6356196499201642, 0.6411650290280971, 0.6467372864330021, 0.6522710129151397, 0.6577253710931329, 0.6632611568047622, 0.6687873344244752, 0.6743447729973999, 0.6798450954194443, 0.6852865377113484, 0.6907744296194578, 0.6962485982925597, 0.7016822996900167, 0.7071302960600877, 0.7125413824614227, 0.7179565444779867, 0.7233519395847215, 0.7288139290788999, 0.7341568812911822, 0.7394111328632338, 0.7447277371148259, 0.7500203501264701, 0.7553011303500838, 0.7605414043246176, 0.7657338844973273, 0.7709236943976793, 0.7760839920287206, 0.7812790370351703, 0.7863691197744652, 0.7914064270853923, 0.7964402346931294, 0.8014407187451659, 0.8063761309551619, 0.8113099060060183, 0.8161569295113236, 0.8210178940335489, 0.8258351883968951, 0.8305733484454202, 0.8353056141503041, 0.8400291920631637, 0.8446602990902875, 0.8492445813451679, 0.8537418821230576, 0.858234384697259, 0.8627225834892375, 0.8671040032275582, 0.8714344037203646, 0.8757386410644599, 0.8799600076047961, 0.8840042084853872, 0.8881333727781249, 0.8921995650189304, 0.8963002872816503, 0.9002270497784235, 0.904036343108179, 0.9078516380402595, 0.9116021835789689, 0.915276288655793, 0.9188962273930655, 0.9225417759374904, 0.926013331769903, 0.9294206461096383, 0.9326708165000663, 0.9359565296369754, 0.9391422738835716, 0.9422829074114827, 0.9453469245482183, 0.9483512570520821, 0.9512584105194374, 0.9541362468570406, 0.9568823350060063, 0.9595525215009777, 0.9621109077271885, 0.9646304070981893, 0.9670666868968076, 0.9694236748722139, 0.971698110765517, 0.973900203346264, 0.9760061805842007, 0.9780195574115379, 0.9799581085023134, 0.9818108538068274, 0.9836054590600608, 0.9852812346540157, 0.9867949400033422, 0.9883076242006785, 0.9897285665807614, 0.9910707434625218, 0.9923063122344395, 0.9934549215620603, 0.9945070714035921, 0.9954676485607836, 0.996366803331618, 0.9971395242369271, 0.9978150142283382, 0.9984066401832287, 0.9989062294941179, 0.9993003735285174, 0.999616486727443, 0.9998366761101674, 0.9999654140695148, 1.0, 0.9999620878546335, 0.9998053746027268, 0.9995055182578737, 0.9991686630713369, 0.9987724821121419, 0.9982386699889784, 0.9976112256648814, 0.9969097053136303, 0.9960925215394334, 0.9951502618039083, 0.9941522185744682, 0.9930598174370344, 0.9918972847697859, 0.9906140884964034, 0.9891562341829085, 0.9876995890704581, 0.986146662872779, 0.9844766363277669, 0.982736627226913, 0.9808952478277883, 0.9789673624596548, 0.97694620627735, 0.9748914494912513, 0.9726791833283214, 0.9703775534206706, 0.9679915834153482, 0.9655191420893335, 0.9629520289887357, 0.9603092714923549, 0.9575681079668018, 0.9547569542009894, 0.9518610835445367, 0.9489008970879239, 0.9458356291982574, 0.9426871082920985, 0.9394606786767276, 0.9361545270614544, 0.9327803366784413, 0.9293158347083496, 0.925742139995472, 0.9221294270016548, 0.9184399900988229, 0.9146423796491825, 0.910807119075455, 0.906912037130553, 0.9029262167962127, 0.8988690814490807, 0.8947006025358687, 0.8905099104307588, 0.8862494364175876, 0.8819208010264271, 0.8775255885486312, 0.8731131872854353, 0.8685834071558722, 0.8639769274384738, 0.8593318407964174, 0.8546287155061199, 0.8498906052255961, 0.845072598967589, 0.8401908761463203, 0.8352697324687053, 0.8302975258487726, 0.8252429771383014, 0.8201767958578373, 0.8150378724139524, 0.8098787234187508, 0.8046727084394869, 0.7994238251353881, 0.7941292392745926, 0.7888280704901507, 0.7834480581226649, 0.7780320375365478, 0.7725792325054409, 0.7670956841721123, 0.7615585141186333, 0.7560154281930997, 0.7504421981691748, 0.7448317986198383, 0.7392043856235314, 0.733494795237902, 0.7278249543444045, 0.722129709519445, 0.7164264199122258, 0.7106847902747564, 0.7049878811177277, 0.6992034379406352, 0.6934078192612756, 0.6875740123706173, 0.6817634103463749, 0.6759265100444425, 0.6701018717130677, 0.6642704933368583, 0.6583927666166755, 0.652558220438246, 0.6467544513800567, 0.6409094572266503, 0.6350662931329312, 0.629159136717724, 0.6233328834104457, 0.617474586543929, 0.6116603008984949, 0.6058508832576374, 0.6001420308169728, 0.594337030728434, 0.5885158374825696, 0.5827489725879847, 0.5769990510864367, 0.5712740548201757, 0.5655615503806618, 0.5598532735353922, 0.5541875567663316, 0.5485451616334237, 0.5428797118453438, 0.537294353193292, 0.5318208897305939, 0.5262761362867517, 0.5207646250878, 0.5152089957948772, 0.5097766336726346, 0.5043954998975115, 0.49902558481818277, 0.49369156599652736, 0.4883577976863928, 0.4831041593583311, 0.4778881826812364, 0.4727113726117481, 0.4675751634890277, 0.4625505018222347, 0.4574907418834675, 0.4524185329788222, 0.44746397092984896, 0.44255571626964674, 0.43772754325858865, 0.43291120899744473, 0.4281898316785297, 0.42347169733034934, 0.41880897789996524, 0.4141455276570021, 0.4096019756676428, 0.40505755413671696, 0.4006287681962674, 0.39625221219842327, 0.3919356814296092, 0.38766648431177186, 0.3834425549052382, 0.37928796880747556, 0.3751907578982678, 0.3711974926147911, 0.3672119161812366, 0.36325183102287645, 0.35939617579124494, 0.3556015632324375, 0.35187077312794146, 0.3481997340038398, 0.34465674789063366, 0.34110354487066735, 0.3376176551356738, 0.33417281389861253, 0.33082435570024465, 0.32755651826610294, 0.3243370351190103, 0.3211839891617727, 0.31808428100893643, 0.31506559699254055, 0.3120363498530876, 0.3091584025975897, 0.30634177893256404, 0.30360013114521406, 0.3009062252599462, 0.2983150412853499, 0.29574357982982047, 0.29323828064007784, 0.29074239144541103, 0.28837588369774186, 0.2861064329342748, 0.28386023531176713, 0.28167852618840955, 0.27960888422866104, 0.2775493033703035, 0.2755495088920846, 0.2736226378021282, 0.271760261639073, 0.26988780659948314, 0.26816183045291253, 0.2665073165095216, 0.26489647764788293, 0.2633446195852531, 0.26191232592248537, 0.2604697882949382, 0.2589972820996256, 0.25768806157183427, 0.25643321721344486, 0.2552369283886001, 0.254089698441039, 0.25307462138415204, 0.252024823262389, 0.2510323838885508, 0.25002438272401384, 0.24915225608532038, 0.24837352287431405, 0.2475951938691383, 0.24686812163352742, 0.2461782885894075, 0.24555246158732066, 0.2449437950305453, 0.24441614135482692, 0.24393260829628863, 0.24357515271489694, 0.24316736724711085, 0.24274967178329102, 0.2424408195339042, 0.24211166506986911, 0.2418907505724568, 0.24170514431447007, 0.2415739489101295, 0.24145500813010867, 0.24135997604410625, 0.24131113273536986, 0.24129474525515873, 0.24128824571310278, 0.2413370017094614, 0.24147310076159995, 0.24157094131684784, 0.24169912846033864, 0.2418584990631914, 0.24204310887637703, 0.24225422416492537, 0.24249053729528483, 0.24275075680825953, 0.24298359723480223, 0.24329413761599336, 0.24368069671776643, 0.2440176049914536, 0.2443734143886477, 0.2447619682208632, 0.2451495543028159, 0.24552458531155646, 0.24594575037319769, 0.2463782455153232, 0.24682747924351184, 0.2472784717864165, 0.24774653055031087, 0.24821201133621834, 0.24868406188343525, 0.24909408381860307, 0.24958423257064358, 0.25006494755758135, 0.2505541285396706, 0.25104084654604225, 0.25159841041021797, 0.2520689555978344, 0.25254137381681435, 0.2530097071250734, 0.2534752360412873, 0.2538671154913404, 0.254332072130614, 0.2548627388826631, 0.2552966998708861, 0.2557233219261681, 0.25606088726951437, 0.25647924892678003, 0.2569234123093969, 0.2573050513049354, 0.2576725025519375, 0.2580835907613435, 0.258412612794708, 0.25868900169351755, 0.2589946713150872, 0.25928210376005695, 0.2595026124380981, 0.25975708848377704, 0.2600316486432989, 0.2602334289797321, 0.2604134373686149, 0.26053174999801026, 0.2606708318732245, 0.26079454048952994, 0.2608793676922749, 0.26093776625914655, 0.2609148778893521, 0.26092579447355774, 0.2609492304450856, 0.2608926691509377, 0.2608074446193744, 0.26072134421868387, 0.26057379480413895, 0.2604064656231956, 0.2602001954814875, 0.2599646461076023, 0.25968177197334236, 0.2593879595173421, 0.2590903499159361, 0.2587284671030788, 0.25833539284304396, 0.2578366543352203, 0.25738895871401224, 0.2569261838816866, 0.2564022935503211, 0.25584317062923245, 0.2552966219494721, 0.25466090445584627, 0.25392733564985426, 0.2532342227137865, 0.2525040849613188, 0.25171976136191593, 0.2509184579505708, 0.2501232966788216, 0.24924214381761164, 0.2483267384188285, 0.24734223761216592, 0.24636259291854135, 0.245370585113481, 0.24431566618411948, 0.24322642342570552, 0.24212470688115942, 0.24096441031223373, 0.2397670489097149, 0.23854186852372705, 0.23728376930421444, 0.23599287051702278, 0.23466932668759813, 0.2332567939013526, 0.2318757041790412, 0.23045945571055515, 0.22905879191592804, 0.22756807753932917, 0.2260362618615718, 0.2244867227280077, 0.22290689755970386, 0.22134720852146372, 0.21970174715346272, 0.21800183840098242, 0.21630765751037084, 0.21458591602427235, 0.21280877601212042, 0.21103680145848347, 0.20922400637595268, 0.20739887155670703, 0.20554670554859517, 0.20369009005567026, 0.20178361419227936, 0.19985815165550946, 0.19790508340803073, 0.19593019372726442, 0.19393627705795383, 0.19191934719921824, 0.18983261982037788, 0.1877830874803164, 0.18571227919029254, 0.183706078277646, 0.18158521707812408, 0.1794509934196087, 0.17730371747344745, 0.1751437599167177, 0.17288674841284415, 0.17071347645091065, 0.16850461737251313, 0.166303026157546, 0.16408675687754518, 0.1619419170292666, 0.15968943988232956, 0.1573612246792152, 0.1551056938255061, 0.15284107837815164, 0.15054891750156912, 0.1482718955016951, 0.14599660873566078, 0.1437057315880199, 0.14141067166277735, 0.13913418326124513, 0.13683101345305754, 0.1345952348794818, 0.13228427662338293, 0.12997860693624658, 0.1275958205209384, 0.12531189771808915, 0.12308383568522366, 0.1207971116649537, 0.11851703890176489, 0.11623548433812969, 0.11397153193501866, 0.1116698484141307, 0.10942822943595916, 0.10719338803859486, 0.10496858084126764, 0.10275022547243967, 0.10052232726030526, 0.09832744768352059, 0.09614336398625994, 0.09403635211964001, 0.09186870604635428, 0.08971852014739125, 0.08758618725070813, 0.08547212839640082, 0.08336591759399409, 0.0812911391351612, 0.07917019181898856, 0.07714236791482802, 0.07513111700023438, 0.07325713688214815, 0.07126717721833277, 0.06923840973265445, 0.06730950440576852, 0.06540335400486721, 0.06354883760677527, 0.061686448680621175, 0.05984802467698242, 0.058038533328602065, 0.056255761397043094, 0.0545153153958503, 0.05278522291131096, 0.05114041086084011, 0.049460942990978696, 0.04773351293492491, 0.04612903923617473, 0.04455229829010281, 0.0430843554388705, 0.041554724828048256, 0.04007431775922866, 0.038610648760889134, 0.03718164789868637, 0.03583935274372791, 0.03447270665638442, 0.03312815433371013, 0.031837635953946425, 0.030582814076930462, 0.029361373183227523, 0.02817784576690168, 0.027147025212071636, 0.02601924656091281, 0.02493339148292556, 0.023849435941310143, 0.022849852321637026, 0.021955130085630305, 0.021021727897286444, 0.020129195878670268, 0.019344282466244478, 0.018523108165328622, 0.01772752933570698, 0.016993614642413776, 0.016300010803876237, 0.015722295168887672, 0.015098208391264526, 0.014510861566906945, 0.013973219127668399, 0.013476792465827829, 0.013066634828862113, 0.012645138786568517, 0.012244125554813629, 0.011909101292179694, 0.011613729153925155, 0.01140113680286982, 0.011178551983380199, 0.01106454965068665, 0.010915237031575186, 0.010809835674932553, 0.010753904931696595, 0.010732733542895587, 0.010809834445838069, 0.010864304598300657, 0.010962393534070696, 0.0111379093217548, 0.01131601673325743, 0.011508838098055342, 0.011775541410346004, 0.012081878057539065, 0.01242083089250371, 0.012805835863668562, 0.013296198711643155, 0.01374830073483184, 0.014241590341707286, 0.014812251876046756, 0.015380991720044118, 0.016001773548892952, 0.016650628066516654, 0.017339652449032746, 0.01806373261161384, 0.01883143153364541, 0.019667433945525226, 0.020506493869934615, 0.021384141206010808, 0.022343191797617148, 0.023290570662772184, 0.02428367894996357, 0.025307799681952722, 0.026369886659452158, 0.027403974156110362, 0.02854810466807157, 0.02976585292652782, 0.030969352117205803, 0.032207419680723395, 0.03354707422823411, 0.03484462597790308, 0.03617727015387573, 0.03754876711394602, 0.0389557645530233, 0.04039104901311587, 0.04186786324101581, 0.04338661837294155, 0.0449283493965122, 0.04650290717813454, 0.048096773981573394, 0.04973725586098853, 0.05144331145678065, 0.05314069470852288, 0.05487028804691302, 0.05661199562423867, 0.0584069453787788, 0.060183715735168564, 0.062043770155726374, 0.06393029741850473, 0.06592389686564587, 0.06785360798258663, 0.06979072380763228, 0.07178549821170747, 0.07380909327286973, 0.0758546701140371, 0.07793580115623759, 0.07999665568819135, 0.08213873618215844, 0.08430526647247083, 0.08659209822366142, 0.08879593637064315, 0.09100392739985605, 0.0932708549058035, 0.0955652311734638, 0.09783233561437084, 0.10018742240307661, 0.10258547121344003, 0.10498502340195655, 0.10740934136049946, 0.10984966320715395, 0.11232441267694115, 0.11480366088258306, 0.11732901069244195, 0.11987730043249492, 0.12247040030339791, 0.12506217444120488, 0.12773711706607307, 0.13037027254911468, 0.13303094822861183, 0.1356337620091372, 0.1383585107187802, 0.1411414155823109, 0.1439041475351401, 0.14669065249245036, 0.14948344126033222, 0.15231941562615164, 0.15523011067521988, 0.15810463111641915, 0.16100474705905313, 0.16390617391835646, 0.16685944887981288, 0.16981861363315875, 0.1728206065668663, 0.17584481859266013, 0.1788870118293295, 0.18195653604581072, 0.18503094991819888, 0.18814736615276936, 0.19128532949687102, 0.19450596676582893, 0.1976800406337066, 0.20086017710596873, 0.20408767911825643, 0.20733914014603053, 0.21060144599085215, 0.21390228600440808, 0.21722184722769258, 0.22056945835909628, 0.223940057848946, 0.22735767843849786, 0.23077157179853466, 0.23419490770872745, 0.23765996092098282, 0.2411486629385259, 0.24460672667387384, 0.24814981197226865, 0.25171588387820304, 0.25530082783353475, 0.25890766963537754, 0.26256506298896526, 0.2662132470524181, 0.2699033491157589, 0.27359842548532737, 0.2773190874814429, 0.28101522445021204, 0.28479309053244406, 0.28863913325187635, 0.2924565976150782, 0.2962997793980972, 0.30011639154111375, 0.3040173077207908, 0.3079189946085889, 0.31186803607350116, 0.31583902406214376, 0.3198476176390626, 0.3238618324571129, 0.32789999441762335, 0.33196225992859124, 0.33604875654728567, 0.34017698000749513, 0.34431001930818056, 0.3484337107620221, 0.35262192612872617, 0.3568334193181574, 0.36105096772143436, 0.3653116947851992, 0.369660361458828, 0.37395847259573817, 0.3782833312062511, 0.38259974820880854, 0.38698132722613426, 0.3914083225820524, 0.3958344510409294, 0.40023100322516536, 0.40471331306766506, 0.40921685172733796, 0.41374181374062086, 0.41828834322895253, 0.4228304460465675, 0.4274236591210703, 0.43203714214475586, 0.43665151376742645, 0.44130851285770933, 0.4460655194152255, 0.45075164120119876, 0.4554621271307249, 0.46014637399616687, 0.46491015414015924, 0.46967856168017297, 0.4744838352705884, 0.47930781638315956, 0.4840721608164936, 0.48894320178958245, 0.49390431958691877, 0.49879412563634123, 0.5037029350933817, 0.5085890422512893, 0.5135398819133871, 0.518443115403002, 0.5234327103887487, 0.5284339284181797, 0.5335166293372495, 0.5385330309049466, 0.5435132994193562, 0.5485678182409625, 0.5536342817044975, 0.5587211974424887, 0.5638098171054124, 0.5688601033702139, 0.5739779605089459, 0.5791037722070519, 0.5842026366124142, 0.589348333212787, 0.5945233658533887, 0.5996768121868986, 0.6048367946505404, 0.6099354673270604, 0.6151156607281401, 0.6202971155817114, 0.6254797763284154, 0.6306634777375145, 0.6358936159817156, 0.641072743126705, 0.6462370266030344, 0.6514225807531571, 0.6566079418652566, 0.6618140815628313, 0.6669939601173465, 0.6721159239732283, 0.6772991495697509, 0.6824757466422943, 0.6876625242232824, 0.6928218504373038, 0.6978888009182209, 0.7030428096344694, 0.7081826881361172, 0.7133234050221635, 0.7184322382893487, 0.723611532272672, 0.7286803087877505, 0.7337381246105347, 0.7387030715621808, 0.7437447967337565, 0.7487711209335574, 0.7537720813965775, 0.7587520513820971, 0.7637058299375367, 0.7686417729282609, 0.7735103255897214, 0.7784030362218344, 0.7832675252038849, 0.7881575164937902, 0.7929567192699739, 0.797696036126142, 0.8024435642084117, 0.8071594841659393, 0.8118493359359946, 0.8164982390827996, 0.8210780849807208, 0.8256617436903444, 0.8302069573378077, 0.8347781075435776