0.04617077464915509, 0.046015457019413994, 0.04587975791458683, 0.04579460523158651, 0.045685829356216706, 0.0455574576321044, 0.04547909740153076, 0.045409041440979535, 0.04532171778820571, 0.04526768020566409, 0.04525238348405928, 0.04520068875256347, 0.04515364715427493, 0.045080970515929235, 0.04504529316651353, 0.04500035412904846, 0.044969072516841097, 0.04493870947680618, 0.04492156653459958, 0.04489201320919243, 0.04484978127845847, 0.044826563106934274, 0.04480497097924007, 0.04477181677722164, 0.044756094848457585, 0.04474485519856188, 0.044732772673845726, 0.044723433528819044, 0.0446996554026037, 0.04469907502274067, 0.044752545884859454, 0.04475150521619683, 0.04475700105199516, 0.044742030611159854, 0.04476397403406112, 0.04475047199527427, 0.04478784731736629, 0.04482848229671637, 0.044885077892190386, 0.044932321642918105, 0.0449958255903086, 0.04505295863545226, 0.04511677714407087, 0.045140243274247684, 0.045223937180117454, 0.045355351361738926, 0.04544321343229438, 0.04553905283760487, 0.04563755226775654, 0.04575026507075569, 0.04584930058112964, 0.04598068061631227, 0.04609470882166201, 0.046243308419248, 0.04639802043832048, 0.046574116983131644, 0.04674042848296739, 0.046918900743161955, 0.04710112193106388, 0.047292057179140375, 0.04751072706370942, 0.04771709291552874, 0.04789313581859933, 0.048124883528227386, 0.048364450420966515, 0.04861889883576095, 0.04887417410933939, 0.049116932831288256, 0.0493932667184777, 0.04967782709640552, 0.05001547686815798, 0.050311855416138675, 0.05059291394096381, 0.050915932658397715, 0.051248929833404865, 0.051558342596625624, 0.051916050647393804, 0.05227962244012748, 0.05265521402833165, 0.05304001480444534, 0.05348970711278425, 0.05388700301375524, 0.05427468521297614, 0.05470135860563762, 0.05513976712935597, 0.05556570591125226, 0.056030897154510984, 0.056495916125581976, 0.056983997704242055, 0.05748264086983124, 0.0579813820774603, 0.05850347305836912, 0.059080946954631605, 0.05961947051929273, 0.06017200004965748, 0.06072901237388303, 0.061310528890307275, 0.06192962242487914, 0.06253470141003162, 0.06315453569335544, 0.06377144730978253, 0.06442261954385826, 0.06501706955020378, 0.06570405260661431, 0.06640068293236073, 0.06712783868646344, 0.06784305846157261, 0.06855998834413611, 0.06930186628127698, 0.07005618353758275, 0.0708691225917054, 0.07164341700318276, 0.07244299570342125, 0.07324761766485047, 0.0740683096785894, 0.07485495263341549, 0.07571351626179668, 0.076607748243546, 0.0774891412993453, 0.07838504751974362, 0.07926445168179877, 0.08019334691364881, 0.08112964624937705, 0.0820850738127261, 0.08305346058070354, 0.084016141722046, 0.0850134684700571, 0.0860637336259375, 0.08708114873134566, 0.08811380782698557, 0.08913459241875656, 0.09020074613686593, 0.09125864290301146, 0.09235427129637871, 0.09346216555755936, 0.09459737709429913, 0.09572851635097346, 0.09685572283718497, 0.09801626511733982, 0.09918935850315513, 0.10038722598272179, 0.10158409656213432, 0.10280514167545372, 0.10402730604716236, 0.10526323682664376, 0.10651002197940257, 0.10777318641650223, 0.1090169479938767, 0.11030996906617889, 0.11161376672801979, 0.11293650084317917, 0.11426098848923932, 0.11563052904240911, 0.11697330593485755, 0.11832909152015825, 0.11969748492060076, 0.12107810396763564, 0.12242066519556243, 0.12383096513147746, 0.12524963489183724, 0.12668889115047996, 0.12812294871029747, 0.12957021171671615, 0.13102194054359817, 0.13248277006573383, 0.13396059431949495, 0.13543798805434323, 0.13687708137615062, 0.13837798611000454, 0.13988456303607394, 0.14142522282322614, 0.14293974982163135, 0.14447242705589708, 0.14600002183757108, 0.14753500759652893, 0.149081047562214, 0.15062915498914847, 0.15215001102430079, 0.15371493035718167, 0.15528362706735171, 0.15689375335353847, 0.15846482914011414, 0.16001436522490725, 0.16159923245266491, 0.16318703197942094, 0.16475996580370156, 0.1663550552481387, 0.1680052381701653, 0.16959560271886193, 0.17118977973626895, 0.17271696827786373, 0.17432573259338777, 0.17594736197915903, 0.17755029833653627, 0.17915204223298836, 0.18079555363047004, 0.18238879221090526, 0.1839380305751032, 0.1855373134640073, 0.18713338891555675, 0.18874492193973652, 0.19033150130896714, 0.19187876682859828, 0.19346373575628886, 0.19504289034847763, 0.19661878093092416, 0.1981854858941146, 0.1998053417040079, 0.20135185211658477, 0.20289492590879624, 0.20440679243673174, 0.20594408141511342, 0.20750385502640756, 0.20902253909242602, 0.21053477733261175, 0.2120331333436046, 0.2135312935771005, 0.214970734917701, 0.21645705773419566, 0.21793070149931384, 0.2194239326814584, 0.2208677505664312, 0.2222719330855085, 0.22369625612209879, 0.22510675181762327, 0.2265004914202867, 0.22788295911177148, 0.22926553039017122, 0.2306163771754969, 0.2319527595199616, 0.23328504483160128, 0.23458985682012828, 0.23589707279815564, 0.23716888724257054, 0.23842554254301282, 0.23962188967126524, 0.24085200129209927, 0.24204781435118392, 0.24324069435514328, 0.2444128771194304, 0.24560876887386104, 0.2467335501407585, 0.2478572327915085, 0.24894196282773873, 0.25000794436005525, 0.25104237880540775, 0.2520704666361702, 0.2530340917551456, 0.2540246013366471, 0.25499050241041116, 0.25597084333051145, 0.25688232273021877, 0.25777242754976876, 0.25863782303977795, 0.25946751660385464, 0.2602868900844746, 0.2610811659578761, 0.26178663176236006, 0.26253782473919984, 0.2632877976317481, 0.26397652541544037, 0.26463767488723544, 0.2652819225679063, 0.2658861836953792, 0.2664468833509661, 0.2669981998545395, 0.267520740838742, 0.2680454210128019, 0.2685061281045009, 0.2689394173148388, 0.26934489090893005, 0.26972217552450195, 0.27003584350051985, 0.27036015672291913, 0.2706641199247018, 0.2709247771717966, 0.27115487098901997, 0.27136642279392714, 0.27153349224837986, 0.27166627136239735, 0.2717731519375338, 0.271849148324305, 0.271876570000335, 0.2718925708725485, 0.2719046118540437, 0.2718524687702415, 0.2717696608848704, 0.2716424797603444, 0.27149942201128074, 0.2713526972929606, 0.2711420232916489, 0.2709008759437703, 0.27061416769494945, 0.2703132460176378, 0.26995475244167877, 0.2695931714084877, 0.2691981813411968, 0.268751106643929, 0.26829231198666326, 0.26779965265869676, 0.2672734641235186, 0.26671405704875484, 0.2661392594765115, 0.26551204749915613, 0.26484127530575147, 0.2641528646693924, 0.263432566056719, 0.262685990623713, 0.2619018736340791, 0.2610814085246024, 0.26023623457205736, 0.25936013961192367, 0.2584695325152204, 0.2575302079405534, 0.25657907327526425, 0.25557893051452074, 0.2545506379353346, 0.2534550671696156, 0.2523754477076939, 0.25129660899368017, 0.2501529805280236, 0.24898166079848785, 0.24781652487018552, 0.2465860235275467, 0.24526547979532362, 0.24399254516111363, 0.24269064020731695, 0.24135628911197043, 0.23999865108599522, 0.2386674414847089, 0.2372484612462673, 0.23580606657269568, 0.2343147156352611, 0.23282905058024486, 0.23132432778711473, 0.229789486797461, 0.22823133174058838, 0.22663945589135626, 0.22503720889032294, 0.2234621560248899, 0.22180865887962367, 0.22013625748592064, 0.21838974589104074, 0.21668690611264155, 0.21495848356050165, 0.213213776810318, 0.21144867461434783, 0.20970299436425924, 0.2078942147122079, 0.20601394853845714, 0.2041801503788892, 0.20232776630971847, 0.20047651210909603, 0.19858701915844737, 0.19667699294742505, 0.19475849692962585, 0.19282573299928893, 0.1908671822361747, 0.1889092791175309, 0.18695716020321146, 0.18497136054272378, 0.18297489767743774, 0.18098852298382492, 0.17896972349244492, 0.1769429556310721, 0.17490858677967497, 0.17286700935674773, 0.1708456213658536, 0.16878748213137157, 0.16666964104288645, 0.16460997635118368, 0.16254337316417206, 0.16047061181585126, 0.15839245158663923, 0.15633391693557397, 0.15424409112069648, 0.15215239839842287, 0.15000671916038313, 0.1479194456603053, 0.145849109598905, 0.14375362571841427, 0.1416578274527041, 0.13960963251463365, 0.1375093120205293, 0.13535805651856928, 0.133273759630472, 0.13119131319062902, 0.1291155436803059, 0.12703859520945976, 0.12501319839460248, 0.1229396119278365, 0.12087432653525552, 0.11881220055845364, 0.11676499633218229, 0.11469022099479881, 0.11266571747792434, 0.11064880996379216, 0.10866853833543634, 0.10666534100348374, 0.10464640125763346, 0.10266950939288458, 0.10070317880180961, 0.09877638728391952, 0.09682951386439116, 0.09486968483315257, 0.09295463558293927, 0.09105282643612135, 0.08919858025575497, 0.08732075059515218, 0.08543684398969832, 0.08359589807604552, 0.081771074515597, 0.08000198082716704, 0.07820589233192098, 0.07638366721515233, 0.07463298245959614, 0.07289975798692941, 0.07122637484394413, 0.06952443222603405, 0.06784389885915756, 0.06618492712462579, 0.06454769035041777, 0.06290269874970617, 0.06131327304640618, 0.05974048469726472, 0.0581934069171916, 0.056667698044236575, 0.05518270193897027, 0.05369868634833479, 0.05221950778369951, 0.05078556442324372, 0.049374752084436396, 0.048023877663635015, 0.046655839588618915, 0.04531270079538814, 0.04399735196477973, 0.042708235895052266, 0.04145890672161723, 0.040220748705127235, 0.039005749296021124, 0.037822493004353835, 0.0366661890114322, 0.03557195741357415, 0.03446525876290214, 0.03340786784567806, 0.03235653082905517, 0.031334995591831734, 0.030351043348726858, 0.029387195758352195, 0.02845819894708905, 0.02755232618670192, 0.026675747561839703, 0.0258970482929003, 0.025069731579758833, 0.024245327928611712, 0.023486268993588244, 0.022756862275551352, 0.022050087107722275, 0.021380053031163564, 0.02079929377566992, 0.020178594689538056, 0.019616634353435136, 0.01905546393708855, 0.018526492036297217, 0.0180614441323211, 0.017590896282489818, 0.017122958488728295, 0.016720048918766897, 0.016346458799674966, 0.016031574911729934, 0.015712025846619262, 0.015437526369875687, 0.015176081792986712, 0.01494485572815378, 0.014786559272977817, 0.01460898082094381, 0.014460112927836822, 0.014345022403786458, 0.014259923732953803, 0.014258276155259481, 0.014224875377729304, 0.014259563220142015, 0.014284086842747474, 0.014340818517814746, 0.014419396139568275, 0.014539089033005981, 0.01470554857091769, 0.014880918370119412, 0.015085440190560157, 0.015323925042143013, 0.015584376320018594, 0.015911835385228407, 0.016222645540447302, 0.016562661274407506, 0.016923100852859346, 0.017320564001855873, 0.01779079985740812, 0.018235840238985744, 0.018709543410750564, 0.01924221963873348, 0.01976724144459746, 0.020331519598646104, 0.020911335342150318, 0.021518766307278538, 0.022192237386249595, 0.02284792669570657, 0.023534240490278812, 0.02424462491338353, 0.02498154421397642, 0.025787501679323248, 0.026570097954819325, 0.0273744581663613, 0.028211234915568213, 0.029073315993954272, 0.02999922100666159, 0.03090521512504608, 0.03183438831241101, 0.032791736314029506, 0.03377341055923787, 0.03481392715427709, 0.03583819802187687, 0.03687107246321987, 0.03794630135479329, 0.039044141975868814, 0.040196574980686184, 0.04133439424653271, 0.04247129102312834, 0.04365836366757555, 0.044866415282004336, 0.04609251818018521, 0.04734220450337505, 0.048648524932266436, 0.04993387474631179, 0.05124119700193407, 0.05259436009769471, 0.053941353750216324, 0.055303819007929494, 0.056695609407555865, 0.05810831278632369, 0.059583421302986626, 0.06103170750875514, 0.06246054704780354, 0.06395830831565298, 0.06547503519941636, 0.06706863994294181, 0.06861567475130574, 0.0701617319973222, 0.0717550499778828, 0.0733680408285997, 0.07502611674722799, 0.07667457923782801, 0.07832469086162698, 0.08001627138198306, 0.08172668822006, 0.08345853757352586, 0.08520599912122379, 0.08701806904040306, 0.08879713522074259, 0.09059738773454398, 0.09239413395754643, 0.09423866411808428, 0.09615053370312528, 0.09802641206746182, 0.09992370190667234, 0.10180826904926805, 0.10375149276746719, 0.10571050466065939, 0.10769108087122421, 0.10969008181883722, 0.11171298833290726, 0.11374841662967508, 0.11585006621793689, 0.11791758801098493, 0.1200068932970733, 0.12207720930896614, 0.12421435829101272, 0.1263959178047713, 0.1285675571361255, 0.1307597671352189, 0.13298061436472466, 0.1352128830420681, 0.1374904504686506, 0.1397616533679934, 0.14205521218124262, 0.14434532485932117, 0.1466863766596286, 0.14902233897067244, 0.15140788065224609, 0.15381285641693487, 0.15621471090189346, 0.15866257383944965, 0.16116069337650807, 0.16364359338741624, 0.1661484373903183, 0.1687172326888925, 0.17126122846939873, 0.17380038495953523, 0.17639766287825764, 0.17901784992621386, 0.18165841058761392, 0.1843252490065565, 0.18700050341461058, 0.18971592494844847, 0.1924541570578242, 0.19522360619316395, 0.19800735514943565, 0.2008624776884004, 0.20368876751417528, 0.20654226423571256, 0.20938500850706182, 0.21229718801340186, 0.21522323661577583, 0.21818634253279498, 0.22117397309374517, 0.22417429705637618, 0.22721342777691575, 0.23030831414159111, 0.23339333300315895, 0.23650551358425598, 0.23964896428973653, 0.24281514850187907, 0.246002184388302, 0.24922446759583192, 0.2524740816624968, 0.2557565458526328, 0.2590605072497585, 0.26238302523059964, 0.2657442584597568, 0.2691331189792985, 0.2725605580969267, 0.2760037751719367, 0.27947702484088766, 0.2829774854898501, 0.2865068024447079, 0.29005017583337955, 0.2936392054134284, 0.29725638460746584, 0.30090187553710906, 0.30457582425754093, 0.30827566303652243, 0.3120072450740317, 0.31578367006129326, 0.3195706203426213, 0.3233873331748559, 0.3271946297510766, 0.33107565338504785, 0.3349989233066077, 0.33893314133847485, 0.3428960748281319, 0.3468864343430366, 0.35090712724161804, 0.3549538781209126, 0.3590324344773298, 0.36313959536391943, 0.3672820990229346, 0.3714455728559042, 0.37560016986291955, 0.37982609586747507, 0.3840785450474921, 0.3883846580864189, 0.3926871665976934, 0.39702343855731204, 0.401381802210974, 0.40572390908263634, 0.4101441666397353, 0.41458965427498995, 0.41906314930477384, 0.4235589408830759, 0.4280667070734926, 0.43261504844792176, 0.4371878839860779, 0.4417851593070662, 0.4464067729631578, 0.4510755153347163, 0.45574243100529427, 0.4604344201993423, 0.4651442964774301, 0.4698859543101242, 0.47464151384637165, 0.47943064344015707, 0.4842417456862198, 0.48907175359165517, 0.4939260119838847, 0.4988009143607175, 0.5036960452340731, 0.5086109660160064, 0.5135020439309746, 0.518460600735614, 0.5234148443324607, 0.5284076339681327, 0.5334148033094204, 0.5384578098069998, 0.5434905511470929, 0.5485220979231274, 0.5535863757947316, 0.5586637054153376, 0.5637779361160645, 0.5688769488600399, 0.5739741002072658, 0.5791001940756559, 0.5842369171516948, 0.5893755206275187, 0.5945325394908784, 0.5996828602692051, 0.6048573842026275, 0.6100378781402973, 0.6152412915024272, 0.620429701968895, 0.6255881105585103, 0.6307902723293626, 0.6359938593267718, 0.6411942482364801, 0.6463994242923633, 0.6515715592316044, 0.6567788373009698, 0.6619822614877499, 0.6671961906989363, 0.6723885218539432, 0.6775465198268693, 0.6827325234190932, 0.6879106245259772, 0.6930707795240556, 0.6982324143812599, 0.7033930983620458, 0.7085320732178743, 0.7136597803772604, 0.7187308508107698, 0.7238390778217633, 0.728912017946554, 0.733989261801661, 0.7390478338267477, 0.7440777429438168, 0.749098452002365, 0.7540927130404851, 0.7590713365827678, 0.7640272156687575, 0.7689798518832427, 0.7738854244172259, 0.7787548879725416, 0.7836130241908715, 0.7884444207752564, 0.7932548548872119, 0.7980289915142468, 0.8027130870769977, 0.807435159813195, 0.8121223289182478, 0.816778038598261, 0.8213930155554011, 0.8259416421897778, 0.83048622819828, 0.8349908298943334, 0.8394453636449498, 0.8438692128503079, 0.8482531576687923, 0.8525907413112127, 0.8568843873242864, 0.8611319158409994, 0.8653353318597351, 0.8694597688583723, 0.8735731747093629, 0.8776363340426021, 0.8816539619943167, 0.88561385652715, 0.8895229830550834, 0.8933776310196451, 0.8971785320055989, 0.900893763431712, 0.9045884037132429, 0.9082450807679491, 0.911820091147395, 0.9153366615703297, 0.9188087367725022, 0.9222038606916907, 0.9255238435552294, 0.9287992265069581, 0.9320114627561998, 0.9351124744065986, 0.9382018180043065, 0.9412686778359098, 0.9442150550293396, 0.947094699251352, 0.9498783840664545, 0.952625480773609, 0.9553056788383767, 0.9579097665507094, 0.9604419181754417, 0.9628650586866143, 0.9652560014335243, 0.9676101541849963, 0.9698439797065629, 0.9720033774079387, 0.9740903408280834, 0.9760984491184499, 0.9779924562938378, 0.9798520297275305, 0.9816318624680905, 0.9833276013136454, 0.9849475348503193, 0.9864838520859114, 0.9879419917055917, 0.9893184577862933, 0.9906224080763388, 0.9918334719263204, 0.9929530851248086, 0.9940009685309669, 0.9949656080434679, 0.995864288551365, 0.9966594693461882, 0.9973365779739952, 0.9979698397960082, 0.9985174398772162, 0.9989604691527972, 0.999339065641022, 0.9996254693859483, 0.9998312814791691, 0.9999502309588836, 1.0, 0.9999434248434808, 0.999802718382532, 0.9995749895982191, 0.999261828246404, 0.9988753779012562, 0.9983898407905765, 0.9977777958748466, 0.9971281451860291, 0.9963914330104063, 0.995563984967323, 0.9946547725739266, 0.9937079388698009, 0.9926205972454022, 0.991450572914622, 0.9901385041502554, 0.9888106722456615, 0.9874064237229262, 0.9859063026412238, 0.9843220891740485, 0.9826448656839083, 0.9808952433738534, 0.9790504465228519, 0.9771369124047186, 0.975140899448177, 0.9730644738952057, 0.9709054764320545, 0.9686810482143463, 0.9663603250461138, 0.9639615525488299, 0.9614920580688537, 0.9589381009757645, 0.9562893964432081, 0.9535867025500173, 0.9508083069191072, 0.9479496173442641, 0.9450229230150047, 0.9420509986048071, 0.9389744782475469, 0.9358277535334854, 0.9325575278740559, 0.9292792621742831, 0.9259258352470157, 0.922507065506204, 0.9190193578243694, 0.9154531258186148, 0.9118325092626448, 0.9081729021691628, 0.9044181780796031, 0.9006190159321162, 0.8967391201975535, 0.892800245917188, 0.8887870922227709, 0.8847350069420049, 0.880608259108179, 0.8764452564843245, 0.87222638325057, 0.8679623612537171, 0.863634381243829, 0.8592454364585841, 0.854816800066348, 0.8503385040025786, 0.8458050873845919, 0.8412321788947824, 0.8366103882013977, 0.831946793791419, 0.8272395410781124, 0.8224724459899614, 0.8176841532785557, 0.8128620140051844, 0.8079931681797886, 0.8030870579146984, 0.7981666633245702, 0.7931874690532154, 0.7881440025091718, 0.7831063168919098, 0.7780373398131201, 0.772930470423656, 0.7678043979854944, 0.7626321223339662, 0.7574553184606406, 0.7522531406496076, 0.7470514967485266, 0.7418003353727245, 0.7365366758044959, 0.7312475057038998, 0.7259421324232144, 0.7206029425511691, 0.7152713796860523, 0.7099452800594842, 0.7045859200331999, 0.6992170604320045, 0.6937967876419439, 0.6884181688564677, 0.6830314187242725, 0.6776381559789698, 0.6722399586536237, 0.6668747940092649, 0.6614667094629542, 0.6560589071729462, 0.6506554086927568, 0.6452557805852237, 0.6398679490394366, 0.6344787551456049, 0.629042050257029, 0.6236765935022153, 0.6183181158842941, 0.613001939360289, 0.6076578848695978, 0.602307095513821, 0.5969937828324217, 0.5916951864104527, 0.5863977911110336, 0.5811344504794351, 0.5759145168829952, 0.5706848437138394, 0.5654770656756973, 0.5602396444518353, 0.5550855330219491, 0.5499967393049537, 0.5448829295180337, 0.5397965628650372, 0.534752129887174, 0.5297219293666332, 0.5247013043963383, 0.5197370102828607, 0.514804374159236, 0.5099165642969257, 0.5050487625703871, 0.5001501976958764, 0.4953622992280408, 0.49060773571527955, 0.4859364397144298, 0.48124641760913406, 0.4765477477663625, 0.471944461926704, 0.4673798628227274, 0.46286855495515056, 0.45838289877742205, 0.45392364798979257, 0.44952605331985007, 0.4451717551745462, 0.44088186925417666, 0.4366141902226145, 0.4323866831257658, 0.4282142635905985, 0.4240895034386204, 0.42000219076558365, 0.41597582908464353, 0.4119644517604945, 0.40804036502153035, 0.4041642311814858, 0.40039214865926753, 0.396607211439469, 0.3928201718627617, 0.3891488039082523, 0.3855278467581521, 0.3819902748051167, 0.37846777286848343, 0.3749586401540275, 0.3715491138494569, 0.3681914872936135, 0.3649118598003892, 0.36165613268095875, 0.3584306914169523, 0.3552872765667291, 0.35219725088985737, 0.3491851540147491, 0.3461995575472121, 0.34325990441374565, 0.3403862111121676, 0.33756723120041476, 0.3347746169068328, 0.3320685747691629, 0.32947759897758633, 0.32686986631108295, 0.32431886064152765, 0.32175532486660824, 0.31932513702870907, 0.3169492099074637, 0.31462195176136504, 0.3123466394051661, 0.31012597943802644, 0.307954193006427, 0.30587350848351125, 0.3038005770967387, 0.3017814764981095, 0.29977384386009653, 0.2978660793982982, 0.29596906943791634, 0.2941658179718169, 0.29240982327157267, 0.2907335057060028, 0.28906797850311877, 0.2874500789244737, 0.2858822477496883, 0.28436243503103487, 0.28289826706941074, 0.28147203761142275, 0.280060423650057, 0.27873167418796285, 0.27744688295235953, 0.2762272681719978, 0.2750265162936462, 0.2739074774838311, 0.27278916094613537, 0.2717155631650357, 0.2706249820534367, 0.2696455509530582, 0.26870318464080206, 0.2678003183528411, 0.2669348800365426, 0.26610096786031695, 0.2653095142908659, 0.2645549093277748, 0.26383371850727166, 0.2631469373880616, 0.26254519121556597, 0.26191879511932215, 0.26130609636045055, 0.26075186952353635, 0.2602294920133356, 0.2597232293627983, 0.2592637487983018, 0.2588218208445675, 0.2584196318912334, 0.2580436419561413, 0.2576742623333651, 0.25735093528431435, 0.2570748688980301, 0.25679381871419393, 0.25653586356295416, 0.2562893460917298, 0.2560763500723761, 0.2558886395209171, 0.25571395528244645, 0.25555788371954996, 0.2554128304460919, 0.25529228786891955, 0.2552090109425297, 0.25511629696525695, 0.2550388644537659, 0.2549379499203172, 0.2548929102083612, 0.25484327777789484, 0.2548199735228244, 0.2548047878090687, 0.25479985779917963, 0.2547988521972082, 0.25481513288383806, 0.2548250806445569, 0.254840771943092, 0.25489919326035726, 0.25491922563159164, 0.2549056244716193, 0.2549404917506336, 0.2549630136240328, 0.2550011749659668, 0.25503831344775757, 0.25510755509298383, 0.2551365618205421, 0.2551726855331732, 0.2551978042235515, 0.25522060836911914, 0.2552010515593043, 0.2552214414135655, 0.2552265574319342, 0.25523309800588173, 0.2552309643989964, 0.25523992352890545, 0.25521645783193614, 0.25515701933171975, 0.25511831626782444, 0.25506778459407325, 0.25501983975888026, 0.254942486341955, 0.25487845937717624, 0.2547726758156102, 0.25465488373925066, 0.2544663098369877, 0.25432959068586225, 0.25419162328827566, 0.25401779166673544, 0.25382702477020364, 0.25362030316600226, 0.2533943871887885, 0.25315859596732293, 0.2528953359886763, 0.25261380391943977, 0.25233515084812036, 0.25201305546008723, 0.2516389121602083, 0.2512838803603951, 0.2509075501056914, 0.25050835480762895, 0.25008894611369575, 0.2496583063781048, 0.24919328381973468, 0.24870644436507117, 0.2481813189883216, 0.24765207125602343, 0.24714248263663502, 0.24656065159537752, 0.24595753457923555, 0.24532054778892193, 0.24467511646660164, 0.24396740671789052, 0.2432804040256519, 0.24256765659800875, 0.24181043227231463, 0.24104903604037486, 0.24033276540924192, 0.23950984376083093, 0.23866507591044187, 0.23775359145478833, 0.23686976695359907, 0.23597689734029784, 0.23504071539456975, 0.23408052433483026, 0.2331125422968908, 0.23210238974471908, 0.2310395952324848, 0.22998722488681872, 0.22891016371760167, 0.22782350628534337, 0.22669594904128862, 0.22556958086304504, 0.22439290009230284, 0.22319478005594007, 0.2219347245332922, 0.220698817730253, 0.21942171478797962, 0.2181411280604378, 0.21683672663627593, 0.2155090551000405, 0.21415863594348805, 0.21282374841845425, 0.21142455219411788, 0.21000619322818562, 0.20854049882387263, 0.20708790242862815, 0.205648842792734, 0.20415206608143344, 0.2026379208579558, 0.20109984994761446, 0.19955241765263515, 0.19794607298775163, 0.19637008079663962, 0.19477533157803417, 0.19321919107803148, 0.19158184428502162, 0.1898891302050084, 0.1882301619718139, 0.18655569926377738, 0.1848460950851334, 0.18314496322317791, 0.18147346707626288, 0.17973766435386698, 0.17799090843765852, 0.1762335231099679, 0.17446585662587039, 0.17266534446274642, 0.17088114839825475, 0.1690865563498752, 0.1672808309769929, 0.16546744574300698, 0.16361976985958682, 0.1617929146591175, 0.159957163618432, 0.1581632315228565, 0.15630573715887305, 0.1544552430980733, 0.1525891112078043, 0.15072044518022587, 0.14881984257104175, 0.14695072981182453, 0.1450581121125422, 0.1431856291618089, 0.14130995070668426, 0.1394507229255328, 0.1375685147490159, 0.13569986299463274, 0.1338166154758009, 0.13193526204662492, 0.13001305649671518, 0.1281422400625876, 0.1262856988431146, 0.12441554880417438, 0.12254851318002144, 0.12068387072358396, 0.11882510165349454, 0.11700493490395125, 0.11515224188161424, 0.11330748628553818, 0.111426439791137, 0.1096040880518265, 0.10777866956953253, 0.10597097125167838, 0.10417049891664207, 0.10239146476081752, 0.10060586496417379, 0.09883030510049183, 0.0970652971906906, 0.09531133822819529, 0.09361882904007679, 0.09188209189233439, 0.09012148987224688, 0.08842026335201053, 0.08673222683062036, 0.08504701738762974, 0.08338800651969806, 0.08175768255489307, 0.08012497681867063, 0.07850790753663181, 0.07692704184912494, 0.0753396738843034, 0.07373363140841951, 0.07218652902586861, 0.07065546087422908, 0.06917598055279095, 0.06767394821373163, 0.0661912707976714, 0.06472806905450432, 0.06328447686876688, 0.06185119501906484, 0.060448458846681, 0.059043674290955514, 0.05768298372226266, 0.05634109475588757, 0.055011662755320344, 0.05370940391290212, 0.052422638111108324, 0.051160344466966885, 0.049918077798123926, 0.04873395799427598, 0.04752796979740222, 0.04636530520051994, 0.04520288325125705, 0.0440645990620362, 0.04291518595181616, 0.04182907273533921, 0.040755197242765856, 0.03971380696886809, 0.038693881973371216, 0.03774015073501333, 0.03675812261783801, 0.035787112525879856, 0.034855585160957256, 0.033947385057674875, 0.03300442601964251, 0.03214999777320768, 0.03135859967930166, 0.030538825541883887, 0.029742067193639133, 0.02893318394419947, 0.02818669555817719, 0.027467788874191754, 0.02676231631630456, 0.02609594766487971, 0.025431448089307862, 0.024789588642846364, 0.02419586482380609, 0.023595622478195615, 0.023035210532450855, 0.022479835332418752, 0.02194829268544451, 0.021421230994542698, 0.020938380091302253, 0.020474297744690763, 0.02003448831985362, 0.019615528588757248, 0.019214509652968812, 0.0188369551172238, 0.01843763287495857, 0.018105276256926296, 0.01779021832056909, 0.01753844948833133, 0.017252499531616033, 0.01694751358337917, 0.016706303448079166, 0.016482224575073083, 0.01630760006741571, 0.01611348793372604, 0.015940756439723685, 0.015783259285291, 0.01564378541113327, 0.015519218722224169, 0.015414886728002227, 0.015339337239732326, 0.015266374553995727, 0.015209983744258094, 0.015142712501639961, 0.015121481511878594, 0.01508830406818463, 0.015097470760510349, 0.015118432806477587, 0.015172730114247496, 0.015214374065618956, 0.015291702765474157, 0.015355614819898956, 0.015432892919514557, 0.015541893290021818, 0.01564193649945998, 0.015730573224279547, 0.015858803236403717, 0.015997300159229264, 0.01610925174775645, 0.016271732046959288, 0.016452073294936743, 0.016627233782185617, 0.01680985014223068, 0.017017215209295274, 0.017211769757030346, 0.017377547164696784, 0.017591570080660195, 0.01781033007699992, 0.018062024201104816, 0.01828623976282268, 0.01849874646935089, 0.018736390478059264, 0.018977987914629315, 0.019294746186766666, 0.01953430796839931, 0.019713455913949934, 0.019974730620466032, 0.02023752279179036, 0.02052183214010243, 0.02078437452968581, 0.021086593477771257, 0.02134772441881032, 0.02161201385043783, 0.021815333976091398, 0.022091849791096626, 0.022392931381060747, 0.022661123737936655, 0.022928230379207517, 0.023249219891037988, 0.023506129494882677, 0.02373705498674594, 0.023998600377727716, 0.024258145039686003, 0.02449636141786371, 0.02475299725330613, 0.025064683995995565, 0.025304969852459506, 0.025543831049309015, 0.025784615455349734, 0.026018076920500708, 0.026217386570587822, 0.026447959809924097, 0.026672582658076458, 0.02696253411689683, 0.02716554989515599, 0.02735114104538898, 0.02755009241508502, 0.02774416107330033, 0.02798681043076953, 0.028162835204751442, 0.02829112564916308, 0.02846555592148082, 0.028632770304817978, 0.02885186455805445, 0.028996373513721203, 0.029176761658545488, 0.029306302881621185, 0.02943228117218099, 0.029509344708436528, 0.02963144190059455, 0.029792516012757647, 0.029891974795295907, 0.02998550942426554, 0.030100953444235832, 0.03017763682759994, 0.0303053696906288, 0.030363135244539513, 0.030417498623436966, 0.030451445814623352, 0.03049870144099921, 0.030546274922868162, 0.030579460214874666, 0.03060594537136715, 0.030682115714629792, 0.030687266179591263, 0.03070443890358925, 0.030698648435276803, 0.030688583173040195, 0.030683192074728107, 0.03066199662777511, 0.030641252860199628, 0.030609179622587523, 0.030571932422508375, 0.030545502201480005, 0.030495332631754808, 0.03052009869379259, 0.030450393633582474, 0.030380267663387906, 0.030275329988299425, 0.030206769729989816, 0.030196346153609617, 0.030112052980215083, 0.0300273007390621, 0.029978091257191364, 0.029886649952144014, 0.02975536122381279, 0.029669866418277874, 0.02958199214091449, 0.029532328642013585, 0.02943497678410214, 0.029340708017624773, 0.029243708148641894, 0.02914716552314689, 0.02911722929163152, 0.02901342866809641, 0.028946475990995518, 0.02884719276733851, 0.028753651628601322, 0.028642536302099057, 0.02856235490297979, 0.028516858963732416, 0.02844018769232555, 0.028369219979453745, 0.02830934100912314, 0.028249142495664927, 0.02818704799181464, 0.028140425275137926, 0.02809991594406009, 0.028094183456010537, 0.028063351638189005, 0.02809124522780995, 0.028071920727307974, 0.028064666116458144, 0.028043750622166755, 0.028063676084712757, 0.028138725526897116, 0.028174579861994956, 0.028224279526751106, 0.028289240490967184, 0.028366734124342066, 0.028432927541922434, 0.028542580605822727, 0.028665683702655938, 0.02883247283617277, 0.028980402649751175, 0.029162692250740533, 0.029342398274635306, 0.029540649820153767, 0.029759075717639392, 0.029995132212425637, 0.030271016731160474, 0.030544085637378305, 0.03083869123253937, 0.031148373587057302, 0.031487806564009194, 0.03187771295903624, 0.03225830299237361, 0.032663559251039476, 0.03310319571618987, 0.0335574449557695, 0.03402433711313138, 0.03453287218575593, 0.03506744621159565, 0.03564743964557023, 0.036233197027037256, 0.03686241630015125, 0.03750392033083587, 0.03819185580251865, 0.038892107941652654, 0.039624167948881656, 0.040349156808644884, 0.04115055873286955, 0.0420309990633449, 0.04288786926470656, 0.04377926287840162, 0.04470138801909934, 0.04566314279614385, 0.046673555027064155, 0.04770431833336548, 0.048771787853770204, 0.04988031886446827, 0.05102163865510603, 0.052204936707632904, 0.0534219480550317, 0.05467781959889366, 0.05593511922367543, 0.0572745346654557, 0.058636926456640835, 0.060054538610164035, 0.06151047771353999, 0.0630864383960397, 0.06461099400581395, 0.06614006079439856, 0.0677596806689007, 0.06942201275706507, 0.07112069845261754, 0.0728704630769629, 0.07466235448493268, 0.07649966207046323, 0.07838119563624056, 0.08030600676826108, 0.08227734830720775, 0.08433986285169039, 0.08639637165312207, 0.08850146403840659, 0.09064970244461117, 0.09285255020062572, 0.09508340123979216, 0.0973853651097875, 0.09973459901402662, 0.10213406159013977, 0.10457826187571509, 0.10706657607935635, 0.1096078075132652, 0.112197354782021, 0.1148489143028766, 0.11753398589031833, 0.12026060055351688, 0.1230460176757461, 0.12588070765896928, 0.1287620756676526, 0.1316959489587811, 0.13468730688712482, 0.13771901907886366, 0.14080072353525308, 0.14390811893801075, 0.1470928184346172, 0.15037058970423306, 0.1536469095197542, 0.15697454063805982, 0.16029924001452112, 0.1637354963905209, 0.16725566373672726, 0.1707824686898576, 0.17435912449158741, 0.17795439908808033, 0.18163406727608356, 0.18540034273815992, 0.1891700536341008, 0.1929894521896753, 0.19683793403026756, 0.200758167975468, 0.20473530426075826, 0.20874906134341178, 0.21281038591337204, 0.21691626133439657, 0.2210720957329827, 0.22525007259817814, 0.22950149950442578, 0.2337973118116271, 0.23816297610206066, 0.24254377786995907, 0.24695629546256642, 0.2514287329065469, 0.2559446440625788, 0.26051577971463735, 0.2651159067887435, 0.2697562512166818, 0.2744419979382377, 0.2791693956344173, 0.2839392464207624, 0.28874812300428354, 0.29356197321473576, 0.29845479418933957, 0.30338450104089687, 0.3083413169416902, 0.3133449445609717, 0.3183716512012316, 0.3234468696050871, 0.3285558069904126, 0.33368998861582466, 0.3388661950402661, 0.3441242906981913, 0.3493576678571308, 0.3546248480759162, 0.35988844917796126, 0.36522498287171296, 0.37062146236407173, 0.3760112622929942, 0.3814304037685191, 0.3868280160576176, 0.39230929715001367, 0.39783180784735284, 0.4033577087345677, 0.40890714680086526, 0.41445640702716163, 0.42005345607631855, 0.42565550508624683, 0.43129344884614446, 0.43694903285361264, 0.44265671048705163, 0.44834121758925505, 0.4540325226624316, 0.45975253359047163, 0.4654874414558024, 0.471220095393966, 0.47698394704756125, 0.482753467984057, 0.48853926575078505, 0.49433406431637433, 0.5001423852332965, 0.5059518509385668, 0.5117625198266901, 0.5175848748626691, 0.5234115271909164, 0.5292023748568844, 0.5350396199138847, 0.5408827302743557, 0.5467166517149256, 0.5525485996979603, 0.558412789326817, 0.5642337333017312, 0.5700182560436908, 0.5758368406125396, 0.5816483734236734, 0.5874546057578959, 0.5932488285645664, 0.5989887183006533, 0.6047679130953332, 0.6105327157215847, 0.6162675831531312, 0.6220033150896631, 0.6277404429045896, 0.6334380715796822, 0.6391177525634334, 0.6447299332043052, 0.6503768849870983, 0.6560419685946455, 0.6616355962274716, 0.6672065101359007, 0.6727158269546338, 0.6782427596461259, 0.6837118351769139, 0.6891853481790478, 0.6946273394736371, 0.700035804167083, 0.7054128958314924, 0.710752204013322, 0.7160615327018108, 0.7213352519556887, 0.7266089418879303, 0.7318042629698944, 0.7368959253998848, 0.7420261445021439, 0.7471139376243726, 0.7521316692407375, 0.7571360124528869, 0.7621172458004898, 0.7670260295219409, 0.771888857242974, 0.7766576446146372, 0.7814319148488647, 0.7861819065463902, 0.790849704584515, 0.7954666221767297, 0.8000088623180441, 0.8045243181720378, 0.8089957715781324, 0.8133995590101779, 0.8177477033044774, 0.8220191172999444, 0.8262559760953909, 0.8304145983704975, 0.8345344470416531, 0.8385924658637969, 0.8425516447085264, 0.8464888287651254, 0.8503562553961104, 0.8541621651719782, 0.8579121468573608, 0.8615828197072085, 0.8651864755908913, 0.8686860945887119, 0.8721585240455371, 0.8756099800424175, 0.8789339731931244, 0.88218915028941, 0.8853031865936778, 0.8884273309330579, 0.891491087175614, 0.8944627158545315, 0.8973595357841234, 0.9001905993677343, 0.9029354133955007, 0.9055642455125893, 0.9081626480004096, 0.9106822471384506, 0.9131484958789582, 0.9155066724543051, 0.9177477243881682, 0.9199543797366379, 0.9220799112286203, 0.9241160894058563, 0.9260799661017912, 0.9279671827813791, 0.9297661302724081, 0.9314830365227369, 0.9331149909259507, 0.9346675133764296, 0.9361196543913225, 0.9375085117382199, 0.9388131485581357, 0.9400348623900764, 0.941170721459543, 0.9422101086087201, 0.9431787582730468, 0.9440622269238954, 0.9448753712498512, 0.9455866438060043, 0.9462136012678112, 0.94675613142975, 0.947214139767761, 0.9475592186027093, 0.9478515573225926, 0.9480603139054249, 0.9481799628707904, 0.9482139003086759, 0.9481528619933856, 0.9480171112685255, 0.947798363810867, 0.9474911493425501, 0.9470989246844311, 0.9465949525098925, 0.9460368611359469, 0.9453983976540278, 0.9446685721029182, 0.9438542355605387, 0.942943659603848, 0.9419630743184456, 0.9409673365727618, 0.9398106446969661, 0.9385748674353551, 0.9372073327179606, 0.9358199364457312, 0.9343613232525264, 0.9328090972017479, 0.9311765791051311, 0.9294655929905815, 0.927673761502487, 0.9258139815999352, 0.923863817392987, 0.9218365660737277, 0.9196841246356984, 0.9175102668270096, 0.9153120460769208, 0.9129756497773794, 0.9105658144408669, 0.9080384859555978, 0.9054888424751202, 0.9028769198902613, 0.900177833979536, 0.8974068674416243, 0.8945567426833432, 0.8916454953882416, 0.888619860370947, 0.8855754103658762, 0.882460396372995, 0.8793003616484885, 0.8760448834888027, 0.8727548895019226, 0.8693653491073134, 0.865913907244639, 0.8623621385481232, 0.8587939704158668, 0.8551301674006688, 0.8514435533998287, 0.8476953326570518, 0.8438909032897952, 0.8400229675957401, 0.8361313124330902, 0.8321454245136889, 0.8281063741135272, 0.8239813264351787, 0.8198429130664309, 0.8156602698464832, 0.8114173974995719, 0.8071250642375489, 0.8027668464547384, 0.7983811493820028, 0.7939820675362158, 0.7894991253491269, 0.784973435762999, 0.7803910986427355, 0.7757846318828819, 0.7711374653941261, 0.7664507160407777, 0.7617255027367426, 0.7569508045936469, 0.7521535652109802, 0.7473461861182605, 0.7424753867419912, 0.7375726988753853, 0.7326229377865593, 0.7276615533770648, 0.7226313165089356, 0.7176166103247452, 0.7125723517697937, 0.7075081325372765, 0.7024081955454278, 0.6972727392708297, 0.6921260348456952, 0.6869566168616836, 0.6817955308643868, 0.6765809978235388, 0.6713467283487699, 0.6660995072798204, 0.6608371990149605, 0.6555527929048086, 0.6502645898073786, 0.6449614096459487, 0.6396501483273838, 0.6343287668936957, 0.6290173207098638, 0.6236768047847963, 0.6183104687207891, 0.6129623359484264, 0.6076094766725669, 0.6022206851529917, 0.5968659744771719, 0.5915203449426727, 0.586159373615457, 0.5807987721119966, 0.575443802438502, 0.5700870473135585, 0.5647412042603107, 0.5593930398591448, 0.5540516252229803, 0.5487085400667898, 0.5433848812597539, 0.5380745343291236, 0.5327699658694054, 0.5274770168558648, 0.5221899460695971, 0.5169240891767959, 0.5116211804185711, 0.506391255723621, 0.5011746887385436, 0.49597826895482433, 0.4907918443110347, 0.4856271031359341, 0.48047659563959755, 0.4753462157732271, 0.47027476907358584, 0.46518291975071746, 0.4600663786263354, 0.4550319132629838, 0.45002111979376236, 0.4450255875954304, 0.44006638550691113, 0.43513463842246114, 0.43022845702004414, 0.42535036939988213, 0.42049180995464575, 0.4156736998360451, 0.41088162636330017, 0.40612504060299115, 0.40139995940804934, 0.3967368609319409, 0.39207338791507823, 0.38738869645898477, 0.3828037250913141, 0.37825190963965893, 0.37376787387000815, 0.36928073082939267, 0.3648176527035424, 0.3604077824583925, 0.3560356056135954, 0.351676022430038, 0.3473840470427705, 0.34316897090322257, 0.33894825830389036, 0.33474855132278847, 0.33061313408097387, 0.32651832300814915, 0.322459127685118, 0.31844740416490797, 0.31445689004369654, 0.3105309943736005, 0.3066461341859561, 0.3028176345908776, 0.29901437747586734, 0.29525700772225916, 0.29154002573648985, 0.2878668383517829, 0.2842646013570308, 0.2806760933176232, 0.2771239173248876, 0.27362806019391156, 0.2701772693917829, 0.26671622999964767, 0.26336256081048376, 0.2600589353457998, 0.25678857073584394, 0.25356140795805593, 0.2503534085894209, 0.24721641268210537, 0.244142098132783, 0.24108774670030864, 0.23807754334565473, 0.23515604420186612, 0.23222858053751813, 0.2293342840727366, 0.22650143182222107, 0.22371367664665961, 0.22093702159949058, 0.2182429189766625, 0.21560740236745235, 0.21299604410196124, 0.21042795101566417, 0.2078610970807781, 0.20538419756623405, 0.20300827058327015, 0.20060430460456286, 0.1982441244958801, 0.19586785926048897, 0.19360124197395262, 0.19137358819736142, 0.18918489826209745, 0.18703512024413624, 0.18493359805917808, 0.1828601055092052, 0.1807986429214702, 0.17880628878912405, 0.17685081087810153, 0.1749658074881323, 0.17307937898217482, 0.17119206356956296, 0.16938652365576662, 0.16761595429853252, 0.1659057627458565, 0.16420117234087342, 0.16254433150942119, 0.16090887279988553, 0.1593086012301191, 0.15775904945246882, 0.15622514143048358, 0.15468355557482355, 0.15322245787878128, 0.15179164256969352, 0.15040825574018094, 0.14903458467468833, 0.14768688205031363, 0.1463731521678742, 0.14508800511717798, 0.14380793316125368, 0.1425811288264747, 0.14133941280639697, 0.14016844706683854, 0.13901993783982905, 0.13791534088272622, 0.13680856149014342, 0.13576670004457309, 0.13470034842877945, 0.13365846728759573, 0.13261726639467092, 0.13162468427222523, 0.13065548626952542, 0.1297033280733519, 0.12877078920531657, 0.12787477154516988, 0.12697734290959267, 0.12606352937881038, 0.1252071434812125, 0.12436594484461015, 0.12354756798308227, 0.12273432029550867, 0.12194607101098869, 0.1211592931132848, 0.12038616911270507, 0.11958285530973928, 0.11884049126793916, 0.11813165171999122, 0.11740439600169031, 0.11668710479595548, 0.11593874020723581, 0.11524480000893522, 0.11457034225292342, 0.1138864316611517, 0.11320873458166784, 0.11254086567844765, 0.1118737671985511, 0.11119017232147083, 0.11053546981387909, 0.10988361301079909, 0.10925718565682789, 0.10860704067380941, 0.10795585473823581, 0.10731163351550667, 0.10666899738851267, 0.10607866079813418, 0.10543105960442707, 0.10472826497059645, 0.10409268898319562, 0.10345483759069317, 0.10279949935403711, 0.10215785195670038, 0.10151465745857421, 0.10086390582917813, 0.10020849722022417, 0.09956834078591674, 0.09890006589256614, 0.09821106857362284, 0.09753526060262308, 0.09685299846113471, 0.09617877013266021, 0.09548066514470181, 0.09478667382521624, 0.09407337553739555, 0.09335308166362717, 0.09259154233422605, 0.09185998472975813, 0.09110996024764685, 0.09035850954687455, 0.0895958772077635, 0.0888745534353188, 0.08808251291309291, 0.0872804764287565, 0.08647072888910784, 0.0856511363843638, 0.08477804124911235, 0.08394279911265447, 0.08312767237836448, 0.08226090767180366, 0.08138234637575711, 0.08048761565082965, 0.07958502226958711, 0.07862363376964698, 0.07770077057063278, 0.07676198498487441, 0.07584388584813155, 0.07486916674890602, 0.07385269904201555, 0.07285453985180589, 0.07184101353267028, 0.07084052451194113, 0.06979288739974444, 0.0687357041399526, 0.06766018318871309, 0.066570948201664, 0.06542600213421966, 0.06431412959369842, 0.06322217210739826, 0.06207290194624688, 0.060909605852679904, 0.059714644423392395, 0.05852523304588427, 0.05734080853394166, 0.056118438659033994, 0.054882156135590054, 0.053621108152033164, 0.052358208345878066, 0.0510955179584843, 0.04980157083939275, 0.04849401627808145, 0.047180937803265204, 0.04584513434735269, 0.0444597856983686, 0.04310233987074658, 0.04172973650416777, 0.04033826234775783, 0.038936845048257764, 0.03753449957666673, 0.03610287045800482, 0.034658233082095875, 0.033169759877050314, 0.031703641719706084, 0.030226094378514656, 0.02873184709806951, 0.027224532003921678, 0.02573962366270047, 0.02420291227728215, 0.022618469023527616, 0.021066693015201036, 0.019503008030015544, 0.017972357768243272, 0.016380476285131264, 0.014779055715851365, 0.013170987268923235, 0.011552033986849827, 0.009928032876472684, 0.00829592030167109, 0.0066275390517235785, 0.004983330419130057, 0.003332703346781081, 0.0016703802294050186, 0.0