0.03713929383438478, 0.03671254192501794, 0.03628958503550461, 0.0358736918085409, 0.03546187726364052, 0.03501127703302539, 0.03461122824204747, 0.03420810516650789, 0.033808670294493894, 0.03340910930058401, 0.03304208871444937, 0.03263819186173049, 0.03220661097874492, 0.03180975007309464, 0.031412590603725324, 0.03103378304836523, 0.03063392579448913, 0.03022609573075539, 0.029829287251268023, 0.029432850328622216, 0.029052189680614997, 0.028654670843263536, 0.028251468726965014, 0.027857485214898697, 0.027464333770392105, 0.027116848877117603, 0.02671974434052745, 0.02631644481467936, 0.02592704430588338, 0.025539904860276016, 0.025131176316699307, 0.02475110508161164, 0.02438629799846137, 0.024005549128734364, 0.023626379547487784, 0.023251334634955326, 0.022874963699774785, 0.02255728628647478, 0.022177119552741032, 0.021801855829347475, 0.021405438065384974, 0.02104194647483401, 0.020733274589195768, 0.020367712040696526, 0.020007303785379918, 0.019635595864709362, 0.019286248648082843, 0.018947059717789216, 0.018602919987797308, 0.018262059485189903, 0.01795444569851419, 0.01761599380790848, 0.01733024923039006, 0.016994817960596865, 0.01666626217673596, 0.016356182684686763, 0.01603823592794234, 0.015720011718545198, 0.015414706100810818, 0.015114404534915778, 0.014849617732096204, 0.014554823494742143, 0.0142912169752586, 0.014005373490940977, 0.013726566121140846, 0.01348449144941939, 0.013214839327554267, 0.013008013747615356, 0.012746495621059695, 0.012495060141951076, 0.012267725372517212, 0.01203259008776407, 0.011818758268309177, 0.011599863478828845, 0.01138989612250381, 0.01124287705235841, 0.011042764788423365, 0.01089402794194162, 0.010710295560643093, 0.010538793482516087, 0.010401876707060376, 0.010249968419159336, 0.010085553272140894, 0.009959846803097085, 0.009843669882965764, 0.009771490170449806, 0.009669743890858352, 0.009621594733493001, 0.009536971657693773, 0.00946571669673098, 0.00942023314510188, 0.009372990392322587, 0.009374138460619902, 0.009348560962633696, 0.009337753593810328, 0.009363127232871036, 0.009378130319955115, 0.009433306447711834, 0.00947528681551894, 0.00953342202489524, 0.009638145078548722, 0.00972389633330795, 0.009835221422750878, 0.009954124387941955, 0.010090247642760472, 0.010231241927037346, 0.010402874667643983, 0.010622104162426864, 0.010822347122372416, 0.011040880093138146, 0.011282144863289887, 0.011536633451536889, 0.011867349867787294, 0.012151846509712379, 0.012458405929078107, 0.012780979328221464, 0.013131626610824473, 0.013527752105311583, 0.013917624395597327, 0.014330081048772692, 0.014783610578289925, 0.015238717508814288, 0.015737258380621767, 0.016236979238149006, 0.016761371175851917, 0.01732059517721434, 0.017892853229595978, 0.018506955951646385, 0.019127523906344823, 0.01977432190782106, 0.020425575298310645, 0.02112763205206869, 0.021851656016032818, 0.022604785766324416, 0.02338358519369493, 0.024195488479070937, 0.02502591917522788, 0.025896419457036912, 0.026780114696747126, 0.027692514824673192, 0.028646056989651187, 0.029615162907064223, 0.030651022371474868, 0.031676251168853684, 0.03273425505304266, 0.03383781351595724, 0.034959723666014526, 0.03609983768116943, 0.03729084706332901, 0.038514644144205336, 0.03975673430662065, 0.04104868790160761, 0.04241754465887242, 0.04376976922303666, 0.045158016615049174, 0.04654904507065893, 0.048013748915438526, 0.0495224904408153, 0.05105527733450994, 0.05262389232381874, 0.05423443970937262, 0.05587501036756796, 0.05754700254155151, 0.059262970286986336, 0.06101640431912859, 0.06284351593298335, 0.0646684112039501, 0.06649030020359777, 0.0684018217144026, 0.07035157279806853, 0.07236242505267236, 0.07438716595120531, 0.07644119300634951, 0.07854923642563652, 0.08069789413908991, 0.08287852491080876, 0.08511050317605003, 0.08740338055544697, 0.08971531504478553, 0.09207012583897003, 0.09444749299526826, 0.09689115735583383, 0.09940011287784765, 0.10192568279347643, 0.10449544275115871, 0.10708133205934116, 0.10974337383442316, 0.11246245681541076, 0.1152089731866804, 0.11799989865075668, 0.12083541140407102, 0.12371567882869094, 0.12663253376658815, 0.12960382187341518, 0.13261983477125244, 0.13566731737655144, 0.138775033529754, 0.141925314838474, 0.1451224893271011, 0.1483644982704109, 0.15169315990631355, 0.15502014555163796, 0.1583884127044175, 0.1618113606801269, 0.1652812193649884, 0.1688004179699642, 0.17236338447934546, 0.1759570188321095, 0.17961521978569336, 0.18327410191836854, 0.1870289669876305, 0.19082679147805007, 0.19470695648956415, 0.1985866721921325, 0.20247903940479034, 0.2064547001845064, 0.2104741149112913, 0.21456106622676907, 0.21866522684378292, 0.22280501762200997, 0.22700064365255393, 0.23124051841643256, 0.23550463024116602, 0.23983500298499383, 0.2442239677611302, 0.24863742306608938, 0.25309419679085815, 0.25754536105874976, 0.2620941084426276, 0.2666736284512567, 0.27130305579410297, 0.27597179828286195, 0.2806939626951836, 0.2854395516992089, 0.2902430486717168, 0.29506606085981585, 0.29992948363486904, 0.3048193881719957, 0.3097638709291498, 0.3147157891426654, 0.31974008376180996, 0.3247999722294844, 0.3298773114007982, 0.3350099556045558, 0.34021672428567723, 0.34541162222317395, 0.35064207329493685, 0.3558574780025508, 0.3611633686970177, 0.3665301022938542, 0.37189340200222903, 0.3772885111443807, 0.3826629262793359, 0.388126271315405, 0.39361269432580487, 0.39913008473268397, 0.40467355114362447, 0.4102388716822916, 0.41583377421949974, 0.4214544990943721, 0.4270978059463589, 0.43276464143118604, 0.4384735902403944, 0.4441831419733799, 0.4499050658874039, 0.45566025687481077, 0.461435698864566, 0.4671902239576883, 0.47300875824203487, 0.4788337661801256, 0.48468374643384887, 0.4905474791506517, 0.49641091940627163, 0.5023020045397166, 0.5082265383065052, 0.5141362235964476, 0.5200568629425928, 0.5259804844941782, 0.5319211136174633, 0.5378643269905298, 0.5438200827545168, 0.5497813655099612, 0.555706258401873, 0.5616809361122224, 0.5676405866117249, 0.573617209765945, 0.579591897057511, 0.5855620612080851, 0.5915310566607626, 0.5975047883594441, 0.6034633711924839, 0.6094165337904032, 0.6153626488563025, 0.6213020613634541, 0.6271836691646355, 0.6331112490164247, 0.639025415828165, 0.6449369897943819, 0.650820692763725, 0.6567021303915521, 0.662553097855637, 0.6683877295202247, 0.6741613429006019, 0.6799653647582165, 0.6857618641672798, 0.69151869626231, 0.6972523947421481, 0.7029106909626288, 0.7086014357124685, 0.7142616799951319, 0.7198934448743599, 0.7254944463178126, 0.731086915244944, 0.7366209628614475, 0.7420800268072205, 0.7475541809301619, 0.7529915321004017, 0.7583726836476176, 0.7637362403513415, 0.7690618807233719, 0.7743433443449699, 0.7795827934189821, 0.7847792953406889, 0.7899318806729261, 0.7950190592637394, 0.8000833724298425, 0.8050995405505313, 0.8100608975035131, 0.8149787584768668, 0.8198511031571976, 0.8246647309450783, 0.8294254834729462, 0.834097104062688, 0.8387534242546213, 0.8433235653955415, 0.8478666508113349, 0.8523485423558683, 0.8567987051403803, 0.861152463653941, 0.8653934510260464, 0.8696295757828028, 0.8737992452932068, 0.8779249014897833, 0.8819568707534038, 0.885900580662216, 0.8898000389766301, 0.893629329014937, 0.8973710395034927, 0.901059784515497, 0.9046533047380263, 0.9081972101181552, 0.9116650488715027, 0.9150697137748457, 0.9183820220037959, 0.921629418091059, 0.9247852781816969, 0.9278632276004795, 0.9308547213759304, 0.9337752489985072, 0.9365899185903064, 0.9393510728452068, 0.9420284343071282, 0.9446323524269621, 0.9471391340243699, 0.9495610962320299, 0.9518975926075862, 0.9541479868012314, 0.9562623522848169, 0.9583449160399159, 0.9603694342738309, 0.9622662859148721, 0.964073872608097, 0.9657487927054823, 0.9673817786511097, 0.9689357097925746, 0.9703805167394512, 0.9717327158700251, 0.9729612982184986, 0.9741313405475308, 0.9752023814808973, 0.9761825664477801, 0.9770673049032409, 0.9778776913442752, 0.9785687429806239, 0.9791756265306752, 0.9796763149330542, 0.9800826975207562, 0.9803541469255644, 0.9805761803709483, 0.9807431257671381, 0.9807652480029957, 0.9806926371813925, 0.9805225034056322, 0.980260104330878, 0.9798888161890629, 0.9794371412851348, 0.9788891243099048, 0.9782288462618955, 0.9774904543034373, 0.9766282572665095, 0.9756997204432175, 0.9746733299967344, 0.9735508788891795, 0.9723301401133235, 0.9710079897232728, 0.9695957855097613, 0.9680879322747289, 0.9664798108846641, 0.9647828142213353, 0.9630355659299845, 0.9611446663160765, 0.9591251304736135, 0.9570574840111724, 0.9548972988745956, 0.9526374886509232, 0.9502949970777494, 0.9478530297898936, 0.9453299756540464, 0.9427166858176702, 0.9400561881780968, 0.9372593918822878, 0.9343642387589028, 0.9313983995546442, 0.9283472208994341, 0.9251870126269548, 0.9219701862411839, 0.9186501056879274, 0.9152671866803033, 0.9118004080290862, 0.9082777552042216, 0.9046431274757684, 0.9008993095071707, 0.8971111496599795, 0.8932439421392323, 0.8893494178525224, 0.8853211586235828, 0.8812124378423926, 0.8770403265356401, 0.8727965231125786, 0.8684479873550428, 0.8640678134317857, 0.8596475738439815, 0.8551231912186256, 0.8505322847995913, 0.8458662782513202, 0.8411466548423543, 0.8363637881327142, 0.8315175137171623, 0.8266098037818974, 0.8216393243945138, 0.8166127663528248, 0.8115245207574379, 0.806384055168185, 0.8011881380123244, 0.7959413258821856, 0.7906381749001392, 0.7852447857651694, 0.7798455668597432, 0.7743956968546527, 0.768935284465951, 0.763384301117052, 0.7577462762651764, 0.7521151016116073, 0.7464406157822744, 0.740763570772704, 0.7350025810086576, 0.7291881907548536, 0.7233584708079565, 0.7174943074963789, 0.711582462343963, 0.7056557389866014, 0.6997315063254704, 0.6937405730595897, 0.6877239070637098, 0.6816809024185394, 0.6756169810935356, 0.6694960134362649, 0.6633942749801979, 0.6572715267245047, 0.651153160912856, 0.6449904787685974, 0.6387740943567287, 0.6325885065111951, 0.6263889778952525, 0.6202195360226813, 0.6139920528625501, 0.6077204255122233, 0.6014863149114945, 0.5952463926814064, 0.58899783796702, 0.58275181551812, 0.576508475630249, 0.5702612704368988, 0.564016337842924, 0.5577937854810643, 0.5515556490771119, 0.5453132232758184, 0.5390937126081231, 0.5328840681669414, 0.5266645965238173, 0.5204816517329202, 0.5143455933390452, 0.5081858289630518, 0.5020440244461045, 0.49587723130536754, 0.48978063064917005, 0.48370961802019996, 0.4776521718632221, 0.4716174128388065, 0.4656055157540976, 0.4596206259448765, 0.45364981413628547, 0.4477216820723226, 0.4418224273943572, 0.4359541058521367, 0.43011673110850906, 0.42431047666083593, 0.4185407231554863, 0.4128064615981442, 0.4071511970643223, 0.4014862824111312, 0.39583278092173785, 0.3902554984114956, 0.38471967513202276, 0.3792225493867809, 0.37377334801306256, 0.3683583188075524, 0.36300029051016164, 0.35768816670229225, 0.35240893638036463, 0.34719359318732446, 0.34205209665907244, 0.3369310719356428, 0.33186184669925145, 0.32681832012756135, 0.3218584518157456, 0.316968486856249, 0.31211262177030974, 0.30731221375087914, 0.3025775992338021, 0.2978890642265755, 0.2932464867713016, 0.2886763214623291, 0.2841647538705934, 0.27968874849475706, 0.2752993093885322, 0.27096774042288957, 0.26669752791425355, 0.2624878702079107, 0.2583688955254903, 0.2542786016032751, 0.2502191071618815, 0.24626151591490258, 0.24236674733424732, 0.23852958651309888, 0.23476278798221883, 0.23106447522499987, 0.2274255772841997, 0.2238518076702475, 0.22038447789980484, 0.21693674573520474, 0.21354900664681545, 0.21023885657069713, 0.20699635592878973, 0.20377794059893947, 0.20067616381947406, 0.19768431897562944, 0.19470740100013084, 0.19179866045350877, 0.18894256744653193, 0.18617163226490444, 0.18347263325923105, 0.1808346231278303, 0.17826358054251196, 0.17575359943970445, 0.173316771789926, 0.170921131256124, 0.16861962418925266, 0.1663825421606883, 0.1642124436491962, 0.16210383042202417, 0.16005451008155305, 0.15807521132388191, 0.15615967395229205, 0.15434291495607133, 0.15254981096986125, 0.15077883012124188, 0.1491205983091238, 0.14752378875884095, 0.14601248040402404, 0.14453463798587174, 0.14312125602620343, 0.1417663138571608, 0.14047225273052655, 0.13923396957600928, 0.13806036350162043, 0.13690259248033074, 0.13585126122285174, 0.13485500493243543, 0.13394745390823645, 0.1330560838506693, 0.1321783491598994, 0.13140337122110782, 0.13068042445367314, 0.13004237957242423, 0.12941795893055838, 0.1288396053554404, 0.12832009359851954, 0.12785100283635822, 0.12742384373124693, 0.12705413425605083, 0.12674411968554367, 0.12646714578632448, 0.12621822564542784, 0.1260359225206503, 0.12589735219820605, 0.12578316459252148, 0.12573203891163906, 0.1257519241270915, 0.12577676968013612, 0.12584218650409593, 0.12595228320318408, 0.12609515453060352, 0.1262668814641354, 0.12648547233033225, 0.12673927907904822, 0.1270049210891769, 0.1273290768380605, 0.12768170476937285, 0.12806744822208208, 0.12848245006494063, 0.12891179306060555, 0.1293845766932011, 0.12992104509184696, 0.13044008793530842, 0.1309855685121165, 0.13154418080338073, 0.1321406673605378, 0.13273199612957454, 0.13337570977925167, 0.1340382461388544, 0.13470025476628483, 0.13540041113388102, 0.13615114044156063, 0.13687685481857817, 0.13761845915155863, 0.13837425847719448, 0.13914456706402015, 0.13989493349196483, 0.14069376924428167, 0.14150143916135885, 0.1423242375040922, 0.1431464140371802, 0.144010719147717, 0.14484140003129398, 0.14567922520888166, 0.14651086441063335, 0.14736105337182254, 0.1482143021652005, 0.14906963325664555, 0.1499260838149316, 0.15075645377488125, 0.1516156319752638, 0.1524921437182767, 0.15334172566486448, 0.15418790118242862, 0.15499201285315314, 0.1558335236860392, 0.15671748899739132, 0.15753581123102733, 0.15834774694120274, 0.15912093504831304, 0.15992113745856074, 0.1607256985307752, 0.16150130358629558, 0.16226548499317528, 0.16301683890221483, 0.16375598008105363, 0.16444812640278594, 0.16516336925926928, 0.165861643224658, 0.16655406492183988, 0.16721570118830853, 0.1678398929088213, 0.1684683046996498, 0.16907692470210497, 0.1697089176102888, 0.1702713111570653, 0.1707940655643053, 0.17132135576103588, 0.17182747811386626, 0.1722850305414819, 0.17275070142542237, 0.17322166126088553, 0.1736350296498786, 0.1740253755096944, 0.17437874656914215, 0.17472325253186122, 0.17507710923445943, 0.17536646637197725, 0.17563189339495303, 0.17582798463633778, 0.17604950739466874, 0.17627561722443674, 0.17643678045145667, 0.1765715114620624, 0.17668072302090732, 0.17676135526858047, 0.17681269468378077, 0.17683853718715872, 0.17683635141778084, 0.1767623810822547, 0.17670901803055683, 0.17667838987518114, 0.17655633266428825, 0.176406632980236, 0.17618420473311888, 0.17598412850876868, 0.1757493707547739, 0.17548830648611424, 0.1751965868289118, 0.1748693054508774, 0.17451755994910007, 0.1741367707199436, 0.17372444728617903, 0.17328232773426167, 0.17283430971902378, 0.17233022074811025, 0.17177522913711912, 0.17121836326306802, 0.17063240372239133, 0.17002144122330656, 0.16937755640884794, 0.16873179620808987, 0.1680285626443087, 0.16729913329967971, 0.16655890658399508, 0.16577527324266375, 0.16491656439419072, 0.1640889888660634, 0.1632335413497958, 0.16237953253810594, 0.16146618038881946, 0.1605062660477543, 0.159546320819904, 0.15856086324327867, 0.15754587082761956, 0.15651133283314655, 0.15546969532835464, 0.15438469246993258, 0.15327726074144987, 0.15216568030339972, 0.1510121970763336, 0.14984672044226585, 0.14865180627841235, 0.1474375860193145, 0.14620687196771925, 0.14495450511302987, 0.14368703574530142, 0.14239798608694526, 0.14109150223905195, 0.13972632766624032, 0.1383913522899145, 0.13706786924565653, 0.13569266064816762, 0.13430206757822805, 0.13287097208720952, 0.1314543423816748, 0.1300454608874401, 0.12859604859173834, 0.12713408441193494, 0.12565816868592616, 0.12417291746491058, 0.12266763587301263, 0.12116194968428291, 0.11964582815836089, 0.11809110482188044, 0.11655969000315299, 0.11501174450812121, 0.11346174725520408, 0.11190295687863318, 0.11033622497477785, 0.10876236916473264, 0.10722763665436887, 0.1056361177212224, 0.10404230568067886, 0.10244334460530549, 0.10084641230626634, 0.09922570512410747, 0.09762931437324622, 0.09603119092116169, 0.09440572770799187, 0.09280938066737746, 0.09125526739875614, 0.08965162698470318, 0.08805073485418871, 0.08641585895064742, 0.08482638589479714, 0.08323498696817155, 0.08165056887967755, 0.08006929724507841, 0.07852325906626206, 0.07694642386758262, 0.07537206964856133, 0.0738101090714494, 0.07225563272541774, 0.07069883030514433, 0.0691619221854308, 0.06764475535998861, 0.06612334128870709, 0.06461181723135996, 0.06310994768981132, 0.06161950007769563, 0.06013820241452346, 0.05867054980479452, 0.0572146790841536, 0.05578829900073358, 0.054355063883487605, 0.052933906566729486, 0.05152917646347742, 0.05012287037426158, 0.04874932611763917, 0.047389918583437794, 0.046022673836581277, 0.04469566721569355, 0.043382805106532196, 0.04208466120483463, 0.04080177299940077, 0.03954488871505217, 0.038292695805076146, 0.03707375856531149, 0.035854370880156916, 0.034653778461463024, 0.03345486583271722, 0.03229456766834117, 0.0311513328877936, 0.030028195661609518, 0.028923933415697052, 0.02781962102720832, 0.026756368718236515, 0.025729635118867084, 0.02470168002048576, 0.02369405091173151, 0.02273316841970704, 0.021763365308306522, 0.02079085718304784, 0.01986866258488992, 0.01896718420763719, 0.01807184018391095, 0.017214074826265382, 0.01642076690965256, 0.015598188714744176, 0.014798774662417233, 0.014010806831835336, 0.01325861892201254, 0.012494488759746007, 0.011790525812730851, 0.01110654763865584, 0.01048567283754216, 0.009836862213323314, 0.009214197970242664, 0.008610646429454756, 0.0080297812751402, 0.007479059678018484, 0.006941929867580929, 0.006402304058449807, 0.005913026145837648, 0.005444324922516296, 0.0049878481471231275, 0.004561252175390935, 0.004162959303034536, 0.003775264253419618, 0.0034079829335592225, 0.003069324005540302, 0.002741461206791723, 0.002448827110358286, 0.0021598916324765314, 0.0018918529417170725, 0.0016987977570327487, 0.0014646702652885081, 0.0012701625841112303, 0.0010791308355423395, 0.0009105791803739909, 0.0007304514184144534, 0.000608851327645782, 0.0005672358206739627, 0.00047458009148253417, 0.00040326815461744095, 0.0003781232204547505, 0.00034396599005681643, 0.000302895603987915, 0.00031265180554849406, 0.00033994436596075043, 0.0004144226336921075, 0.00047168169914395833, 0.0005648509809936523, 0.0006552030724218628, 0.0007633842976901965, 0.0009444449735611051, 0.0010793339704404119, 0.0012288958942878907, 0.0014017101380963536, 0.0015916195068144704, 0.0018369447408753798, 0.0020539661110884327, 0.002321562465586871, 0.0025680716656316365, 0.0028320920633836577, 0.003123544050979398, 0.0034184194924429976, 0.0037883662515741648, 0.004105984842068982, 0.0044409984940630386, 0.004822401406247044, 0.005185226853469411, 0.00559941431685814, 0.005989073093909921, 0.0063949593648205995, 0.0068268913995846595, 0.007260784928088835, 0.007733659228356928, 0.008191604755230937, 0.008663442415889965, 0.00914322948652777, 0.009641141499724342, 0.010201719236588436, 0.010715537975633934, 0.011242736235303185, 0.011806215761898052, 0.01235491333199999, 0.012953385415761624, 0.013521957608213026, 0.014103935367564211, 0.014708738075815436, 0.015313867485566474, 0.015967960522704307, 0.016591439626199186, 0.017227700596862038, 0.01788496676158147, 0.018543542255664153, 0.019229494830511173, 0.01990825819100789, 0.020598317023012225, 0.021288286791951078, 0.022000894981444478, 0.022738930092129895, 0.023468158244492866, 0.024207358491466338, 0.024979341777663824, 0.025734904259206836, 0.026518448054274862, 0.02729292199978199, 0.02807853776349301, 0.028900587104844205, 0.029704351953866885, 0.03053912729349242, 0.03136371068820566, 0.0322005310735536, 0.03305305215417634, 0.03391280197320905, 0.0348058580014286, 0.03568572232292403, 0.036577990894375044, 0.03751888879237057, 0.03843060552213122, 0.039368323446730906, 0.04030579268730183, 0.041257104232905836, 0.04223282654225808, 0.043209578163032995, 0.04419558631549313, 0.04520019651638979, 0.04621799239048901, 0.047239351293658645, 0.0482847285423399, 0.04936269293923129, 0.05043123206239001, 0.05151403968306805, 0.05261248130591067, 0.05372395905897891, 0.05489368801590952, 0.05602926720558396, 0.0571823978426795, 0.05833824333380903, 0.05952807617009213, 0.060728736374360874, 0.061952667904053925, 0.06319328010344855, 0.06448544883619883, 0.06575597289530984, 0.06702302959795092, 0.0683357126416202, 0.06966689115134414, 0.07101820225772493, 0.07238729559102985, 0.07379528099352684, 0.07520170157767077, 0.0766296738595739, 0.07806152721444554, 0.07953567025835621, 0.0810363353106172, 0.08255310760755115, 0.08409252400039308, 0.08569408171540925, 0.08727517324685556, 0.0888465813905465, 0.09048469330699895, 0.0921472909794124, 0.09384448879247863, 0.09555637198075462, 0.097322336644708, 0.09908426360458508, 0.1008751452741408, 0.10266830810815238, 0.10452118730252931, 0.10642659203148712, 0.10833330549866324, 0.11027061747673352, 0.11221835570875818, 0.11422042560558952, 0.11623182134699624, 0.11829800594042474, 0.12038939458141033, 0.12251756549266232, 0.12467711794524952, 0.126869362832943, 0.12909357874290608, 0.13136458075516894, 0.13365435727359493, 0.1359793659038824, 0.13835796151689603, 0.14075244105439064, 0.14317097225917436, 0.14564240899438063, 0.14815112311621503, 0.1506981446271503, 0.15328249569174035, 0.1559046706134307, 0.15856639664079328, 0.16126727613242245, 0.1639801348427675, 0.16676386905555496, 0.16960675188691818, 0.17246577001857488, 0.17536567287763424, 0.1782638826996237, 0.18125193240169965, 0.18431588671177004, 0.18737877128920397, 0.19048432418185157, 0.19359308324348073, 0.1967896890987181, 0.2000466209840463, 0.2033235573724541, 0.20664368789615978, 0.20999576085700086, 0.21340453326507744, 0.21686876798888777, 0.2203628933686973, 0.22390156080323592, 0.22744200774677253, 0.2310755766292513, 0.2347881363757666, 0.2385025118785448, 0.24226223577000436, 0.24606285199474248, 0.24991390336121735, 0.2537928001459814, 0.2577363241275949, 0.261724033617894, 0.26572467753885826, 0.2698050588064468, 0.27393965564226896, 0.2781042359614699, 0.28231264326129885, 0.28656046050211, 0.2908572422248188, 0.29520023461598527, 0.29958397666647124, 0.30401144367468175, 0.3084325829800728, 0.3129534519935388, 0.3175564375413808, 0.322153241057449, 0.3267932030962156, 0.3314453085380798, 0.3361746056429899, 0.34093993977810005, 0.34575073851816995, 0.3506015465504824, 0.3554582612653826, 0.36039282682630747, 0.36536613030015214, 0.3703754152336299, 0.37542208856159076, 0.38052837453542027, 0.38564637242957567, 0.39079587689863043, 0.39598996732350483, 0.4012205102333719, 0.40643702857819847, 0.4117451574565716, 0.4170942088452407, 0.42246490413952636, 0.42786755187709374, 0.4332786690345528, 0.43874678381226856, 0.444274194480959, 0.4497965115133107, 0.4553488592241527, 0.46092471018414005, 0.46653552837343176, 0.47215255655979044, 0.47781993644784754, 0.483511865946904, 0.48920334394883364, 0.4949453940422717, 0.5006822361128827, 0.5064690948797566, 0.5122742685836238, 0.518122227458139, 0.5239592947871373, 0.5297720951064414, 0.5356495789604817, 0.5415408293018953, 0.5474292050305672, 0.5533480405203651, 0.559270595612438, 0.565211150319844, 0.571160610281007, 0.5771470174886654, 0.583108268930064, 0.5890628197104641, 0.5950408105890423, 0.6010236342461656, 0.6069628194759447, 0.6129580003308246, 0.61898465476098, 0.6249725562622241, 0.6309594639133981, 0.6368846497491943, 0.6428735316488244, 0.6488627906186016, 0.6548339615867944, 0.6607960468071076, 0.6667538327025957, 0.6726940364696434, 0.6786166338553229, 0.6845327139695392, 0.6904342659293967, 0.6963098672794117, 0.702180094411595, 0.7079765330111365, 0.7138150987804794, 0.7196294678001015, 0.7254073237511383, 0.7311723044445764, 0.7369104811099361, 0.742619582631573, 0.7482993898945038, 0.7539751142502495, 0.7595898412816521, 0.7651408240666344, 0.7706961140232808, 0.7762157008497697, 0.7816574689566794, 0.787107383084217, 0.7925055350304702, 0.7978728078822594, 0.8031961221991477, 0.8084713388733497, 0.8137042694051804, 0.8188747138934521, 0.8240142835767247, 0.8291036997015281, 0.8341713976201738, 0.8391536845107059, 0.8440541966180338, 0.8489355566996308, 0.8537608110305395, 0.8585339623042946, 0.8632429755006507, 0.8678837827080408, 0.8724742285615394, 0.8770024904311038, 0.8814424446176458, 0.8858460296389443, 0.8901787073035757, 0.8944476785702538, 0.8986474076148449, 0.9027346539004829, 0.9067982777137833, 0.9108173834419019, 0.9147272928402043, 0.9185628579976352, 0.922320499241236, 0.9260046396643982, 0.9295772911109004, 0.9331096128381512, 0.9365604745369437, 0.9399073839198867, 0.9431958837271547, 0.9464301932275531, 0.9495443473975005, 0.9525740461308108, 0.9555164502587481, 0.9583747358808145, 0.9610983537766755, 0.9637871902427557, 0.9663843611219701, 0.9688926114030862, 0.9713046471735872, 0.9736288666727653, 0.9758538239066964, 0.9779850127890618, 0.9799987728683108, 0.9819435127125128, 0.9837958560812522, 0.985545867130001, 0.9871984300000516, 0.9887537264319222, 0.990209938537834, 0.9915609697753834, 0.9928199879708974, 0.9939841080594577, 0.9950420679782146, 0.9959995654302694, 0.9968261186553433, 0.997585351303955, 0.9982624587992256, 0.9988124287986562, 0.9992601606057095, 0.9996156398139411, 0.9998568461010461, 0.999959186512131, 1.0, 0.999935895812694, 0.9997663318451446, 0.9994927677325605, 0.9991075045066522, 0.9986256318124838, 0.9980389419200073, 0.9973860409425063, 0.9965854323850839, 0.9956385716237806, 0.9946393117014037, 0.993535367004085, 0.9923546351050526, 0.9910389403183737, 0.9896071327653674, 0.9880893328302711, 0.9864690892241019, 0.9847307538185116, 0.9829087484216767, 0.9809851926365534, 0.978959288159035, 0.9768323657809993, 0.9746306179042994, 0.9723001791813263, 0.9698386541388645, 0.9673172667041006, 0.9646971125450914, 0.9619866547308297, 0.9591703431048054, 0.9562555013974794, 0.9532483250187513, 0.9501465560651474, 0.9469324397232353, 0.9436462939570543, 0.9402670149314767, 0.9367956274935703, 0.933233159752691, 0.9295883287441264, 0.9258458371684587, 0.9220452747550146, 0.9181250107281957, 0.9141208949917207, 0.910015162845551, 0.9058481526526637, 0.901584081383046, 0.8972553604707664, 0.8928456955114046, 0.8883902849083077, 0.883818239894533, 0.8791223115565672, 0.8744069969502937, 0.8696158168573684, 0.8647496311982279, 0.8598112935032131, 0.8548015327599268, 0.849721836580719, 0.8445736901557948, 0.8393957147606587, 0.8341104273525967, 0.8287171317477681, 0.8233150514991402, 0.8178509048656637, 0.8123397824015646, 0.8067547269552758, 0.8011440006516293, 0.7954437641498355, 0.7896918857923907, 0.7838800479664392, 0.7780300009395617, 0.7721394354621212, 0.7661934902007106, 0.7602027509927148, 0.7541174538465407, 0.7480480072582169, 0.7419526356893204, 0.7357965231769913, 0.7296020286047651, 0.7233990736857916, 0.7171294932381816, 0.7107988859704643, 0.7044713866350142, 0.6981136927901246, 0.6917583238652998, 0.6853417018554817, 0.6788923331629653, 0.6724321514387459, 0.6659513325361912, 0.6594303780208037, 0.6529158578417784, 0.646359460456729, 0.6398161076693949, 0.6332580751654204, 0.6267155263317282, 0.6201305049862991, 0.6135459251328321, 0.6069471031971702, 0.6003447772511404, 0.5937001960351717, 0.587100726549339, 0.5805341949340556, 0.5739303587482555, 0.567331227101589, 0.5607319659436463, 0.5541477586397151, 0.5475841248889307, 0.5410181721911033, 0.5344651347449724, 0.5279284354487925, 0.5214054925790323, 0.5148610222938356, 0.5083795624217763, 0.5019164078661074, 0.4954835966120333, 0.4890610939533553, 0.48265568018946314, 0.47628391948037674, 0.4699390434480297, 0.46362136273874327, 0.4573351593357061, 0.45105803668285305, 0.4448391564855397, 0.438653495341568, 0.4325039623821908, 0.426389412243074, 0.42033273798474846, 0.4142932064827981, 0.4082957230789724, 0.40232167272433467, 0.39641447884472736, 0.39058580201733284, 0.38476482014273167, 0.37899296419350137, 0.3732686640107442, 0.36759835514263617, 0.36198255586497396, 0.35641682098287686, 0.350905170292087, 0.3454274334940663, 0.34002949009027134, 0.3346661609457141, 0.32938347026361753, 0.3241574890838998, 0.3189778848750456, 0.31387030231866775, 0.3088420454354691, 0.30385203337534056, 0.29892480564756624, 0.2940432852397923, 0.2892464122245384, 0.284520172602945, 0.2798518467591498, 0.2752498523321517, 0.27073030306099, 0.26626122996816176, 0.2618557126404794, 0.2575265145410924, 0.25326731038232864, 0.24905428386367146, 0.244939660380451, 0.24090088963910034, 0.23692634591160855, 0.23302342020426575, 0.22918490986964496, 0.22542759266467477, 0.22173894011912726, 0.21812754382194757, 0.2145892378987025, 0.2111135021212406, 0.20772380156497205, 0.20442482735583173, 0.2011801391617719, 0.19801045066476006, 0.1949017579208535, 0.19188406794935364, 0.18895419367154276, 0.1860836528451763, 0.18328841434060894, 0.18057928312522661, 0.1779330083131737, 0.17536873517151028, 0.1728726067241927, 0.1704519395328886, 0.16807503834318085, 0.16580828793274885, 0.16361488621020062, 0.16149337135427505, 0.15944435602961274, 0.15748301528078304, 0.15557644088456912, 0.1537143629756061, 0.15195625941620275, 0.15026836518242087, 0.14863699153149665, 0.14709043972147529, 0.14565345107692074, 0.14423861650924544, 0.14286653791831497, 0.14159505611927437, 0.14039090099775947, 0.13927854608383164, 0.13820435824084185, 0.13718961660795048, 0.1362498593835935, 0.13537519467304912, 0.13455846907894858, 0.13381253238415236, 0.13313351433877227, 0.1325111403058358, 0.13194994541025715, 0.13143566199709972, 0.13099604524220032, 0.1305823279120948, 0.13026182742400083, 0.12999589756275173, 0.12977885928547608, 0.129620990908254, 0.12954310080378692, 0.12948596939743695, 0.12948143200817847, 0.12954002383586158, 0.12963623331132743, 0.1297365716802469, 0.12993794670503345, 0.13018471884391256, 0.13051711354657133, 0.13084719302558642, 0.13122321445121551, 0.13164260578116513, 0.13210491950592443, 0.13256156965324856, 0.13311210983544183, 0.13369995400770418, 0.13432293014600227, 0.1349809411188727, 0.1356769296076621, 0.13640179236604114, 0.13717575445396876, 0.13796239168670502, 0.1387803451824838, 0.13959960406408195, 0.14048023942989885, 0.14142155675512558, 0.14234906920002927, 0.14330267321866091, 0.14424073797519857, 0.14524776083033494, 0.1462722124401277, 0.1473186095931697, 0.14838296600962075, 0.14950081641457194, 0.15059356805868193, 0.15170337400683923, 0.1528289174162198, 0.15396890320449944, 0.15510028730150882, 0.15626810730095905, 0.15747291618054293, 0.15865512620777544, 0.15984625023650412, 0.16103797576442896, 0.16224403690549466, 0.16341518939323182, 0.16463471111744438, 0.16585453579023224, 0.16710140895148248, 0.16831597359936482, 0.16952355358740667, 0.1707366937090752, 0.17194676494659789, 0.17316878222395377, 0.1743677224332777, 0.17551863912015386, 0.176711658422592, 0.17789497858409872, 0.179109516907091, 0.18026605378371297, 0.18140858837316776, 0.1825455695355148, 0.18367064767607122, 0.18474442336068722, 0.18584763158414114, 0.1869268663382063, 0.1879965049886604, 0.1890476041839705, 0.19007511239787123, 0.1910879750429504, 0.19210974748854798, 0.1930772286979481, 0.19402466764256726, 0.1949397138230237, 0.19584607427732076, 0.19672358129049924, 0.1975838296676024, 0.19841935846485342, 0.19921549483651044, 0.20000161447666095, 0.2007611316345999, 0.20149224088565632, 0.20219525357399823, 0.20288700692893738, 0.20353029240078394, 0.20414511179563213, 0.20473089119335544, 0.2052870825264632, 0.20583493316205115, 0.2063276541649374, 0.2067751510523823, 0.2072094789960353, 0.20761189067314992, 0.2079819786598318, 0.20831936215209795, 0.208603837485119, 0.20887728282032336, 0.20911592132862702, 0.20930362546158202, 0.20947431724481477, 0.2096147191992435, 0.2097126025388919, 0.20977479908365196, 0.20979999407591973, 0.20979087948944472, 0.2097868931098189, 0.20970088750909105, 0.20958131920701095, 0.20942466263246423, 0.20923745147435166, 0.20897341414272927, 0.20872225505872122, 0.2084338825814102, 0.20810791472389437, 0.20774596384146685, 0.20735200045301755, 0.2069167416729973, 0.20644573386812115, 0.20597760457089678, 0.20543087867621115, 0.2048179161003608, 0.20420944024843593, 0.2035660492097414, 0.20287265943945185, 0.2021622393908874, 0.2014329247037989, 0.20065111089928783, 0.19983615591281964, 0.19901140660099997, 0.19812815879979329, 0.19719926964392742, 0.19625620879409572, 0.19528175289890976, 0.19429033331163448, 0.1932523594949772, 0.19215349584931055, 0.19106074148643692, 0.18993730900197442, 0.18880492255611148, 0.1876192414838597, 0.18640519872136704, 0.18516457009844373, 0.18389703265400068, 0.182610087758151, 0.1812892339864348, 0.17989719122273834, 0.17853243987024725, 0.17714093466829942, 0.17577412020048927, 0.17432527003868736, 0.1728370834233868, 0.17134806560395915, 0.16983742974870528, 0.1682987201105156, 0.16674750985224618, 0.16514662150758425, 0.16355935459309942, 0.16195154832076342, 0.16037149057595976, 0.15871930617738747, 0.15704419537566458, 0.1553629455411964, 0.1536669465437916, 0.1519196240393101, 0.15020052369790565, 0.14849897404052473, 0.14674643769868073, 0.14498240526125125, 0.1431773716185484, 0.14139592814323673, 0.13960309680232535, 0.13779973751865224, 0.13598668790118004, 0.13419613931474522, 0.13236217557638125, 0.13048298245994552, 0.1286434890127602, 0.12679728133477317, 0.12496635409758665, 0.1231066156715624, 0.12123106189752192, 0.11936754609578597, 0.11749002287036203, 0.11562372612566899, 0.11375573987788648, 0.11193936125023887, 0.1100637153804298, 0.10813913667841861, 0.10627757832563155, 0.10441729340451412, 0.10256163672957395, 0.10070592993245936, 0.09888531946599208, 0.09703379102315428, 0.09518912864441029, 0.09331268767302489, 0.09148794915626712, 0.08967556839848155, 0.08786269474018182, 0.08605763418494554, 0.08428793319508102, 0.08249704179391391, 0.08073018248858853, 0.07896050584804311, 0.0772035463012638, 0.0754551176512073, 0.07372506531925528, 0.07196423989690774, 0.07026696682935929, 0.06858138687285095, 0.0669549864278381, 0.06528907788719418, 0.0636024640577346, 0.06197436739346598, 0.06036113799514948, 0.05875822865084155, 0.057177077583795075, 0.055637757295226194, 0.054086340077768705, 0.052553616668061715, 0.051004000536780496, 0.049514005702091184, 0.04805366163846233, 0.04659765003329235, 0.045160867964582976, 0.04373280602528055, 0.0423369627683305, 0.040994091786860774, 0.039633790817355526, 0.03829579963625682, 0.03695201562079826, 0.03566242203863632, 0.03442515734213218, 0.03317381592042243, 0.03194578213502732, 0.030713528826618795, 0.02953561421944254, 0.02842111618804207, 0.027281778178410567, 0.026167034504120723, 0.025041528725957645, 0.023980023041126647, 0.02295549298261175, 0.02193681300497784, 0.020941563155813574, 0.019990255719822873, 0.01903933710298932, 0.018074626932059957, 0.017177650875035973, 0.016302823493625464, 0.015460552411935616, 0.014629184821630642, 0.013828621184127069, 0.013042515194498528, 0.01227992908367244, 0.011559330102488486, 0.01084112554704473, 0.01019133765014915, 0.009515748328801395, 0.00886634124270018, 0.008202170542922332, 0.007608456002240782, 0.007104214226882038, 0.006546337349876094, 0.006014176754815126, 0.005482703284441215, 0.005003017710676902, 0.004593145126499101, 0.004151992125101274, 0.003735267402552596, 0.0033410019820918984, 0.002971290010699851, 0.0026598969083426543, 0.002330057310274297, 0.0020236928682277164, 0.00171637873963438, 0.0014578226673352744, 0.0012885489844874734, 0.0010611426300678212, 0.0008570300876037024, 0.0006497130857701585, 0.0004928495998430741, 0.00040856729328098113, 0.000283401585934284, 0.0001797730584905948, 9.749758802126913e-05, 3.44660038544797e-05, 4.197885881634408e-05, 1.0489120183507812e-05, 0.0, 1.9180194233986702e-05, 4.676335207512916e-05, 0.0001125542862707372, 0.00017494101527224475, 0.00025594647484835167, 0.0003765587590354814, 0.000489780662078467, 0.0006898698245767532, 0.0008290284800991605, 0.0009883537912181058, 0.0011647570152772872, 0.001361281946719614, 0.0015958591120005788, 0.0018227469486468606, 0.0020662089386406022, 0.0023523216016117167, 0.0026231747815447463, 0.002936815593511414, 0.003235267496643135, 0.00354962844966311, 0.0039347625689561926, 0.00427147240706921, 0.004644182566417567, 0.005011017110407263, 0.0053937842410901405, 0.005820344989177906, 0.00622859531391033, 0.00668325109761534, 0.0071167270714278886, 0.007565365415216367, 0.008039778162116854, 0.008514663385650767, 0.009028573140429635, 0.0095263589342388, 0.010037715411638155, 0.010539518249130655, 0.011078806537813981, 0.011670812148251119, 0.012225406840404952, 0.012792344188531327, 0.013412724255245772, 0.013997607038330926, 0.01457278747668956, 0.015186636212186947, 0.01581134604567682, 0.016501703424697166, 0.017140391495208983, 0.01780067288626159, 0.01846426814353586, 0.019140532385335973, 0.01980722235483121, 0.02051023763063149, 0.02124976578667454, 0.02196990330166155, 0.022701649311186116, 0.023449261080022956, 0.024203036948231716, 0.02498864336332923, 0.025762395085579655, 0.026548448060375488, 0.02734788236785475, 0.02815782866943279, 0.029019401472581023, 0.029848121568502976, 0.030690910035645214, 0.03153337376621614, 0.03240523163342666, 0.033281972221373336, 0.0341799351872309, 0.03509007382948879, 0.036036214126844726, 0.03696813778060645, 0.03792876587344861, 0.038886790182698146, 0.03985967298965005, 0.040837134777270065, 0.04184097242706648, 0.042859126127436496, 0.04389177163579887, 0.04493910904868539, 0.046041058220088873, 0.047113446155455325, 0.04821116115980328, 0.04931782194122394, 0.050442526045288594, 0.051577588790130025, 0.052739399276717655, 0.053932415025291086, 0.05512824552132044, 0.05634302348240666, 0.05757433893812523, 0.058827827022483785, 0.06011861007443581, 0.06140883934539906, 0.06272001468847581, 0.06401517629321647, 0.06537350719076061, 0.06678399347358159, 0.06817777320960933, 0.06956009289815702, 0.07100340696737473, 0.07246790151922794, 0.0739765964411063, 0.0754824323933049, 0.07701377092805167, 0.07856827524757051, 0.08014785591615509, 0.08172857656656603, 0.08336257857895077, 0.085050953139018, 0.08673168255578236, 0.08844019090155768, 0.09014928561584763, 0.09191786552312896, 0.09373742720029357, 0.09555818994016099, 0.09740874642543623, 0.09929714939885256, 0.1012074372667371, 0.10312410799120798, 0.10510058764359945, 0.10710768437715466, 0.1091209756526607, 0.11119409311825718, 0.11333708058575451, 0.11546758676400529, 0.11763246259962629, 0.11980576966475577, 0.12204364992324973, 0.12433843331123429, 0.12664164313594356, 0.12898105249219444, 0.13134544348258595, 0.13375963309671074, 0.13620902215393438, 0.13869673710970454, 0.1412216547686296, 0.14375663218828097, 0.14636059138836433, 0.14897956716439534, 0.15166042313161276, 0.1543779465928241, 0.1571456121375549, 0.15993680138827301, 0.1627531315988146, 0.16562496533902898, 0.16853602182851826, 0.17151301354111806, 0.1745005366914479, 0.17752745474161172, 0.18059934733610966, 0.18371331217372916, 0.18686308597200416, 0.19006241334749266, 0.19326926588919713, 0.19655732591401903, 0.19988584823614355, 0.20324563191997322, 0.20665745219744652, 0.21010257272885305, 0.21359766959829626, 0.21713394354936688, 0.22069953051522345, 0.2243205493393027, 0.22797385147401822, 0.2316787534094788, 0.23542485609403127, 0.2392367142954739, 0.24306275881199355, 0.24688257841163816, 0.2508008863692382, 0.25475923588781585, 0.25878603287723, 0.2628215359091447, 0.26686330851877305, 0.2709874164473174, 0.2751512528756442, 0.2793824097986755, 0.28362234278397563, 0.2878849896844591, 0.2922095113420486, 0.2965736073616069, 0.30095145511098603, 0.305397268478029, 0.30991505462777524, 0.31443118368142914, 0.3189863804793897, 0.3235558220755272, 0.3281907413818159, 0.3328516025949622, 0.33755985402048877, 0.3423030070333367, 0.34708137514219833, 0.35189322655692007, 0.3567222600803515, 0.36160342136822116, 0.3665165345665801, 0.37147017523879783, 0.3764448457918556, 0.381398162521726, 0.3864411766806403, 0.3915111755253497, 0.3965996047292048, 0.40172385428343993, 0.4068929067332362, 0.41206553338109203, 0.41726399698703975, 0.4224581733398507, 0.42770998215702855, 0.4330088170765551, 0.43830103374676593, 0.4436155565520572, 0.44889197667081127, 0.4542560278617, 0.45963509873191244, 0.46503145444673977, 0.47044304164842826, 0.47588206339612277, 0.4813206177020538, 0.4867417400359497, 0.49221125136127947, 0.49769111669480826, 0.5031652521245288, 0.5086655532529922, 0.5141762098852589, 0.5196896456394539, 0.525208814411602, 0.5307065493890962, 0.5362377095804536, 0.5417990559100191, 0.5473284831335938, 0.5528591660055238, 0.5583553434438508, 0.5638893310223703, 0.5693850795701674, 0.5749137844037528, 0.5804342993345201, 0.585950318377261, 0.5914514486469025, 0.5969298960868772, 0.6024105051143661, 0.6078778156724801, 0.613354498844272, 0.6187891076474724, 0.6241682040041734, 0.6295762182801536, 0.6349640904417231, 0.6403371798954866, 0.645680779642479, 0.6509475428617028, 0.6562506143494004, 0.6615251405410112, 0.666811258175114, 0.6720209141442097, 0.6771881413736229, 0.6823401645780286, 0.6874597057297382, 0.6924936247108429, 0.6975509096063773, 0.7025554712216366, 0.7075349936825195, 0.7124726060914184, 0.7173590678821615, 0.7222111007935155, 0.7270050238279913, 0.7317670556602537, 0.7364809919521854, 0.7411368685562971, 0.7457526977770266, 0.7503494425011288, 0.7548566095827887, 0.7593117209210812, 0.7636903365776224, 0.7680400871274743, 0.7722977610184044, 0.7765356969487316, 0.7807118102939731, 0.7848456615879649, 0.788892712518342, 0.7928902754609878, 0.7968072000318912, 0.8006589447909963, 0.8043923340737424, 0.8081163561333029, 0.8117972144595109, 0.8153727975079244, 0.8188763032256866, 0.8222797062744646, 0.8256390649232221, 0.8288984105520556, 0.8321058684774723, 0.8352332762127314, 0.8382837463993579, 0.8412483512867974, 0.8441161249190703, 0.8469175505149363, 0.8496343708829356, 0.8522613740861283, 0.8548073436610065, 0.857274543425277, 0.859644541692087, 0.8619168370197382, 0.8641110404169556, 0.8662149896580097, 0.8682113198116029, 0.8701347158165995, 0.8719801487534936, 0.8737143749349549, 0.8753549940402268, 0.8769282003981296, 0.8783761293197515, 0.8796812590583679, 0.880946208951528, 0.882112625242301, 0.8832153539547831, 0.8841791388165442, 0.8850401314554364, 0.8858085747724039, 0.8864778046223182, 0.8870018368588659, 0.8874768522675675, 0.8878928189047495, 0.8881557399757757, 0.8883177996541474, 0.8883580869448295, 0.8883197912627107, 0.8881943520479603, 0.887947598460108, 0.8875983470713381, 0.8871156435925857, 0.886564659103771, 0.8859293935498406, 0.8851664174724739, 0.8843001062404773, 0.8833355719446361, 0.8822619437230443, 0.8810686846345211, 0.8797912382209402, 0.8784099986041727, 0.8769124110778044, 0.8753259767192667, 0.873656972573423, 0.8718608839435439, 0.8699631234988577, 0.867928743508996, 0.8658329312033058, 0.86363053776212, 0.8613303873064526, 0.8589285904745221, 0.8564354380143189, 0.8538311942695234, 0.8511195842565321, 0.8483189282056217, 0.8454200215621988, 0.8424581652156745, 0.8393605745257149, 0.8361151053155611, 0.8328366164784003, 0.8294620471264216