0.0743590359527829, 0.07255079084741617, 0.07072463434896123, 0.06905397945306138, 0.0674592164844172, 0.06586821628403282, 0.06431154987389616, 0.06283627942634071, 0.06132674281509162, 0.05978563709496004, 0.05832712523546506, 0.056882753402444794, 0.05538285225436447, 0.053969751690621064, 0.05268218635706046, 0.051264717102713686, 0.0498590961056218, 0.04835984198446172, 0.04698873900290541, 0.04568633339924696, 0.04431594167006444, 0.04295471256839613, 0.04154757569971875, 0.040212682020480325, 0.03894657826185783, 0.03761946524943848, 0.036305125916915926, 0.03501332202199777, 0.03372501706779448, 0.03244252487000872, 0.031186056109645737, 0.029945318020241196, 0.0286933447547118, 0.02748973385726362, 0.026262487142078985, 0.02509759046917795, 0.02394867223707892, 0.022795406000618933, 0.021684712900522176, 0.020613726393961657, 0.01953783167362718, 0.01848358409574294, 0.017510273155147874, 0.016494413497705394, 0.015521254262818748, 0.014558333258778046, 0.013624104651244242, 0.012651056365990619, 0.01178328885616556, 0.010959455436752943, 0.01014110597032884, 0.00935082053032484, 0.008635308232820335, 0.007897004190515802, 0.007095653097405749, 0.006434186543698091, 0.005800029179901392, 0.005215706018696709, 0.004636357198891753, 0.004039099602462178, 0.0035292382014283264, 0.0030491933476193733, 0.0027414643265947277, 0.0023060916411965, 0.0018189998480851093, 0.0014761092128550506, 0.001168071799927205, 0.0008770429291989816, 0.0006428698180778618, 0.00043201286803259866, 0.0002713680287696278, 0.00014709139363781632, 4.766276666315939e-05, 0.0, 1.7963501459525445e-05, 4.348441641192523e-05, 0.0001100702859076965, 0.00023977088370826763, 0.00038731757035623173, 0.0006156094307572855, 0.0008465051902581657, 0.0011240343434066418, 0.0014359963225394222, 0.0018087175026471822, 0.0021724916040918524, 0.002645419407807326, 0.003162413130288899, 0.003792009152891635, 0.0043911332231901384, 0.00503446390605537, 0.00573531503017725, 0.006486685803137873, 0.00720895961344323, 0.008072595291620516, 0.009032643829408122, 0.009985522931523784, 0.010990448657466931, 0.012109503183566898, 0.013212419997271407, 0.014329438746985695, 0.015552187164119232, 0.016829844906388808, 0.018135228765739943, 0.01952770999552812, 0.02103964655982462, 0.02253439251837447, 0.024089024659938296, 0.02560216713220599, 0.027289847519727958, 0.029010689193889917, 0.03081151958994783, 0.03275704026571724, 0.03465861447297064, 0.03662269986582505, 0.038597166845792064, 0.040693390192789315, 0.04288047451522112, 0.04509361883095908, 0.04736976186951739, 0.04974301014605912, 0.052141668609874806, 0.054516789564254736, 0.057058025593026425, 0.05965986358135933, 0.06237838574836516, 0.06509648766727567, 0.06784022326503968, 0.07069468151346239, 0.07361262067308937, 0.07673282763535808, 0.07976126580050812, 0.08284036767177413, 0.08601503676858684, 0.08925902361964501, 0.09251643304635174, 0.09590453558382955, 0.09931128942882612, 0.10283487520928788, 0.10642077046525132, 0.11017087880279673, 0.11386966753015519, 0.11755131057835244, 0.1213983460197854, 0.125308350437612, 0.12926302936610487, 0.13330173822189784, 0.13747961147335752, 0.141633279111419, 0.14585377764334168, 0.15013744797473555, 0.15449026910656688, 0.15890805807812958, 0.1633903074856879, 0.16793651663211553, 0.17248466654816452, 0.1771650840770577, 0.18189221397281122, 0.18669221409275383, 0.1915504598817776, 0.19650997884027369, 0.20147908583878027, 0.20647469544667382, 0.21156817616797147, 0.2167189144061301, 0.2219388716820816, 0.22720149078265076, 0.2325916333865542, 0.23795827128722458, 0.2433844600111282, 0.24874594795476485, 0.2543032164336784, 0.25995884928871926, 0.26560808214333465, 0.2713089156249043, 0.27699298903279673, 0.28280348783257714, 0.28881651340145, 0.29469823078963153, 0.30063382851959375, 0.3065170373252299, 0.31256864932173584, 0.3186142257441589, 0.3247577831334715, 0.3309404232513565, 0.337131034547541, 0.3433945811195935, 0.3497095303107825, 0.35604280507473934, 0.362412116062901, 0.3688905911559387, 0.3753204710290196, 0.38181282943568423, 0.38831384331564117, 0.39485113756411894, 0.4013215414292283, 0.40793928998095913, 0.41469964193433667, 0.4213532884964172, 0.428037639283688, 0.4346032097830242, 0.4413621948624014, 0.4481936221263042, 0.4549792440942607, 0.46178391978936245, 0.46860648276047795, 0.4754457283753268, 0.48225735116991164, 0.4891316541596775, 0.4960164065096135, 0.5029629164507045, 0.5098589301820979, 0.5167221053886926, 0.5236424231103884, 0.5305673610754167, 0.5375879534954106, 0.5445066743014428, 0.5513790289026007, 0.5583141084587118, 0.5652480242830743, 0.5721207563863224, 0.579055008529913, 0.58600469217564, 0.5929163627841681, 0.5998179445588124, 0.6066864738947214, 0.6135662818246422, 0.620522707493639, 0.6273581890024563, 0.6341804890692437, 0.6409290171300722, 0.6477259705340938, 0.6545617263452417, 0.6613039526250298, 0.6680238812239097, 0.6746918003597953, 0.6813646054303054, 0.6880383910731783, 0.6946460845184936, 0.7012224131961108, 0.7077224264804647, 0.7142358564022394, 0.7207099693960486, 0.7271433399706443, 0.7335345313513331, 0.7399436192681667, 0.7462383268597365, 0.7524468817762596, 0.7586589002865545, 0.7648215532402072, 0.7709887082601916, 0.7770411290757148, 0.7829782066525719, 0.7889353780210051, 0.7948343879890786, 0.8005939707116214, 0.8063828971752812, 0.8121544977622469, 0.8178034423109224, 0.8233871769492733, 0.8288860179271408, 0.8343379680732292, 0.8398245317445784, 0.8451221920708187, 0.8503534871868041, 0.8554825769329852, 0.8605794997615284, 0.8655747251315713, 0.870525641201512, 0.8753980651571106, 0.8802215737655835, 0.8849295796631769, 0.8895942068398398, 0.8941355601842682, 0.8985959342872822, 0.9030260113103133, 0.9073130585224319, 0.9114190209673625, 0.9155514033223205, 0.91959210505792, 0.9235557107313866, 0.9274087204610342, 0.9313008051170286, 0.9349497891396851, 0.9385112102958474, 0.9419154741123565, 0.9453047227277667, 0.9486526793461308, 0.9518406634031269, 0.9549332689983208, 0.9579015354121332, 0.9608031629091061, 0.9636197211291408, 0.966317746257296, 0.9689147257616556, 0.9714037370849016, 0.9737971588828632, 0.9761947387682764, 0.9783670055122541, 0.9804407968742963, 0.9824025108898196, 0.9842771685333466, 0.9859446296635637, 0.9876265200358584, 0.9891984933950382, 0.9906977375250504, 0.9920460210489731, 0.9932964778413625, 0.994429435868, 0.9954557940284902, 0.996470857270561, 0.9972718391449706, 0.9979469293571055, 0.9985477620718455, 0.9990877414598257, 0.9994750545887152, 0.999760483263195, 0.9999159361909439, 1.0, 0.9999151672924561, 0.9997989590584625, 0.9995752106516568, 0.9993585486992992, 0.9989077590793272, 0.9982967215071538, 0.9976561543201191, 0.9969133180296395, 0.9961764944140963, 0.9952174025481161, 0.994093308875064, 0.9929545306173727, 0.9917174167383782, 0.9903642275574334, 0.988934978597164, 0.9873502154524336, 0.9857352318409693, 0.9840219495020532, 0.9822764990331683, 0.980363015832532, 0.9783624388529546, 0.9762691571214622, 0.9740877852683721, 0.9718223965128576, 0.9694674930180444, 0.9670647133033785, 0.9645366692451162, 0.9619281625347614, 0.9592831539338605, 0.9565110404833799, 0.9536330340260003, 0.9507153129410421, 0.9477223736909591, 0.9446861956600088, 0.9415426455397866, 0.9383140532768289, 0.9350342629741855, 0.9316863038066526, 0.9283054270404838, 0.92482114633702, 0.9212380772843495, 0.9176360006958644, 0.9139726268502166, 0.9101327915321618, 0.9063668113206497, 0.9026520477273561, 0.8987492178702458, 0.8947955592886224, 0.8907465737563954, 0.8867020586047034, 0.8826030110132914, 0.878464630194987, 0.8742817409485363, 0.8700626305292654, 0.8657963330797599, 0.8615783551914779, 0.8572275823504468, 0.8528479013678334, 0.8483852779411996, 0.8439588706861088, 0.8394708574645167, 0.8349951966999086, 0.8304938858927902, 0.8259876707938308, 0.8214395645873737, 0.8168336373878551, 0.8122569846745845, 0.8076643734322798, 0.8031596893934555, 0.7985294059676765, 0.7938804773038974, 0.7892470487347009, 0.7846124399499886, 0.7799106695588314, 0.7752873745003873, 0.7706058461041959, 0.7659927054707605, 0.7613811340682394, 0.7568446097414991, 0.7522353186186242, 0.747670233284357, 0.7430858389624185, 0.7385204062911247, 0.7339571217384088, 0.7294369013232482, 0.7249211537117553, 0.7204509837248044, 0.7160064197235261, 0.7115310132498914, 0.7071510180975156, 0.7028761683356749, 0.6985453280699504, 0.6942517491517631, 0.6900062752262524, 0.685790903615124, 0.6815751052827532, 0.6774520053492379, 0.6733722322940502, 0.6693223110375077, 0.6653368100751939, 0.6613901342044711, 0.6575038116937502, 0.6536687797999523, 0.6499084434915305, 0.6461788278356303, 0.6424579354327262, 0.6388519538400239, 0.6353041791887436, 0.6319364435502383, 0.6284954273566713, 0.62504473131681, 0.6217551003953458, 0.6185326833201793, 0.6153665911933407, 0.6122843611020549, 0.6092389353705029, 0.6063036535936652, 0.6034398346387159, 0.6007505430166676, 0.5980213901825765, 0.5953861133349396, 0.5928190465957834, 0.5903352693931717, 0.5877968104103921, 0.5854985035238892, 0.5833940507545728, 0.5812365234748725, 0.5791656608260001, 0.5771234661186054, 0.5752346753277082, 0.5735198347491043, 0.571790173056863, 0.5701520392662415, 0.5685962817350061, 0.5671426286677563, 0.5657741409486179, 0.56450411616099, 0.563325494330068, 0.562170861550003, 0.5611843683555019, 0.5602677567643304, 0.5594610238799094, 0.5587430027409336, 0.5581205659548579, 0.5575812501530333, 0.557209756241196, 0.5568429387077694, 0.5565720426129238, 0.5563597640008192, 0.5562842100158067, 0.5562305915279381, 0.5563492603363909, 0.5565564107584061, 0.556849351469498, 0.5572348934470127, 0.5578079965573169, 0.5583594307436143, 0.5590055904864947, 0.5597548106933438, 0.5605865871619694, 0.5614986559347181, 0.5625162390105503, 0.5636238528435914, 0.5647960600277769, 0.5660843502131772, 0.5673695621664205, 0.5688407179111861, 0.5703916114778002, 0.5720591176926271, 0.5737645743240045, 0.5756467033885115, 0.5775020320221818, 0.5794425637726947, 0.5814267157919248, 0.5835379651832397, 0.585665972222385, 0.587940377235763, 0.5902872235008806, 0.5927796072339613, 0.5952597277455433, 0.5977770849828631, 0.600408615843379, 0.6031091174875982, 0.6058342735657553, 0.6086743728776041, 0.6115587093431182, 0.6145255201557948, 0.6175518942153585, 0.6206183680870736, 0.6237630982372923, 0.6270153850173767, 0.6302629392214781, 0.6335664278192511, 0.6369641699243294, 0.6403694428569333, 0.6438524406779523, 0.6473587928197413, 0.6508417578593, 0.6544561308819251, 0.658112459133862, 0.6617907693291528, 0.6655287520253487, 0.6692691511962872, 0.6730824410140608, 0.6769270791830618, 0.6808232972728897, 0.6847239313352128, 0.6886160880667513, 0.6925765829689268, 0.6965600520433738, 0.7005681258898622, 0.704592754113143, 0.7086267797256539, 0.7126881841280887, 0.7167643701359069, 0.7208536905883163, 0.7249544565865859, 0.7290095727270309, 0.7331350218915109, 0.737263540684263, 0.7413876129312672, 0.7455188817452539, 0.7496700990256306, 0.7537939626962142, 0.7579143656922549, 0.7620049062214515, 0.7661160996311657, 0.7701831770793098, 0.7742764457627748, 0.778354212213283, 0.7824304217640827, 0.7864708770109673, 0.7905752811150075, 0.7945653192559047, 0.7985374863096304, 0.8024340092802056, 0.8063702992899525, 0.8103155319016494, 0.8141894650489871, 0.8180340098982053, 0.8217886925737501, 0.8255758151025913, 0.8292628064881361, 0.8329790706154396, 0.8366504198369775, 0.8403128166077509, 0.8438867481509243, 0.8474363215042117, 0.8509143246497911, 0.854344792670674, 0.8577415038468302, 0.8610701748912442, 0.8642151698225841, 0.8674561084234466, 0.8706349642224679, 0.8738189099713489, 0.8768634487547745, 0.8798017978710726, 0.8827307937200589, 0.8855946016305428, 0.8884261740879142, 0.8911526448272534, 0.8938253968321231, 0.8964170421667095, 0.898940932160476, 0.9013188919590047, 0.9037132175707311, 0.9061517431866916, 0.9083788316113626, 0.9105357840965455, 0.9125564429191915, 0.9145767116043859, 0.9165618981440481, 0.9184196687758048, 0.9202002135287951, 0.9219147759604465, 0.9235361982739648, 0.9250319614985604, 0.9264992184274765, 0.9278825125484705, 0.9290983379793162, 0.9303228745411449, 0.9314851809775675, 0.9325266689672846, 0.9334803014780219, 0.9342599002503194, 0.9350485568876822, 0.9358150989863167, 0.9364097018397525, 0.9369165689828126, 0.9373940428845222, 0.9377177485823696, 0.9377906123400058, 0.9379653219270951, 0.9380449862727295, 0.9381074598709556, 0.9379900712956267, 0.9378214511062647, 0.9375231939390987, 0.9371390589044447, 0.9366012034784453, 0.9360534248002411, 0.93539103610693, 0.93466691835311, 0.9338525100622175, 0.9330192925331373, 0.9320175240634837, 0.9308884902387513, 0.9297238688950323, 0.9284728964180634, 0.9271669036335506, 0.9257410639935827, 0.9241246925870928, 0.9225471027582651, 0.9208814005395313, 0.9192365889810509, 0.9173850086972581, 0.9155013503714946, 0.9134878208717412, 0.9113993828027028, 0.9091346212320081, 0.9069096021688772, 0.9046076710507327, 0.9022235117580791, 0.8997619754835671, 0.897162720812986, 0.8945577489515535, 0.8919462355857656, 0.8891794104403206, 0.8863425591715981, 0.8835135861055656, 0.8805299935973083, 0.8774161085245155, 0.87431630502934, 0.8711511273409613, 0.8680109952575228, 0.8647074496977011, 0.861214965160065, 0.8578153676961913, 0.8543529024914656, 0.8509309078833511, 0.8473353117805847, 0.843589470864079, 0.8399036020207052, 0.8361622729529183, 0.8323488577729546, 0.8285043963165782, 0.8245811369646856, 0.82063982759234, 0.8166495616608977, 0.81267387603284, 0.8085838995045705, 0.8045773249004158, 0.8003938577867428, 0.7961803735150679, 0.791888050497789, 0.7876220812204433, 0.7833556835844423, 0.7790246148671227, 0.7746664737642591, 0.770193075750056, 0.7657952092950389, 0.7613162486993283, 0.7568693284308721, 0.7523945050418215, 0.7479340494797484, 0.7434051231011178, 0.7388479051809707, 0.7342837438258711, 0.7297034248433899, 0.7250410225577671, 0.7204421581592619, 0.7158161841971592, 0.7111914662533627, 0.7065555601771557, 0.7019659548958628, 0.6973069379181602, 0.6925751817434136, 0.6879225561154524, 0.6832668037013245, 0.6787513893151073, 0.6740773013571545, 0.6692814048933368, 0.6646455662756627, 0.6600140401391822, 0.6554224699425151, 0.6508006385232801, 0.6462240674638879, 0.6416221422694197, 0.6370361936824024, 0.6324180276070367, 0.6278733392843104, 0.6233295931758275, 0.6188209462885415, 0.6143306180106932, 0.6098785552147161, 0.6054269471198158, 0.6010297661510925, 0.5966227905136251, 0.5922435603474354, 0.5878837381316516, 0.5835638439639905, 0.5793384632119172, 0.5750712078001667, 0.5707225426658714, 0.5665414660206376, 0.5623902329071743, 0.5583164551426015, 0.5542234068297417, 0.5501146763622116, 0.5461023396749529, 0.5421254135115222, 0.5381297852895911, 0.5342343795898247, 0.5303809858628791, 0.5265580174895353, 0.5227741292598881, 0.519042848188262, 0.5153391391760016, 0.5116878243576898, 0.5080701445231363, 0.504497814840621, 0.5010299513260704, 0.49754289756458053, 0.49413711327594717, 0.490747260360691, 0.48740980929137556, 0.4840169594459926, 0.48079755682626263, 0.4776119213607171, 0.47448705641389705, 0.47140916783426173, 0.46839749080719817, 0.46541347296286617, 0.4625441547493622, 0.4596525675378498, 0.4568154484631771, 0.4538941530264194, 0.45118283234408946, 0.4485545199776524, 0.4459316622980143, 0.44335872177406216, 0.44080225560448505, 0.43833453740830625, 0.43606038283477083, 0.43367282083437736, 0.4313431924729238, 0.42896603405667255, 0.42676293403825094, 0.4246525248182368, 0.4225433696797171, 0.4204864750430584, 0.4184722892860643, 0.41652010292863606, 0.41455713751955164, 0.41271393519082844, 0.4109174405076068, 0.40914936814761554, 0.4074490538788196, 0.4058377499838698, 0.4042239715715737, 0.4026586538877525, 0.4011598388624338, 0.39968783783150086, 0.39830092272624945, 0.3969199603112199, 0.3955879589810465, 0.39422091887707883, 0.3929945369798315, 0.39188968842319283, 0.39073610858249275, 0.3896281195635611, 0.3885001656503516, 0.3874886800097326, 0.386574810120912, 0.38563390649940904, 0.3847346700748126, 0.3837961941703475, 0.3829876383893874, 0.3822812030564021, 0.3815327448426485, 0.3808219858124849, 0.38003112075751355, 0.3794078095624923, 0.37885599114292107, 0.37828414109160813, 0.37774312755452294, 0.3772447490873184, 0.37676228732007716, 0.37634968518674394, 0.3759211730531101, 0.37552328325026485, 0.37514568860620034, 0.37480693579686464, 0.3745227404215893, 0.37423326902722337, 0.3739703057716617, 0.37372652898915126, 0.3735138866998592, 0.3733301537444432, 0.37316122481034547, 0.3730133731459991, 0.37278713104647165, 0.3726908059643904, 0.37260700481499437, 0.3725355506718908, 0.3724761862910221, 0.3725116371511506, 0.37246489898051477, 0.37236298772279797, 0.37235518021603825, 0.3723566784619046, 0.3723977158136108, 0.3724123156152079, 0.37234397322238566, 0.3723880483470458, 0.3724345420845231, 0.3724710292527172, 0.3725234684276563, 0.3725493422943985, 0.3726072712460426, 0.37266419511803717, 0.37281531199324636, 0.3728576036196955, 0.3728635336815954, 0.3729169930484651, 0.3729695888954308, 0.37308210095911454, 0.37312296236350306, 0.3730688238455712, 0.37312122530223696, 0.3731662294164736, 0.3731696575685322, 0.37320308320385925, 0.37339526681982843, 0.3733862810207941, 0.373375978166331, 0.373273524767725, 0.37326711574320137, 0.3732098894273542, 0.3731863264898149, 0.37314859414799745, 0.37306572140818717, 0.37300288197504666, 0.3730003408426986, 0.3728945370483126, 0.37277633412889405, 0.3726388442715968, 0.3724944574987169, 0.37230448642012465, 0.37213378004171643, 0.3719454304764867, 0.37168996612469646, 0.37147178930711416, 0.3713001157590938, 0.3710311823362814, 0.37074511442955255, 0.37047218688599814, 0.3701465366774989, 0.36969338227861814, 0.369347570439996, 0.3689775717091868, 0.368599140147838, 0.3681798861163323, 0.3678182425709192, 0.36734423901638974, 0.36685253235039583, 0.3662748653331647, 0.36575462575659795, 0.36517133947868974, 0.36461018613345364, 0.3640240063929771, 0.36337632731271635, 0.36274603403121397, 0.36218825894944917, 0.3614942953232774, 0.36078109078393267, 0.3600298807006911, 0.35927965082700153, 0.35852066296185553, 0.35772672651460663, 0.3569123877461295, 0.356034499164179, 0.35518458773874884, 0.35432093692535316, 0.3534242820237922, 0.3525058804311991, 0.3515044687070959, 0.3505511282018167, 0.3496318114378232, 0.34862299407044045, 0.3475944917411355, 0.34653417975643114, 0.34546841661445354, 0.34445053431003775, 0.3433369498854591, 0.3422080167991106, 0.340934323097389, 0.3397904526580398, 0.338592784104568, 0.33740774928904294, 0.3361999182355949, 0.3349857995872546, 0.333733726511979, 0.33252436873612823, 0.33122766866019093, 0.3298894128525215, 0.32856865387407225, 0.3272328604150369, 0.3259563135814854, 0.32458247659346245, 0.32310989454366607, 0.3217281136096397, 0.3203315678282292, 0.318994794421699, 0.31756148959311153, 0.3161134649493903, 0.3146638483405358, 0.3132054656403378, 0.31164931130523593, 0.3101853197101884, 0.3087482654449375, 0.3072541415312858, 0.3057512065585705, 0.30428312034140353, 0.30275889358146946, 0.3012269574837301, 0.2996940811077417, 0.29815689256158184, 0.2965757272567811, 0.2950359724703358, 0.29343534588765907, 0.29189230860646054, 0.2903420826465065, 0.2888534685427456, 0.2872836150671705, 0.28569200633692576, 0.28412481482262064, 0.2825569747999791, 0.2809644604582023, 0.2794001729395351, 0.27781403992045495, 0.27625259923267415, 0.2746911033350186, 0.27312425838347815, 0.2715659552493071, 0.27000660574851526, 0.26845352243382686, 0.26690379530021824, 0.2652843103321581, 0.26375272761712926, 0.26225621675603655, 0.2607240222355673, 0.25919725175499186, 0.25771354606827984, 0.256195088043273, 0.254689236330087, 0.25318974205870365, 0.2517005345107597, 0.2502403366391887, 0.24877017052954992, 0.24727522005992605, 0.24583410328398422, 0.24440331212427274, 0.2430325222728022, 0.24161751214524152, 0.24022305354502865, 0.2388360671765203, 0.23746386345613277, 0.23607569537454176, 0.23473701935401917, 0.23335000875724765, 0.23204582905332952, 0.2307520587919697, 0.22947874189653064, 0.22820699827781885, 0.22698840727860448, 0.22573847613577844, 0.2245049900534268, 0.22333114576334812, 0.22212549926877795, 0.22085913099857724, 0.21970189488868833, 0.2185590367391694, 0.21735723398284676, 0.21625392906593371, 0.21520836931559645, 0.2141233990482694, 0.21305443222701048, 0.21205413818812835, 0.21101164607961903, 0.20993063565894562, 0.2089352137866849, 0.20795610556947186, 0.2070151678701779, 0.2060668901861101, 0.20509082924853156, 0.2041851241256574, 0.20329521686743265, 0.20247684132696672, 0.2016125619374948, 0.20066967237712538, 0.1998572453188496, 0.19905864135914927, 0.1983697854047698, 0.19758837710953955, 0.19673221749646183, 0.19600363264658885, 0.19528943239887234, 0.19460228918743902, 0.19391633261868144, 0.193224807680793, 0.19257356946093845, 0.19193717829397322, 0.1913373249319479, 0.19072832260332753, 0.19015721757053144, 0.1895780523417573, 0.18901610084526155, 0.1884771342891171, 0.18794769460732075, 0.18744699059090436, 0.18694844173756467, 0.18646619299054365, 0.18601205336429394, 0.1855593835275802, 0.18506998409783862, 0.18465451556115875, 0.18425062539502846, 0.183895158929259, 0.18350952378876162, 0.18306034246936143, 0.1827106936705702, 0.18236919873213553, 0.18201144127657976, 0.18168987582412893, 0.1814093026862884, 0.1810979765760153, 0.1807960447101324, 0.18046331137489885, 0.18018457799670623, 0.1799522866445961, 0.17968144488962018, 0.17941932582442058, 0.17923936507580687, 0.17898417740763417, 0.17865145612764474, 0.17842989202792842, 0.17821305996222234, 0.17808693847815207, 0.17786819221762312, 0.17763077979958553, 0.1774326432389668, 0.17724017930674832, 0.1770927940124826, 0.17690489479292273, 0.17665556265481505, 0.17648786787973955, 0.1763210060247398, 0.17619786431796838, 0.17602666965232133, 0.17587659188563118, 0.1757078087865435, 0.17554160054141213, 0.17528501668087057, 0.17513366648199657, 0.17504858384420907, 0.17487951304154045, 0.17471025071490442, 0.1744111076062335, 0.17425633974723492, 0.17416961508502096, 0.1739880089987277, 0.17380295466141168, 0.17356500645553272, 0.17337858027605632, 0.1732559692336973, 0.17304685814731569, 0.1728349871508922, 0.17252752722571282, 0.17232019181529232, 0.17212488651870617, 0.1718960904822089, 0.17165946359050818, 0.1714980207783541, 0.17123507747561745, 0.17091337767168457, 0.17064986563256235, 0.17037832828944702, 0.17007084733364541, 0.16978605660731774, 0.1695463489988884, 0.16923396856989625, 0.16891435155172102, 0.16851623799270452, 0.16818960025257865, 0.1678380270962328, 0.16748784259699762, 0.16712461428215714, 0.16687464343782216, 0.16646988123463852, 0.1659826697410097, 0.16557559101322827, 0.1651568544045548, 0.16474785135746037, 0.16430265802446362, 0.16374202055977738, 0.16328804056123464, 0.16282599623773883, 0.16233686156834556, 0.16183206705756867, 0.1613335175373364, 0.16079574318457296, 0.1602290977776857, 0.1596663428317332, 0.15908933096324962, 0.15859665020251437, 0.15797911257982816, 0.15731016619771532, 0.1566806869384083, 0.1560391317613776, 0.155379156653166, 0.15471368059588547, 0.15403221578158274, 0.15334124187112486, 0.15263707761629317, 0.15184897085110524, 0.15112737899823134, 0.15047171435965453, 0.14970597138846398, 0.14892891411314058, 0.14805423916572324, 0.1472649626498575, 0.14650219354473148, 0.14567497827497006, 0.1448348102003635, 0.1440587617507909, 0.1431834733526783, 0.1422354576282052, 0.141351630340005, 0.14045523074645183, 0.13952187129011356, 0.13860410330042716, 0.13774687568038743, 0.13679362498976413, 0.13583205746146867, 0.13471738582395024, 0.13375688964580495, 0.13283794194248988, 0.13183736779846142, 0.13082528835046134, 0.12982675695357368, 0.12878986568336692, 0.12774411669101282, 0.12668969524990614, 0.12562679589930245, 0.12457100280157797, 0.12348982287296215, 0.12241397027409084, 0.12131738683920551, 0.1202147533830845, 0.1190322965529058, 0.11792708905024697, 0.11676887605733026, 0.11564996818159719, 0.11452012312508313, 0.11339878407432827, 0.11224760769390561, 0.11115999925120203, 0.10998612636983825, 0.10881022808796652, 0.10756767357404359, 0.10639583204656357, 0.10518143929731494, 0.1040035800776234, 0.10281915798594314, 0.10165360249032793, 0.100455340077273, 0.09926647378910862, 0.09806128637498611, 0.09685475380270415, 0.09568409644868271, 0.09447112338991487, 0.09321056832106067, 0.09200708932262444, 0.09080251829348136, 0.08961884997081011, 0.08841073836370558, 0.08720099517841441, 0.08599639667634408, 0.08479354761539232, 0.083583493596941, 0.08238613506567205, 0.08108009899978279, 0.07990122223666213, 0.07871889678837025, 0.07757126695638922, 0.07638095304753778, 0.07527567008047292, 0.0740794235868946, 0.0728909980606121, 0.07170102121391138, 0.07052901611831296, 0.06933940028559042, 0.06818455229299444, 0.06703544352981701, 0.06584314776684302, 0.06471260858747122, 0.06356744618641656, 0.06244757685276045, 0.06133178938935889, 0.06023310166326319, 0.05912599896658981, 0.05803792855405778, 0.05694316688704479, 0.05585667063373166, 0.054757182399054465, 0.05369074890543317, 0.05264445455046038, 0.05159253782435894, 0.05054991845753804, 0.04947069411763004, 0.04845320510352567, 0.04746155153877875, 0.04645705260502583, 0.04546204195749252, 0.04455372863386038, 0.04356886146261083, 0.042574024304454824, 0.04162115515746443, 0.040680816592273794, 0.03978983323796705, 0.03886964301707529, 0.037988456377926166, 0.03709361307349042, 0.03621393419992577, 0.035290541103435887, 0.03444734742271082, 0.033657992547777765, 0.03283111131754723, 0.032017828995363776, 0.031227212964096432, 0.03043950944125849, 0.02964399491945688, 0.028886302259524294, 0.028140841374662936, 0.02743536868369749, 0.02671108526103584, 0.026037713444238317, 0.0253366049736224, 0.024651281922524648, 0.02389213165003196, 0.02324849587382563, 0.02267610077798244, 0.022044579275027832, 0.02142708820475539, 0.020743509198718254, 0.020163788127856658, 0.019605539394859376, 0.019043141380779553, 0.018491616338672662, 0.017954347435263383, 0.01742505261488869, 0.016969106588860076, 0.016455836478488396, 0.015958111650114248, 0.015558577361207316, 0.015080246639994832, 0.01457792469309963, 0.01414219987524048, 0.013721263512498598, 0.013296219315523754, 0.012905916975550878, 0.012580464773536708, 0.012208485654441596, 0.011851653304700522, 0.011478628740656855, 0.011154304857055078, 0.010900285365131946, 0.010592117478270009, 0.010298756839698412, 0.009988821622645925, 0.009727167943484967, 0.009495378744399941, 0.009254009223166798, 0.009024702510451682, 0.008844053288922916, 0.00863327838969799, 0.008457298480729798, 0.008269786960508485, 0.008095724918724706, 0.007900669266272769, 0.00775603196138603, 0.007565946195109122, 0.007447992992735833, 0.007336546087068222, 0.007327270720990632, 0.007217650017720855, 0.007136046913706887, 0.007049163737529967, 0.006974655218180355, 0.006958057993597761, 0.0069007123826211455, 0.0068628488942215045, 0.006830577598382004, 0.006810456825848711, 0.0068325624960013254, 0.00683087718248514, 0.006853546730096386, 0.006873687293772008, 0.00690521729803294, 0.006972092250354209, 0.007021411520948563, 0.006986418582881015, 0.00706925668940018, 0.00717198812970571, 0.0072621958018622345, 0.0073583258682763395, 0.007448179115560044, 0.007558013391466682, 0.007774871221686073, 0.007883064968401582, 0.008002785213139128, 0.00810873392980501, 0.008252633161675484, 0.008386391706950677, 0.008548987226615883, 0.008718359354270164, 0.008832930899331022, 0.009023478260340343, 0.009340253339577526, 0.009522073110335757, 0.00971485154905349, 0.009822597370059713, 0.010047530795621153, 0.010328692279862453, 0.010555226308052076, 0.010789278708706659, 0.010999938730377535, 0.011252488652292954, 0.011575039601499896, 0.011830381859549868, 0.012095045836621137, 0.012257898555657174, 0.01255407995127075, 0.012947699432821655, 0.013236621398394644, 0.01353418215560746, 0.013898565787751711, 0.014205266796912148, 0.014535516416925706, 0.01486252356202391, 0.015200300254767273, 0.015434472744349923, 0.01580658928188138, 0.01611398369020411, 0.016501145783746476, 0.016888579167470864, 0.017341910756768407, 0.017724695009841765, 0.018141826764831184, 0.018534645905442227, 0.018936085767330652, 0.019383017795714066, 0.01979692273205312, 0.020150691931602117, 0.020594478811751304, 0.021044374418777982, 0.02149459855691433, 0.021958576777759097, 0.022407818686992067, 0.022888456593439025, 0.02337534486060664, 0.02398584347271724, 0.024471815898467794, 0.024882676673981294, 0.025407536660223932, 0.02594040902117469, 0.026552346786469665, 0.027093190489335162, 0.027686868821887815, 0.028248039482611422, 0.028823745260326238, 0.029407320864000667, 0.030011425705274392, 0.03053923620698469, 0.03118022707504032, 0.03182874757412486, 0.03245772535017203, 0.03312660235747003, 0.03386469603774503, 0.03454190671367165, 0.03523165250164996, 0.03597096403798793, 0.03668147882320593, 0.037403916456155394, 0.03814467632905619, 0.03890002602790043, 0.03960533963429235, 0.04039798798619875, 0.041210846199737215, 0.04202487553400382, 0.04285153367724063, 0.04371586340673947, 0.044565945456894206, 0.045455877828364896, 0.04633350135641127, 0.04722809357548281, 0.04808734444384686, 0.049022465965209934, 0.049959351716833154, 0.050924647734646555, 0.05190425272130763, 0.05296943595267722, 0.05397023115523444, 0.05503996691432592, 0.05607382885084786, 0.05712990510262577, 0.058161581284954224, 0.05926658406161746, 0.060340814234366165, 0.06148905038733741, 0.06265322291205803, 0.06384925168688436, 0.0650449300487546, 0.06625890808010247, 0.06749148938863643, 0.06874296101084239, 0.06999513764954388, 0.07128752249024942, 0.07256469442700854, 0.07389898261883115, 0.07525071771003987, 0.07671584675614333, 0.07809212193549596, 0.0793666630745796, 0.08080731190082055, 0.08226462764829659, 0.08380396941730464, 0.08528864729178245, 0.08682333224066888, 0.08834915803803252, 0.0898988671057261, 0.09148762001989036, 0.09308251779968599, 0.09474772088460764, 0.09638484041046917, 0.09804820383876711, 0.0996757109343771, 0.10139767886243427, 0.10311322835507652, 0.10488134057556597, 0.10666937670218288, 0.10846226806278285, 0.11029299349070827, 0.11215590605765077, 0.11402516812673873, 0.1159156104412912, 0.11782429472527142, 0.1197578721170612, 0.12171278890362702, 0.12368912936389609, 0.12568695180813727, 0.1277062902533384, 0.12974715595701802, 0.13173878832441793, 0.13383160284535436, 0.13594188298028667, 0.1381839448486655, 0.1403161791441758, 0.14235969687781305, 0.14455586534992304, 0.14676948285112673, 0.14914239905712115, 0.15137399480084882, 0.15363180730195583, 0.15591484106547523, 0.1582221849647474, 0.1604945576862499, 0.16285547320250823, 0.1652228040291122, 0.1676225306783848, 0.17003990740873412, 0.17253019694444285, 0.17497552859642745, 0.17746583731219912, 0.1799481765023839, 0.18245106591073915, 0.18494914876006036, 0.18749405812464767, 0.1899760636025025, 0.1925648220130065, 0.19516535111999855, 0.1977902029906912, 0.20041338645942613, 0.2030772421666164, 0.205722843177873, 0.20838282637389022, 0.21097069407438, 0.2136692197736069, 0.2164715182546109, 0.21917510618660246, 0.22189294707979804, 0.22461515433396043, 0.2273607086308761, 0.230102687341557, 0.232873253059536, 0.23565367533105305, 0.23836663337653577, 0.24117522156471338, 0.24401265790671195, 0.24682676835549594, 0.2496467194701994, 0.2525491997629388, 0.255370417707562, 0.25813025726501504, 0.26097819878579864, 0.26378966090114975, 0.2666493576470725, 0.26950964048188836, 0.27236428524367057, 0.27522623103356736, 0.2781648976921965, 0.28101654120501435, 0.28387182997742266, 0.2867359729730092, 0.2895949751611267, 0.29234448730405854, 0.29521908128777197, 0.298086920955623, 0.30108954377977454, 0.30392600839944267, 0.3066650862158636, 0.3095147606492003, 0.312357372022143, 0.3151586917580854, 0.31799024761975003, 0.32088847330920667, 0.3236896315719662, 0.32648439841736165, 0.32921646913535657, 0.33200268045755194, 0.3348289730420168, 0.33758374423882326, 0.34032840061521336, 0.34304360436548675, 0.345767749434951, 0.348348986525646, 0.35106138833849054, 0.35375152064348875, 0.3564166967252157, 0.35906372124201685, 0.36174755280710524, 0.364343983451734, 0.3669221088836056, 0.36938907252804376, 0.37194051866535416, 0.3746143668529653, 0.37709677058355967, 0.37956236633647766, 0.38187455822862054, 0.3843199772017209, 0.3867374496336149, 0.3891270055639205, 0.39148859388514945, 0.3938682330447278, 0.3961676193809702, 0.3984072384019457, 0.40065838043298313, 0.40288037240075725, 0.4050789846519399, 0.4072407253895277, 0.40936013270163485, 0.41146286945324406, 0.41353387359774163, 0.415640400041384, 0.4176381078695248, 0.41952967422459514, 0.421477624269695, 0.4233900728282369, 0.42520830431367507, 0.427056305638718, 0.42890771059794564, 0.43067107959740514, 0.43239740383178704, 0.43416939201203664, 0.43581007480150064, 0.4373803880938175, 0.43895778338158703, 0.44049764521115325, 0.4420239887305373, 0.4434839221096774, 0.444856795877517, 0.44624656535282586, 0.44759437627364035, 0.4488877160625637, 0.450152536442923, 0.4513679187393115, 0.4525468269405803, 0.45368185518271686, 0.4547821409984316, 0.45582795670006127, 0.45680549139370924, 0.4577668765299453, 0.4586828161378698, 0.4595656220591694, 0.46038911796961085, 0.4611801313933798, 0.4619123586465145, 0.4626002137429748, 0.4632711499577269, 0.4638660829558409, 0.4644790774157517, 0.46497890950217474, 0.4654379771013868, 0.4657785703394454, 0.466163511679824, 0.466427419627789, 0.4667273710793806, 0.4669761522677137, 0.46722674234527933, 0.46736855638883673, 0.4675593456316638, 0.46759641103964644, 0.4675926006990523, 0.46746110271128694, 0.46738448902538543, 0.4672450370924853, 0.4670757425388131, 0.4668586988094631, 0.46660968555980664, 0.4662963763647181, 0.4659034848623732, 0.4655031882317493, 0.4650557005064954, 0.46452461337887396, 0.46398889688130096, 0.4635222428472492, 0.46287681634630007, 0.462191523573037, 0.4614845095226519, 0.46071629182345336, 0.4599146836061063, 0.45906635436794613, 0.4581784100059558, 0.45720148638544983, 0.45624016778488197, 0.45512858024742103, 0.4540961119443809, 0.45301589869512465, 0.4520184626242617, 0.4508303009282828, 0.4495191996343818, 0.4482683261319458, 0.4469758980746061, 0.4456488848999239, 0.4442749840979501, 0.4429022073284414, 0.44144618890359255, 0.4399548692982387, 0.43847470409554934, 0.4369079177206275, 0.4353494322453775, 0.4337142346877081, 0.4320497064416893, 0.4302664748504995, 0.4285541656681411, 0.4267519387659936, 0.42497835488179714, 0.42316874064791576, 0.4214166151986081, 0.4195269133870126, 0.4176098742657997, 0.4156658113354417, 0.4136950822981035, 0.41172884652462477, 0.40970212836676784, 0.4075533391257907, 0.4054920488085515, 0.4034021643308758, 0.40124177696534236, 0.39910356903508365, 0.397011500580921, 0.3948099506334866, 0.3925875101069114, 0.39038786640614936, 0.3881200752212818, 0.3857495738050943, 0.383459817022461, 0.3811493038606989, 0.378923714119585, 0.3765616977436653, 0.3740895095732067, 0.37171659913963734, 0.36932676636719247, 0.36694875818205475, 0.36452472729864616, 0.36207301984956763, 0.35962707460211774, 0.3571694349434536, 0.354670193920298, 0.35219560031327385, 0.3497623934458486, 0.3472604298986338, 0.3447525630154888, 0.3421624438415279, 0.33965417108095014, 0.33722967128853965, 0.3346939273155547, 0.33215722181923, 0.329564537293524, 0.3270340055508929, 0.32449442262279093, 0.32195977341741117, 0.3194236578373965, 0.31683775764292754, 0.31430760083742987, 0.31178197938877417, 0.3092490239438349, 0.3067171504378913, 0.3041935364272635, 0.3016660713203953, 0.299109116151738, 0.29659545226675293, 0.29414738183579214, 0.29163511746095405, 0.28913238591842366, 0.28666729487297743, 0.28418140745233006, 0.28174174277415204, 0.2792765773415139, 0.27682618974851325, 0.274347538212155, 0.2719322838666747, 0.2695819332974803, 0.2671858226346831, 0.2648063283585532, 0.2624220330929759, 0.2600788908947156, 0.25773319225856345, 0.2554246070211441, 0.25313174469021654, 0.2508244379682479, 0.2485686808956693, 0.24633174399095348, 0.24410789255293638, 0.2419015277183369, 0.23972872847304125, 0.237557452922365, 0.23534807449185255, 0.23322535108104045, 0.2311206290279919, 0.2290502065362749, 0.22698222321248782, 0.2249294938249049, 0.2229056942134931, 0.22090410133883406, 0.21898372469763475, 0.2170208047708564, 0.21501111454863037, 0.21311161952041804, 0.2112350187745802, 0.2094126916082861, 0.20757978994978202, 0.20575782266479153, 0.20397971415539481, 0.2022274823604297, 0.20051990175202952, 0.19881801630033347, 0.19715622197688895, 0.1955084477998112, 0.19388933429313396, 0.1922681071253429, 0.1907101718497162, 0.18912070566451217, 0.187624241235339, 0.18615188557003867, 0.18475044612269595, 0.1833223884621653, 0.18194431690151486, 0.18057050963090843, 0.1792264790539191, 0.1778720949844614, 0.17659225715043939, 0.17545951344173946, 0.1742189543553745, 0.17301260699913631, 0.17174119562616594, 0.1706132840797514, 0.1694933361713927, 0.16842078562035476, 0.16737395697972815, 0.16641771342442507, 0.165414906100305, 0.1643867251048683, 0.16345051774696487, 0.16254043755728276, 0.16175194200004045, 0.16088231775549164, 0.1599490016693527, 0.15915399925045648, 0.15838383862663777, 0.1576078795343627, 0.15689161061234153, 0.15620484422015687, 0.15553474470915718, 0.15488876858658274, 0.15431312922852708, 0.15370973288777387, 0.15316080859010384, 0.152607053898137, 0.15208078488569515, 0.15150446137244722, 0.15104100829503073, 0.15071580270921672, 0.1502803537234773, 0.14987291279871445, 0.14946482767621191, 0.14911407428949952, 0.14878708485968928, 0.1484833118916138, 0.14820223272103308, 0.14790028093058105, 0.14766855021800632, 0.14749563648872216, 0.14729639903426797, 0.14711799064197276, 0.14693839150338744, 0.14680291574730223, 0.14667333276697356, 0.1465755272886512, 0.14649465538453005, 0.1464612710944873, 0.146409731946343, 0.14639154193839196, 0.14637347464040415, 0.14637320980356716, 0.14639012595778494, 0.14642362648557794, 0.14639008208147694, 0.14646554836672118, 0.1465512702331323, 0.14661355511689927, 0.1467244303036383, 0.14684696884937376, 0.1469748554081933, 0.14711186766897916, 0.14738108785818838, 0.14752084261150822, 0.14759964931335673, 0.14777990768497987, 0.14796962284460619, 0.14814074380309145, 0.1483517607560009, 0.14859107518845113, 0.14881271905044305, 0.1490419395120136, 0.1493398368371518, 0.1495751597725189, 0.1497710103247202, 0.1500311143553543, 0.15029639519156432, 0.1505941129465763, 0.15086497256747997, 0.15107053844673032, 0.15136061083198207, 0.15165090625924507, 0.15207059952654198, 0.15234489595836265, 0.15262647070709243, 0.1529141429061632, 0.15320682948442477, 0.15345431885517719, 0.15376035633943488, 0.1540289866979128, 0.1543383266453893, 0.1546443585738316, 0.1550393073253791, 0.15532685381733105, 0.1554929752354905, 0.15579844499889198, 0.1560969570112976, 0.15641952817707372, 0.15670094035600776, 0.15698693555992754, 0.15725772979317162, 0.15752406129089286, 0.15789948495933245, 0.15814171733656907, 0.1582866560296568, 0.15854244273449417, 0.15879161244935283, 0.15904322992150802, 0.1592775052369979, 0.1594252039396485, 0.1596561508171866, 0.15987552954677312, 0.1601514280620204, 0.16034028289706886, 0.16053778049569373, 0.16071089109460357, 0.16087749568374496, 0.16107101658055767, 0.16121911752647775, 0.1613922193657068, 0.1615243116453346, 0.16165123158384065, 0.1617168772634024, 0.1618383378214658, 0.16196186180646388, 0.1620612189468291, 0.16215089999308333, 0.16218768624512792, 0.1622630179626815, 0.1622704783609681, 0.16232804925926653, 0.16237046450523793, 0.1624506486418961, 0.16245795482673067, 0.16243932533068545, 0.16242746525831125, 0.1624041820780634, 0.16245880005519198, 0.16240172743341355, 0.1623016312922688, 0.16223636505298428, 0.16206328099527562, 0.16199150465151352, 0.16190446926354407, 0.16182128871820184, 0.16170330064211477, 0.16158823093902208, 0.16144368696896907, 0.16128813710037002, 0.16122629655553425, 0.16103588522748258, 0.16072380343754797, 0.160537879561202, 0.1603392473931845, 0.16022673860702877, 0.15999140038170453, 0.1597438208497484, 0.15949660090107112, 0.1592420602541466, 0.15900759830996153, 0.1587341171853646, 0.15833728910236164, 0.15806532762167666, 0.1577797224673451, 0.15753041628411443, 0.1572134174976791, 0.156856781791337, 0.15652609145549476, 0.15618514711338932, 0.15583745552066755, 0.15547688126637915, 0.15519050043699467, 0.15480204188502975, 0.1544100484496863, 0.15399878576066967, 0.15360067810637756, 0.1530896578104734, 0.15269463183525234, 0.1522882869128283, 0.1519515067140465, 0.15151505047691816, 0.1509696700285265, 0.1505378185797377, 0.15009589311981697, 0.14977710584525836, 0.14930104306867778, 0.14873877288217877, 0.14827309448993892, 0.14780187072258358, 0.14736864084358173, 0.14688227495936965, 0.14638796945636337, 0.14589885948331904, 0.1454077457642684, 0.14497629719260216, 0.14447385139058808, 0.14398563912100976, 0.1434851858749067, 0.14298680442002507, 0.1424963753369875, 0.14200061586660045, 0.1415097410808341, 0.14101708165204566, 0.14052620486033493, 0.13990479463381014, 0.13943412472959058, 0.139031649505931, 0.1385415305703555, 0.13805212248465848, 0.13750227035749746, 0.13702315563034762, 0.13662850620725497, 0.13613600734668377, 0.13564828208554153, 0.13511920211990366, 0.1346469265125379, 0.13423540381938723, 0.13376081391475186, 0.13329270841702828, 0.13275105108298618, 0.13230589019771016, 0.13186880943074786, 0.13142740877925163, 0.13098959122832754, 0.13058972220209433, 0.13015633813274904, 0.1297083736805457, 0.1292917649560902, 0.12888120011038456, 0.12855390980113335, 0.12814667499371551, 0.12769228379515882, 0.1273146761394929, 0.12694445664923543, 0.1265295773294282, 0.12618147457076173, 0.12588467812472418, 0.1255417117886793, 0.12520772155402027, 0.12494746114115766, 0.12462371885416437, 0.12418383820069262, 0.12390217265618479, 0.12362562610659074, 0.12347494524626096, 0.12319572422370559, 0.12282894636778055, 0.12259006392333922, 0.12235868745797641, 0.12211380671045276, 0.12190167796936799, 0.12168802801923498, 0.12149302683025216, 0.12130624506329048, 0.12115894444583195, 0.12098615326608161, 0.12087077423554383, 0.12071477769445356, 0.12057280187704099, 0.12045991683449271, 0.12034314101329534, 0.12027425538865012, 0.12018096769117625, 0.12010299346062159, 0.11997212428272162, 0.11993179738504045, 0.11989234725383036, 0.11987358574229441, 0.11986476783088922, 0.11994301912187798, 0.11994500721483609, 0.11988801840553517, 0.11992856942992636, 0.11997894042889942, 0.12001474899139089, 0.12008852018724625, 0.12023591852589906, 0.1203199195437022, 0.12041720507199576, 0.12057671983294962, 0.12069355667291116, 0.12079185350271325, 0.120942958215452, 0.12110631721227832, 0.12126941729576157, 0.12145823254606009, 0.12156575430227594, 0.1217881536359523, 0.1220162357080313, 0.12230604501294834, 0.12254042074943608, 0.12278225805318203, 0.12303806742908205, 0.12330416421559214, 0.1235374454993266, 0.12382943245048812, 0.12415065965548817