0.03834575416003243, 0.03774611092192289, 0.03719545315981979, 0.03652552377823798, 0.036073125692587686, 0.03567531258243009, 0.03525843246051225, 0.03485877804505317, 0.034432341327728294, 0.034064812780987955, 0.03373024240568903, 0.033374679386239205, 0.033026524657760896, 0.03277997108841137, 0.0324320968210917, 0.03193774733744573, 0.031629962593443535, 0.031322085983890385, 0.031113991691897873, 0.030795318586938507, 0.030347655986940655, 0.03006106845719426, 0.029774199554399666, 0.029612294532608302, 0.02931270689182206, 0.0290149408677043, 0.028736606734361188, 0.028468018045211773, 0.028068803238199748, 0.027838174449324304, 0.02748611749209468, 0.02727786113637921, 0.027068034520781433, 0.02687538712188051, 0.026666729625561946, 0.02661225484009078, 0.02639687554360503, 0.026197924479013753, 0.025969878329210962, 0.02580944087118069, 0.025588397078850002, 0.025465403195520164, 0.02535279894452327, 0.025317673248210285, 0.02522017377988141, 0.025093798221860437, 0.025035401967733115, 0.02499132785678998, 0.024866965745585414, 0.02486499692827689, 0.024943655640945715, 0.02495459937591484, 0.024981964143634877, 0.025071565718942465, 0.025126984832825033, 0.025107181274100394, 0.02521427767915698, 0.025335723774697203, 0.025422606849997274, 0.0255810773037411, 0.025943241544764788, 0.026105552959259704, 0.026293769782845512, 0.02627967898918671, 0.026546207659684358, 0.027030591792423925, 0.02729454588075289, 0.02739356770976138, 0.027731552134107926, 0.028083087357915024, 0.028544414413424285, 0.02891432523599099, 0.02926899807431217, 0.029687641011204722, 0.030126334006423755, 0.030692989439192006, 0.03115937592330011, 0.0315206716996801, 0.03205772569210545, 0.03261363512402297, 0.033189119931451655, 0.03378484400909678, 0.03450479539645203, 0.03512972335986396, 0.03578240257385633, 0.03653692420603892, 0.03723475115823797, 0.03790994353971019, 0.03867606498822447, 0.03946893179904704, 0.04022644980850129, 0.041080489699038124, 0.04184608100978741, 0.042761186021988716, 0.04369430632229761, 0.04480810309999598, 0.04576091778235147, 0.04675285918344063, 0.0477660664944147, 0.04881010181455686, 0.04981030283506681, 0.05092476050025608, 0.05197022130510632, 0.05314942698795726, 0.05435038056602595, 0.05557428010770627, 0.056822194946196954, 0.05807440196327727, 0.05937570950163898, 0.06070241493285524, 0.062018127053630585, 0.06340270245037195, 0.06492854098960008, 0.06635028969634761, 0.0678055964248828, 0.06924867582784794, 0.07077597117079751, 0.0724492175427957, 0.07402234652865185, 0.07563237563780775, 0.07717507621436491, 0.07886950569993259, 0.0805927388253495, 0.08234500189874404, 0.08412648449459706, 0.08603658183740542, 0.0878643920582255, 0.08965707292012057, 0.09156337297462558, 0.0934995100806812, 0.09548613553862713, 0.09747925051010703, 0.09945363815086279, 0.1015145876918068, 0.10360320592186256, 0.1056866038486304, 0.107835269992021, 0.11000605541008501, 0.11220808496061387, 0.1144367317995149, 0.11674184854248587, 0.1190180926031905, 0.12139041575725415, 0.1237177968599904, 0.12607813896719894, 0.12849538706161354, 0.13091598646299515, 0.13328583828787777, 0.13577991294623076, 0.13829959966525707, 0.14087789262921746, 0.14344433754316357, 0.14607513082924076, 0.14869071063506223, 0.15133466912790428, 0.1539235991724373, 0.15663269163430538, 0.15933044235665875, 0.1620872631571724, 0.16486404983886546, 0.16773959645433814, 0.17054698949734748, 0.1732675670783921, 0.1761381097684109, 0.1790259828613809, 0.18205553772912095, 0.1849631931801335, 0.1878213259737865, 0.19078723641289483, 0.19377198532613288, 0.1966595120728427, 0.19969569592846495, 0.2027763479593207, 0.20583167176744127, 0.20890118684069053, 0.2120924058665901, 0.21517663412160362, 0.2181733379496917, 0.22131003434634758, 0.22445853540364685, 0.2275608028519759, 0.23073971458397513, 0.23409192552379213, 0.2372658451392996, 0.24045707753564569, 0.2435442891841458, 0.24678112632918858, 0.25014028655509224, 0.25337532195466045, 0.2566228346968559, 0.25983190334781453, 0.263106803145144, 0.26635046041963756, 0.26964127996512743, 0.2729345197562147, 0.27634965696198066, 0.27963122418333775, 0.28281300455526115, 0.2861221000457584, 0.2894299537598094, 0.2927360896416884, 0.2960399967109415, 0.29936594189878424, 0.30266059644559706, 0.3059527007147995, 0.30919594738009143, 0.3124862367561647, 0.3157524221905557, 0.3190292233807172, 0.3222965851005944, 0.32558304904740576, 0.3288266097365998, 0.33194934764454365, 0.33518788727983506, 0.3384094116156712, 0.3417215271524426, 0.34489559950352916, 0.34803382529555843, 0.35118787083591, 0.3543273274522946, 0.35758366416296694, 0.36067465632285817, 0.36367321958802024, 0.36675328272591934, 0.3698152519879052, 0.37279608878460185, 0.37582669525472495, 0.3787211118320565, 0.3817162944435408, 0.38467972415707496, 0.38768619562094414, 0.39057765742079226, 0.3935249133712615, 0.3963514788464852, 0.39915449082969945, 0.40179200837187695, 0.40456169320718116, 0.4074697216704149, 0.41014674068771956, 0.41279797480901204, 0.415314286755156, 0.41792276048558147, 0.42047001302793463, 0.42300831168934394, 0.42550779708933245, 0.42817900570586975, 0.43057311165589895, 0.43274471774964934, 0.4351049172213468, 0.4374218985917727, 0.43977396301408356, 0.44199373883149895, 0.44418618919968955, 0.4463239203602935, 0.4484206345089322, 0.45029336988255786, 0.4523280388805985, 0.4545442613376009, 0.45644143729452186, 0.4582987380710188, 0.46008151533367536, 0.4618586676385211, 0.4634987772480693, 0.46519432603707145, 0.4668368404774273, 0.4683104327767815, 0.46986115370436926, 0.47135190649516456, 0.47278341114353967, 0.47415624637396464, 0.4754708645874976, 0.47672760565308603, 0.47794738455527286, 0.4790863895158966, 0.48020222458719247, 0.4812243892534966, 0.4821918066853212, 0.48314533424500467, 0.4839965598389143, 0.48483939271406934, 0.4855763183227556, 0.48626038640741265, 0.4867747660275449, 0.48736469865760046, 0.4879420206064523, 0.4884013641906715, 0.48880151457853016, 0.4891834970276076, 0.48945908174594827, 0.48956110829001437, 0.4897351846536089, 0.4898438687290462, 0.4898917592737013, 0.4898704674438639, 0.4898431247835814, 0.4896869066308005, 0.4894705113026608, 0.4891895507683551, 0.4888525995531933, 0.48855382315132395, 0.4880820776730378, 0.4875546310593448, 0.4868341710368172, 0.4862101275905706, 0.4855618701133373, 0.4848020594788515, 0.4839801451927317, 0.4831252584923784, 0.4821760503877291, 0.4811173450152559, 0.4800546527039595, 0.4789293362610798, 0.4777584170090091, 0.47650719503648337, 0.47526185322046416, 0.47388203337601353, 0.4724463135593737, 0.47102481193649204, 0.46946795649719464, 0.46764383627165257, 0.46600915994839603, 0.46430927336476036, 0.4627275843937339, 0.4608785774609106, 0.45893319663919324, 0.4569878943589453, 0.45498872406763036, 0.4529483990410739, 0.45084089655503595, 0.4486812857930646, 0.4464699077168682, 0.44420715395956417, 0.4417611435009058, 0.43941372616003355, 0.4371908865045571, 0.43470736415719247, 0.43217983713421443, 0.4295627960041392, 0.4269530408590219, 0.4243010932539305, 0.4215987881923115, 0.41885167762937975, 0.41600253243317736, 0.4131751453299949, 0.41019840830313403, 0.4072933581490578, 0.40433893364338896, 0.40135779687598433, 0.39830784255798957, 0.3953517175666168, 0.3922007347409872, 0.38901766274559013, 0.3857407209318266, 0.3825021257252484, 0.3791875786068196, 0.37588597302975235, 0.3725493767847636, 0.36933208449406385, 0.36591002566291475, 0.36237851886919425, 0.35892218172576534, 0.35543842367327866, 0.3519322896252007, 0.34839591523221786, 0.3447937861067848, 0.3412147580529228, 0.3376108792570307, 0.33405787565705125, 0.3303987484373765, 0.32677238346475285, 0.323073898288609, 0.3193626588723332, 0.31561833091323427, 0.3118853152011666, 0.3081190114745725, 0.3043641519831492, 0.3005971055462262, 0.29667417624285586, 0.29290415749972126, 0.289137640980701, 0.28533290055441207, 0.2815164894418, 0.27768195365524906, 0.2738486045422905, 0.27014476072761173, 0.26628189735445357, 0.2624229412355467, 0.25841115993906794, 0.25458114966870865, 0.25077244324275993, 0.2469341440547124, 0.24309734782767842, 0.23939583725516198, 0.2355496469179773, 0.2316049564159392, 0.22779940590724235, 0.2240012911487623, 0.2202036390317824, 0.21642529006022757, 0.21273211062045594, 0.20896707846940604, 0.20521941792977735, 0.20155586009852716, 0.19783633220944444, 0.19393710488843108, 0.1902891696421786, 0.1866531614571725, 0.1832295079388097, 0.17959797590223978, 0.1759329560159691, 0.17236633945566815, 0.1688248777850716, 0.16524309813280358, 0.16176238849189806, 0.1583837931250488, 0.15494150937764567, 0.15152964679129818, 0.14804948274645172, 0.14471258832821707, 0.1414063096975306, 0.13812323841189392, 0.13486956485348095, 0.1317581232931769, 0.12855263138907402, 0.12530347564374097, 0.12218661591790561, 0.11910441660254811, 0.1159915939472763, 0.11298966860037127, 0.11013698097306318, 0.10718862828786528, 0.10428272148908546, 0.10141943315900784, 0.0985989668121876, 0.09581328235781186, 0.09308021730207132, 0.09039026205699487, 0.08785127740063982, 0.08523500605610389, 0.08246219108115134, 0.07997196109927378, 0.07751941671114639, 0.07522581851121178, 0.07283739620899185, 0.07044743962240209, 0.0681614945647373, 0.06592093575346503, 0.06365593658035865, 0.0615164050136989, 0.0594196084480414, 0.05736647210326926, 0.05535781753501658, 0.053534960100842834, 0.0515995838805328, 0.04958204694319191, 0.047771862999896046, 0.04600708975084055, 0.04444130352901788, 0.04274967288652445, 0.041113548935293655, 0.03953205961529354, 0.03800442189190579, 0.036459636942612235, 0.03504654708968096, 0.03372693557416913, 0.03240412592374096, 0.031131926297227375, 0.029781782241315786, 0.02862592050660197, 0.02757031274211783, 0.0264925707103501, 0.025445204531757065, 0.024463402817293672, 0.023527580712817873, 0.02271636981447967, 0.021862719841338214, 0.021063634570225483, 0.020309603961518218, 0.01960483479644624, 0.018911425390744443, 0.0183078529596013, 0.017823905571370632, 0.017301000677997478, 0.016826823480663267, 0.01628877976977328, 0.01592337950690059, 0.015556399676365996, 0.015275859377243534, 0.015032875345378302, 0.014893884394204176, 0.0147183729236713, 0.014708701495944033, 0.014600540095473045, 0.014540022731108064, 0.014438741964453723, 0.014479883064931033, 0.014518044613961521, 0.014640575111483646, 0.014797987909042165, 0.015114067482373053, 0.01532471539033895, 0.015518375747829603, 0.015816745399799163, 0.016150048303069757, 0.01640172691884698, 0.016817209052676106, 0.01738286475952237, 0.0178350830625978, 0.018320619935965586, 0.018859111755195793, 0.019405587382838888, 0.020045541403228204, 0.020645961633813086, 0.021279118120212836, 0.022022037622411565, 0.02270621607939175, 0.023423206162759343, 0.02417109981749497, 0.024948137229128982, 0.02577750171787521, 0.026604929679567138, 0.027470765286432858, 0.02834712659346347, 0.029247289549230917, 0.030211208835247794, 0.031149661524312606, 0.03195734538722646, 0.03295813228265045, 0.033969746980138806, 0.03507073103717772, 0.036093933050179994, 0.037173460584165804, 0.038220549013286864, 0.039283286841040134, 0.04033161022831347, 0.04142601114804577, 0.042704927486455706, 0.04379834292476937, 0.04491092724485144, 0.045949624716845286, 0.0471059752848894, 0.04827480284644083, 0.049446461532155234, 0.05062503210533903, 0.05191722084553487, 0.05309365162175057, 0.054289001509482016, 0.055484122976067994, 0.056687368885882536, 0.05794698754300294, 0.05915621234967688, 0.06038084455375816, 0.061601848516918405, 0.06282768934858976, 0.0640943227639792, 0.06532147270685802, 0.06663481255402953, 0.06785724849425677, 0.06908546236366933, 0.07042942959827157, 0.07165025893276301, 0.07280008986640779, 0.07404391350340006, 0.0752869950286168, 0.07652008779723374, 0.07775991931790109, 0.0790827924574038, 0.08030346829718314, 0.0815241194310403, 0.08267330672506769, 0.08389950945265884, 0.08509805862222154, 0.08631273389306357, 0.08751893649204358, 0.08880768302112049, 0.08998558571147335, 0.0912388442991115, 0.09239972770622722, 0.09356056939422194, 0.09476159942211088, 0.09591392602922674, 0.09712764917248941, 0.09826984890256986, 0.09941300083556628, 0.10054760519214248, 0.10169020656906136, 0.10287563939607287, 0.10400653250206224, 0.10513615348619855, 0.10607765825042505, 0.10722610066371492, 0.10835267998592737, 0.10947610946956741, 0.11058765823976172, 0.11177520403590853, 0.11285506799168861, 0.11382332982567209, 0.11490874491583256, 0.11598435184724021, 0.11712564795132385, 0.11817535034447947, 0.11922652612762705, 0.12027063457384439, 0.12131283460901428, 0.12250223812434557, 0.12352257896918421, 0.12433103178740333, 0.12539272974980403, 0.1264477933614689, 0.12761319792330586, 0.1286438612407749, 0.12966947302704787, 0.1307076683495044, 0.13174877627578116, 0.13285091669390964, 0.13389126376485036, 0.1347773238678227, 0.1358518988603567, 0.13692425954244372, 0.13821077979391844, 0.13925550649829946, 0.1401236990282014, 0.1412192253523446, 0.14231670706420152, 0.14352487785916784, 0.14461628803857743, 0.1455909964419439, 0.14672177213982587, 0.1478572855956072, 0.14912706493742203, 0.15025980299482136, 0.15130904730474734, 0.15248593534957952, 0.15367329552183923, 0.15481015293124845, 0.1560294109198034, 0.15730418411041958, 0.1585391978046206, 0.15978959723349037, 0.16107696860607035, 0.16235823308775352, 0.1636669717653047, 0.16498627439620048, 0.16632659870954877, 0.1677753938808176, 0.16914863798644916, 0.17044214563037444, 0.17188447780998642, 0.173348542602944, 0.17491389917199146, 0.17641444989609453, 0.17795231007428175, 0.17951017612938044, 0.18109816544005655, 0.1825884144502143, 0.18425387185568246, 0.18605915038513185, 0.18775954230280317, 0.18949336138002498, 0.1912527206539615, 0.1930556269707211, 0.19481005572139232, 0.19669241217753775, 0.19860546522078573, 0.2005628634986413, 0.20253940009554997, 0.20460460387176052, 0.20664511191288082, 0.2087253906849047, 0.21079210985468955, 0.21296001406868453, 0.21512463525818867, 0.21737479142341493, 0.2196624264795033, 0.2220506950544343, 0.22440875217859527, 0.22686053528561562, 0.22930093177053795, 0.2317807472405632, 0.23431756129044387, 0.23690163225940833, 0.23945453806622366, 0.2421435079739401, 0.24493784583066078, 0.24770649390211394, 0.2505235678790455, 0.25347197515223274, 0.2563760725985238, 0.25927598202967156, 0.2622943517222475, 0.26536235324947327, 0.26838091180083307, 0.2715612211579602, 0.27475714664759593, 0.27803119858408537, 0.28135000391135295, 0.2846525287197926, 0.2880715352473022, 0.29175772442538506, 0.2952374431621906, 0.2987757445750339, 0.30236342263149557, 0.30601721931438647, 0.309565328805538, 0.3133500451012079, 0.31718009349911724, 0.3212505901927104, 0.32514892614116675, 0.3289938197188295, 0.33302155008404716, 0.33709906376774756, 0.341193237382004, 0.3453743337764783, 0.3496279297877444, 0.3539013864799635, 0.358224094512063, 0.36263719367271907, 0.36705251265060673, 0.3714401090981838, 0.37596640502438816, 0.38053786245838817, 0.3851255438226251, 0.389790930840853, 0.39461130133827405, 0.39934928034985867, 0.40413683415771834, 0.40891089789645546, 0.4138023572813719, 0.4186459179469316, 0.42363456612850936, 0.4286602275245529, 0.43377684973226005, 0.4388701899549299, 0.4441402150566454, 0.44929616731683536, 0.45449876989883825, 0.45962632676690596, 0.4649321424258081, 0.47026867511548237, 0.4756441553583772, 0.4810530772410562, 0.4865320222891152, 0.4920011708471721, 0.4973632092248764, 0.5029160136655718, 0.5084922449652948, 0.5141953163223193, 0.5198052991046532, 0.5254400602622377, 0.5311071940326672, 0.5368006028552375, 0.5424694832690286, 0.5482181513230754, 0.5538874786782273, 0.5596876667352302, 0.5655004711210392, 0.5713629587687681, 0.5771956949711882, 0.5830091708961513, 0.588872866761761, 0.594746725529991, 0.6006796257236857, 0.606565217768306, 0.612481932882977, 0.6183844095231413, 0.6242956797777292, 0.630094228599581, 0.6360334508618399, 0.6419823551021347, 0.6479139409409366, 0.6538421408421653, 0.6597536094867016, 0.6656737041184692, 0.671619741769322, 0.6775203224427985, 0.6834134376833282, 0.6892025279143174, 0.6950883497452627, 0.70093626544411, 0.7067894908596578, 0.7126227201851696, 0.7185426758025893, 0.7243198522288715, 0.7300721279600698, 0.735815153220249, 0.7415372467541775, 0.7471993910590424, 0.7528789411361947, 0.7584681057927015, 0.7640973393621299, 0.7696918405169413, 0.7753457457923698, 0.7808557817116006, 0.7862258026093243, 0.7916824978160228, 0.7970968548852928, 0.8024927154834105, 0.8078162890694285, 0.8131413082456896, 0.818369712121091, 0.8235539307658083, 0.8285805816783237, 0.8336853661375094, 0.8386808328539981, 0.8436805464562265, 0.8486201166190322, 0.8534990821681712, 0.8583168663192949, 0.8631058700985192, 0.8677949830442889, 0.8724224777203571, 0.8770119844349616, 0.8815095422982789, 0.8858605674140736, 0.8902394780677331, 0.89454705497443, 0.8987163975552782, 0.9028873846944256, 0.907133912526213, 0.9111302739440582, 0.9150569153149389, 0.9188334740320186, 0.9226252896799528, 0.9263295334037589, 0.92996283872129, 0.933514460662333, 0.9369173322026055, 0.9403112176717927, 0.9437575409156499, 0.9469569486575582, 0.9500752320987281, 0.9530528529014736, 0.9560113557752763, 0.9588725479058963, 0.9616530995036912, 0.9643423374729947, 0.9669063783277275, 0.9694147767359456, 0.9718152393836177, 0.974133660545443, 0.9763548747487029, 0.9786397430059766, 0.9806449294227, 0.9824159867552971, 0.9842589333835544, 0.9860010555182086, 0.9877247951312265, 0.9892540321824103, 0.9905539767305918, 0.9919050652972973, 0.99314997621792, 0.9944461369958711, 0.9954596655537669, 0.9962111739882907, 0.9970512681000866, 0.9977833734752896, 0.9983790105145024, 0.9989001368700656, 0.9993749082377705, 0.9996719855731441, 0.9998652076951656, 1.0, 0.9999796015822577, 0.9997833517372551, 0.9995691578532636, 0.9992487094785508, 0.9989298878387677, 0.9983844425153072, 0.9976323564043935, 0.9969017320427221, 0.9960650330367403, 0.995118690645902, 0.994072052407945, 0.9929166411691608, 0.9916618275278692, 0.9903032958849035, 0.9889905134067746, 0.9874075483801182, 0.9857393175392954, 0.9839676581614071, 0.9819323970370268, 0.9799936986182243, 0.9779508826803444, 0.9757721676509851, 0.9735291463025182, 0.9712211245576795, 0.9687704091628809, 0.966222389316835, 0.9635408789720353, 0.9608060341101075, 0.9580410226618714, 0.9551064756972699, 0.9520819115791262, 0.949059020530895, 0.9458451260259161, 0.9425031271931765, 0.9391298618471581, 0.9356717898453795, 0.932059351187735, 0.9284428235743462, 0.9248681262655718, 0.9210641690534304, 0.9171840078862239, 0.9130171868660362, 0.9090126836283432, 0.9049920648510698, 0.9008083024595831, 0.8965468538579288, 0.8922507274438937, 0.8878336298450564, 0.8833005888751243, 0.8787495898935636, 0.874128136982208, 0.8694420496917177, 0.8646841998828233, 0.8597991006648391, 0.8549202444636342, 0.8499758771687544, 0.8450053007184467, 0.8399314021805961, 0.8348166947396006, 0.8296276223191517, 0.8243853523493532, 0.8191864597137335, 0.8138301949661781, 0.8082444487879025, 0.80282564278475, 0.7973545879383045, 0.7919867266882936, 0.7863990788230321, 0.7807996454599074, 0.7751366303650199, 0.7694404174780062, 0.7636871193835963, 0.7579305100662053, 0.7520803289977768, 0.7462698479823155, 0.7404271444616687, 0.7345541825189897, 0.728652900263111, 0.7227004018363072, 0.7167513354484542, 0.7107782326113277, 0.7047583338629037, 0.6987464029815846, 0.6927398780585812, 0.6866881326045519, 0.6806225773956751, 0.6745326261935853, 0.6684464516996659, 0.6622477814040421, 0.6561582841190441, 0.6500575299686187, 0.6440845900577991, 0.6379517884387995, 0.6318104516918649, 0.6256881194079602, 0.6195713210865869, 0.613482064041372, 0.6073777342322404, 0.6011228811862502, 0.5950616329945411, 0.589004525054107, 0.5830740332454282, 0.5770175897273537, 0.5709379461376041, 0.5649242460155309, 0.5589288202091462, 0.5529284315833044, 0.5469773767708955, 0.5410436905936796, 0.535137844557959, 0.5292565744790154, 0.5233270599573453, 0.5175091292419917, 0.5117907053021997, 0.5060155826484874, 0.5002737269767369, 0.49461186674069746, 0.4889345018800325, 0.4831725692006348, 0.47759066165595093, 0.47204291663321013, 0.4666676378276521, 0.4611764052638924, 0.4557198214803275, 0.4503247188936547, 0.44497693383982045, 0.4395241224103581, 0.4342922930031997, 0.4292211319797778, 0.4240575918228151, 0.41894528120064517, 0.4139841500035335, 0.40896388353217855, 0.40388676979644517, 0.39899891632566903, 0.3941634105282681, 0.389319243291224, 0.3845992770005287, 0.38002619581031405, 0.37539915006883173, 0.3708318880700304, 0.3663289667129668, 0.3618820212656057, 0.3573888628636277, 0.3530785004514228, 0.34882419520581365, 0.3447719306305553, 0.34061510709716747, 0.3365093732892218, 0.33248968444894134, 0.32853632015805856, 0.32462035448361487, 0.3208033789438327, 0.3170925746628829, 0.3134003205765981, 0.3097758025459897, 0.30603288075545426, 0.30256718318497494, 0.299224793188124, 0.2958664985954447, 0.2925718290435894, 0.28923800418412615, 0.2860853502691902, 0.28300445125065704, 0.2799701087578889, 0.2769979977496149, 0.2741178088204013, 0.2712686042263716, 0.2686174213038592, 0.2658830357920452, 0.2632219941169711, 0.2604967819035872, 0.257996569944099, 0.2557368680242582, 0.2533398092767399, 0.25101579184742273, 0.24860217575521876, 0.24644060559273037, 0.24429370932714992, 0.24225840050856667, 0.24028099293680957, 0.23834119528069542, 0.23648323148727565, 0.23467866399900686, 0.23293649437273997, 0.23125192541752468, 0.22964565176634863, 0.22807362820868313, 0.22672966488891003, 0.22525283545045904, 0.22384314637894182, 0.22236225309205854, 0.22109854993363004, 0.21986834017668705, 0.21871512669392398, 0.21761395134025183, 0.21654375206440526, 0.21554804363045654, 0.21461014063879616, 0.21371206524241476, 0.21286313606881763, 0.21214546244406782, 0.21138254993803507, 0.2106921872406149, 0.21002902224337622, 0.20941616190845647, 0.20868673955125056, 0.20819105528741919, 0.20785620424241533, 0.20741841801687916, 0.20702428252916977, 0.2067180628936165, 0.20640184056606542, 0.20592974593722357, 0.20572230383572154, 0.20554333250034318, 0.2056163009085668, 0.20546643001910053, 0.20528737286527513, 0.20522658530192364, 0.20508325154010085, 0.20510232681252485, 0.2051456742052024, 0.20521302247680348, 0.20530400206262378, 0.20552152920723937, 0.2056452467936484, 0.20579679208186213, 0.20603668620922755, 0.20623158078643655, 0.20640792522779283, 0.20666056765767435, 0.20693394589552058, 0.20728463133590203, 0.20758824347077048, 0.20770524294809256, 0.20807358473558263, 0.2084471774069801, 0.20902877525861474, 0.20938753715404979, 0.20971332901523831, 0.21010980900059012, 0.21051654803840147, 0.2109612343471329, 0.21138109961152993, 0.21170167929632977, 0.21215020083569924, 0.2125982018917265, 0.2129873842247427, 0.21344037968798923, 0.21396677596688593, 0.21439941085522154, 0.21483099405563497, 0.21528541929411246, 0.21570901505132692, 0.21605991365506177, 0.21648648464408196, 0.2169045228554183, 0.21734248927657285, 0.21773830827724297, 0.2181008362144707, 0.2184820031311225, 0.21885164592108625, 0.21933732896877683, 0.21966583825339803, 0.21998810720713857, 0.22030244324900647, 0.2206072748272449, 0.22072333762933852, 0.22102736277872265, 0.22145254683446974, 0.2216913949676123, 0.22191520737753775, 0.22210635042653895, 0.22229897026236442, 0.2224932215934826, 0.222644372701069, 0.2227761445912727, 0.22276776582188862, 0.22287342555403408, 0.22294643370920514, 0.22299584595055957, 0.22301696090120768, 0.22317119910066663, 0.22311573791384376, 0.22278082025279855, 0.22271909022881514, 0.22262130697975493, 0.222715919315759, 0.22252019285297464, 0.22218388370391756, 0.22196075888019634, 0.22170790654538045, 0.22142942797530069, 0.22111647750585575, 0.22069117731768284, 0.220329269838802, 0.21993284068396143, 0.21950243560739371, 0.21903851861553322, 0.21856215710745955, 0.21802971764243634, 0.21746592642596266, 0.21691219844035145, 0.2162806534939419, 0.2155912796655818, 0.21490531926734532, 0.2141882719733454, 0.21360966855822716, 0.21280900824770727, 0.21188754688751643, 0.21105496978056623, 0.21019275992620612, 0.20930899007922812, 0.20838593021112709, 0.2074704798965553, 0.20648338938412916, 0.20546860465080413, 0.204380327678871, 0.20331504807540773, 0.2022891170156062, 0.20115333778449032, 0.19999113730896162, 0.19866581367904165, 0.19746736774219026, 0.19634186253580846, 0.19506177420970716, 0.19375525750706094, 0.1923190298985008, 0.19097305389580801, 0.18960767818959837, 0.18819758842460987, 0.18675845435573635, 0.18541516901885918, 0.18390475504521298, 0.1823209258824498, 0.18077773388143165, 0.17921145557213403, 0.17761832239286052, 0.17600752169030068, 0.17439939415734515, 0.1727416612965572, 0.1710641587119343, 0.16919353110714314, 0.16749942850505464, 0.16590505112956785, 0.16413964181434157, 0.1623564618252952, 0.1605022729677512, 0.15869190953037388, 0.15680031793016583, 0.15496037118329908, 0.15309965876204062, 0.1512816017371418, 0.14937560802368702, 0.14755547773215308, 0.14561082134783684, 0.14365962554564338, 0.14163555791501783, 0.13967922504903893, 0.13777028782943235, 0.13578626700547491, 0.13379624590312755, 0.13175904028993288, 0.12976280626624268, 0.12765142081492728, 0.12565416404776142, 0.12364457188727535, 0.12180198825849549, 0.11974975989719179, 0.11769949264479745, 0.11565101477705758, 0.11360425554486683, 0.11142278093850869, 0.10939685439223071, 0.10751414529982477, 0.10545945202563693, 0.10341007054394367, 0.10118405604557068, 0.09916836842453722, 0.09727619114353467, 0.09523663022783213, 0.0932028311961237, 0.09125377745275774, 0.08922285226688906, 0.08725718763505451, 0.08524233739300106, 0.08324182654401581, 0.08101957255718828, 0.0790765046554395, 0.07711721802081167, 0.07517873745404058, 0.07324321269521077, 0.0714653477616669, 0.06952138262431813, 0.06758955432031255, 0.06567875925637312, 0.06378425992469464, 0.061893880136073456, 0.060034260853006435, 0.05829439939828976, 0.05645489469377224, 0.05463842159371008, 0.05292315068454915, 0.05114173511517247, 0.049465460883221325, 0.04772653584541084, 0.04601729421133562, 0.044324266332399866, 0.042672968615036416, 0.04099843083222792, 0.0394057459513847, 0.03783594559838529, 0.03630579302752266, 0.034780391466978186, 0.03329202248032069, 0.031814527603690745, 0.030362841724214856, 0.02910256784517024, 0.027682243233336838, 0.02622745273171453, 0.02488665987396981, 0.023575913078048644, 0.022282716475344178, 0.021033435882300947, 0.020036745944194828, 0.01881805060376437, 0.017687138150137203, 0.016545776019079105, 0.015446488614076758, 0.014408542359370462, 0.01338680676578086, 0.012284864749614216, 0.011356778215386951, 0.010460000474288451, 0.009644539253187994, 0.008805294339047386, 0.0079682953164715, 0.007203928589117682, 0.006473175475628512, 0.005921172913238935, 0.005240592097787523, 0.004574052664156176, 0.003982357985808085, 0.0034306718075994822, 0.0028856615646070784, 0.0024174943706938485, 0.0021151275268508985, 0.0017062000853044245, 0.0013425281763739876, 0.0009199485087648396, 0.0006576258626116961, 0.0005568270528385064, 0.0003541676776384164, 0.0001967300840318344, 9.629505331337302e-05, 2.5968615097177225e-05, 0.0, 1.7952541154901964e-05, 7.947450682726217e-05, 0.0001470732534648613, 0.00029966977747235307, 0.00043107151571854154, 0.0006733564773389032, 0.0009533652995305156, 0.001337943861382689, 0.0016870291127406626, 0.002000854413525225, 0.0024464535515110668, 0.0029309025289277414, 0.0036078197044943855, 0.004152425603025769, 0.004688242750586254, 0.005337567464865247, 0.006031236286510838, 0.006851795411587832, 0.007623255936285632, 0.008381273811625912, 0.009256973736158145, 0.010176335381539375, 0.011197158827417873, 0.01219626908070945, 0.013159359349853187, 0.014261763309118146, 0.015405226562042284, 0.016590013638278767, 0.017816357054327492, 0.019084459302661668, 0.020394494759414614, 0.021746611509720265, 0.023277387664097815, 0.0246967633679817, 0.026162050134489145, 0.02768100659633889, 0.02924782773361327, 0.03073768915810109, 0.03241369054518405, 0.034070644674976266, 0.03583211804949243, 0.03763006094769736, 0.039552126757508035, 0.04141437821438179, 0.043311845166683904, 0.045261938991089, 0.047254711638647896, 0.049319011203353365, 0.0513931877765809, 0.053482421408911796, 0.05564792131318867, 0.057855143844481524, 0.060070949939064366, 0.06236561389239771, 0.0646751309051878, 0.06705243959055575, 0.06946834239455596, 0.07198930329005078, 0.07447488434925198, 0.07695389754809288, 0.07953147102148031, 0.08214856453796408, 0.08470599619959637, 0.08741481903008001, 0.09026518429589696, 0.09302925061046258, 0.09583480318204865, 0.09862776228731299, 0.10152211709076646, 0.10436302048522011, 0.10734404266526983, 0.11035768835098758, 0.11343780705420511, 0.11651469686074956, 0.11977685975143425, 0.12290790975942101, 0.12608397528378035, 0.1292377402701284, 0.13250883350388418, 0.135826323483073, 0.1391722760638293, 0.14255613203549106, 0.14601884479176483, 0.14947210683715617, 0.15296031711803368, 0.15649158516748374, 0.16006039151616974, 0.16355040847092117, 0.1672073240575652, 0.17093096194850568, 0.17464267308539955, 0.17838686350416885, 0.18209325604342821, 0.1859113087497512, 0.18984881111460472, 0.19371280421735487, 0.19761124909353714, 0.20151476531416798, 0.20548447718524016, 0.20949814492839447, 0.21352921547827527, 0.21759216213221325, 0.22162050947783804, 0.22575462019229248, 0.23005238375761894, 0.2342238384509718, 0.23843047881451596, 0.24253895415595841, 0.24682967968433037, 0.2512776160863586, 0.25560163826086085, 0.2599583901491456, 0.26418977918182374, 0.2686290366577178, 0.2732797253844135, 0.2777378651766714, 0.28222877028743054, 0.2867636012383124, 0.2913148375191621, 0.29572656405483705, 0.30035821602849017, 0.30500832601707334, 0.30968561892545465, 0.31437286216265764, 0.31920000962253897, 0.3239121794118432, 0.32865121681174847, 0.3333995946741604, 0.3381915591090852, 0.3429487916234431, 0.34779370400973725, 0.35265717855391066, 0.3574398048229771, 0.3623524006237876, 0.3674262249294783, 0.37234525960903286, 0.37728593238180086, 0.38215635319079316, 0.3871490845900625, 0.3920812790490138, 0.3971111293999504, 0.40215047931224696, 0.4071831914287508, 0.4122447131771616, 0.41735286176427316, 0.4224286932944005, 0.42751629722963214, 0.43268565041475976, 0.43778690562115036, 0.4428531536266172, 0.44798888361325, 0.45313442568390666, 0.4583181615625328, 0.4634779563783086, 0.46860194886342704, 0.4737860033792619, 0.47897548810031787, 0.4841988816628716, 0.48939413370824675, 0.4946569657765608, 0.499854693658981, 0.505059876514329, 0.5102092061465265, 0.5154333557560858, 0.5205503082213733, 0.5257880665978737, 0.5310188704430868, 0.5364248847566608, 0.5416193337101334, 0.5468421787755503, 0.5520391014642941, 0.5570932481811014, 0.562310782220547, 0.5675190754064082, 0.5728047327856004, 0.5779828138026778, 0.5830233363565682, 0.5882065689140267, 0.5933749744473297, 0.5986278288528724, 0.603754041070602, 0.608730222144412, 0.6138542891525604, 0.6189589732612187, 0.6239534419338479, 0.629031151205466, 0.6342746382267295, 0.639279972650852, 0.6442724454547709, 0.6490894595650433, 0.6540726442314543, 0.6590672615713663, 0.6639942617752183, 0.6688976122025551, 0.6737272389971011, 0.6785881364586948, 0.6835699091903725, 0.6883557894526531, 0.6931214904950838, 0.6977165517232184, 0.7024559857761745, 0.7072822135205753, 0.7119400455188667, 0.7165709984012413, 0.7210372843943585, 0.7256277792107269, 0.7301385260428017, 0.7346573480208164, 0.7391351431945747, 0.7435223321920942, 0.7479243481840696, 0.7524105095919376, 0.7567083560977524, 0.7609694547210484, 0.7651388825501286, 0.7693297992075795, 0.7733700020701447, 0.7774874309796665, 0.7815542441441724, 0.7856450012997421, 0.7896014316002036, 0.7935858647449875, 0.7974392124912453, 0.8012486576262602, 0.8049011104077702, 0.80863259533921, 0.8123717915182149, 0.8159864422925964, 0.8195494726068482, 0.8230847206868873, 0.8265384768005091, 0.8297944212477778, 0.8331591853288944, 0.8364605512256292, 0.8397730792975827, 0.8429385243395574, 0.8458877049041785, 0.848953994651233, 0.8519508276124791, 0.8549903618635968, 0.8578355536836424, 0.8606434646582113, 0.863360546568767, 0.8660153527106845, 0.8684704512230269, 0.8710150599708574, 0.8734827681234277, 0.8758825866277883, 0.8782097389142081, 0.8805511137760994, 0.8827220325056859, 0.8846762183090237, 0.8867293440931472, 0.8887045392044485, 0.8907799993649319, 0.892577909828686, 0.8942011964347076, 0.895877123595343, 0.8974773064589963, 0.8991172326991992, 0.9005503928525277, 0.9019175109450568, 0.9032085262451143, 0.9044271697175696, 0.9054028162630534, 0.9064949762731764, 0.9076469874029216, 0.9085516471982273, 0.9093805547073243, 0.910083301577614, 0.9107646872419012, 0.9114480892178323, 0.911957472846657, 0.9123904682692273, 0.9127379871949807, 0.9130168935724567, 0.9131258059260556, 0.9132576819283262, 0.9133045293743477, 0.9133411567823512, 0.9132096412810745, 0.9128701356823421, 0.9125949142710402, 0.9122321448016781, 0.9117619871637919, 0.911229160046554, 0.9107752979505512, 0.9100494798009942, 0.9092480163441904, 0.9082337765292015, 0.9072963545215359, 0.9062821889279778, 0.9051744184246865, 0.9039834974987103, 0.9028547164217477, 0.9014808669036206, 0.8998558061570582, 0.8983569584122278, 0.8967735251408823, 0.8952512450631658, 0.8934833193430891, 0.8915962987603737, 0.8896865815397315, 0.8877001589264875, 0.8855421659486181, 0.8834151176935472, 0.8812399484112052, 0.8789474393517059, 0.8765777741796851, 0.8741978607016496, 0.8716677521460364, 0.8690002567837799, 0.8663362529677126, 0.8635977611233501, 0.8607608212550736, 0.8578790300821695, 0.8548577218852987, 0.8518386089291039, 0.8487444544161596, 0.8455726334755937, 0.8423333645852186, 0.8392174537722817, 0.8358129619780225, 0.8323509745286234, 0.8286822813799617, 0.825123221640175, 0.8215969374250396, 0.8178936631765428, 0.8141319848066136, 0.8102296077189632, 0.8063628687708843, 0.8023270133118703, 0.7983519348447632, 0.7943117557899732, 0.7903326290552564, 0.7861527520198057, 0.7820447409532689, 0.7777455903132097, 0.7734028119785361, 0.7687847028422651, 0.764383671747447, 0.7600542288234398, 0.7555259484479286, 0.7509524553089976, 0.7461940693054229, 0.7415506922292316, 0.7368446469914381, 0.7321044574155706, 0.7273174892801894, 0.7225312636132697, 0.7176509955141682, 0.7126785642447431, 0.7077296754867413, 0.7027421346304321, 0.6978045594793555, 0.6927340127089426, 0.687725797856972, 0.6825873670491711, 0.6774272278081306, 0.6721463754467126, 0.6669561948608441, 0.6617025854737085, 0.6564660526074962, 0.6512039513479947, 0.6460130434567242, 0.6406927106069775, 0.6353321874952, 0.6299850105500666, 0.6246226850298539, 0.619312472976735, 0.6139148207505309, 0.608496717335445, 0.6030851883800675, 0.5976662979596808, 0.5920590174883993, 0.5866511954617954, 0.5812535040564953, 0.5758157082552608, 0.5705059797279187, 0.5650362054514361, 0.55956970529621, 0.554061766914268, 0.54860994134418, 0.5430703527825357, 0.5376377353539319, 0.5322057998177271, 0.5267021288188927, 0.5212869063869301, 0.515878074155493, 0.5104691789502637, 0.5050673001261653, 0.4997116722032344, 0.4943250599828845, 0.4889325879989947, 0.4835796126782833, 0.4782430244778484, 0.4730359258011989, 0.46772230580055696, 0.46233628691771883, 0.4570892811372136, 0.4518643803414992, 0.44681174640751065, 0.4416160940835078, 0.43629753924902676, 0.4311901800336698, 0.4261082851159563, 0.42104916419664107, 0.4160229857037161, 0.4109848217368401, 0.4060238856800997, 0.4010925054250134, 0.3962790195099244, 0.39140019178817737, 0.3865186871803142, 0.38172298576623886, 0.37696475674864527, 0.3723028026916806, 0.3676149067551905, 0.3628835449404485, 0.358293724569156, 0.35374314843977855, 0.34926601013253883, 0.34479301647543104, 0.3404841896929161, 0.3360852069756815, 0.33173852310197455, 0.3272949454387347, 0.3230707811634056, 0.3190552513340876, 0.31489777717676826, 0.3107950058568049, 0.30664734763945406, 0.3026655746830135, 0.2986287856304975, 0.29475750002508855, 0.29093013569768805, 0.28716055712842325, 0.28342370744682754, 0.27980574491492954, 0.27615816934585263, 0.2725649893028818, 0.26902643209362137, 0.2655427129968115, 0.2621719243030946, 0.25879115655366414, 0.2554690432679578, 0.25215152552751574, 0.24895264776206538, 0.2458292915462101, 0.2427377306251296, 0.23970262383117413, 0.23667850209847605, 0.23376209485177601, 0.23097404393716797, 0.2281564361012341, 0.22539758924023295, 0.22266820790430378, 0.2200295152253529, 0.21751313560847582, 0.21497832721479865, 0.21250325393389563, 0.20985986915366034, 0.2075312001839881, 0.20533046997563195, 0.20308315068053934, 0.20088816870747003, 0.19868378244419763, 0.19660208284790584, 0.19462773379343618, 0.1926381855493979, 0.1907023173142214, 0.1887372684868122, 0.18691868416097301, 0.1851857260139429, 0.18345962550027903, 0.181784636109452, 0.18035080222837352, 0.1787534291215198, 0.17716341144994607, 0.1756931910028906, 0.1742774783947934, 0.1728324135160384, 0.1715327530611063, 0.1703292758726817, 0.16911613831968506, 0.1679516488313736, 0.16673162739295125, 0.16567510259410972, 0.1646714544918353, 0.1636943670049011, 0.1627584765922215, 0.16194626298669915, 0.16108158402961412, 0.16010889461989544, 0.15935245832397346, 0.15863031235552996, 0.15802951016697955, 0.15736549416696016, 0.15679054552142901, 0.15619832255017876, 0.15564666701047422, 0.1550516367260663, 0.1545878873600536, 0.15435494003914363, 0.15393028145345228, 0.1535481146071255, 0.1530284850735483, 0.1527474887375461, 0.15245166030244692, 0.15222863220617713, 0.15202914767677025, 0.15186139329225845, 0.1517076064600042, 0.15154836000104316, 0.15144479781714704, 0.1513622240899407, 0.1514698838316105, 0.15140690661401932, 0.15136093543771303, 0.15135648810781513, 0.15137714881309314, 0.15150407491664222, 0.15155995167628056, 0.1513848234139138, 0.15152186097465356, 0.15166605595037155, 0.15194181072676669, 0.15208555693454462, 0.15224821524812246, 0.15241997358402465, 0.15260472535473135, 0.1528097322416139, 0.15301642463383536, 0.15317986595898941, 0.1534133551256114, 0.15365234463322924, 0.15382601806737942, 0.15408330067044337, 0.1544231860983772, 0.154669782506709, 0.15492076066855934, 0.15524140921038207, 0.15549018443005339, 0.15567418195754298, 0.15594151181296906, 0.15620775756969285, 0.15648880724002193, 0.15674883404709314, 0.157064629372529, 0.15731230335802066, 0.15755954056460783, 0.15771828498483678, 0.15797203788053257, 0.15820876389047875, 0.15844573106052376, 0.1586728136009992, 0.1589186521101654, 0.15912136373486346, 0.1592776041395036, 0.15946589582121942, 0.15964162871450815, 0.15996577657989106, 0.1600951065527315, 0.16016209840371007, 0.16028820355237758, 0.1604034645825096, 0.16039947313157504, 0.16050400804721252, 0.16057675545222097, 0.1606442408534544, 0.1606918861658071, 0.16072396839953806, 0.16073178136353128, 0.16082362753637297, 0.16077965071891936, 0.16072202869379384, 0.16065810535347944, 0.16056945024816965, 0.1604402636281583, 0.1603225359554872, 0.16018210008125872, 0.16002732286024263, 0.15985292650947688, 0.1595221375824347, 0.1593248274142989, 0.15912004288846113, 0.15886468000828433, 0.1585839364341034, 0.15834858976534963, 0.15800957855600073, 0.15758836230283815, 0.15721657266924818, 0.15682062733493674, 0.15637600531356238, 0.15593571454944244, 0.1555367949338969, 0.15503895416594823, 0.15452077523884883, 0.1539820316581441, 0.15342252894998099, 0.15294961343267774, 0.152334540698079, 0.1517043447761412, 0.15096711906939697, 0.15031550293767812, 0.1496867268585882, 0.14898423781715797, 0.14826200516747745, 0.1473958081084575, 0.14664931647875185, 0.14586750469660079, 0.1450689443558266, 0.1442447630570613, 0.14360261357805082, 0.14270369132285304, 0.14172296673574003, 0.1408089731718523, 0.13987779786469956, 0.13896244504287456, 0.13799255867228016, 0.136858440949661, 0.1358764597341239, 0.1348704880626358, 0.13395748219674455, 0.13289233907736406, 0.13169721574114773, 0.1306183330727117, 0.12951885408253697, 0.12844118894037676, 0.12729840130941172, 0.12607002452257507, 0.12490607717434658, 0.12372396471537261, 0.12256199291181395, 0.12134204202246555, 0.12019176798243277, 0.11893590396782694, 0.11767281975461333, 0.11629903532684265, 0.11503433540285449, 0.11383093358678542, 0.11253148069055796, 0.11122486606548501, 0.10984516016919797, 0.10853331266518489, 0.10725273322867084, 0.10591635304634692, 0.10457389064690326, 0.10318444891325938, 0.10183641806643692, 0.10048550611000212, 0.0991237325490756, 0.09775676592972722, 0.09643080631453001, 0.09504982564002919, 0.09373444409820778, 0.09234426595749218, 0.09095784703406115, 0.0894840309116752, 0.08811616167253955, 0.08688723621450677, 0.08549908942724682, 0.08411874103434432, 0.082658968539722, 0.08130415137868734, 0.07985633608932644, 0.078518387641571, 0.07717846876046434, 0.07589586006316351, 0.0745487550689975, 0.07317786900902247, 0.07184540555635002, 0.07051777223937405, 0.06924544118249303, 0.06792370681293416, 0.06657893414196597, 0.06528179521595831, 0.06399351561843329, 0.06284290269284461, 0.061557981656387116, 0.060224759173336806, 0.058983451049198866, 0.05775546096053745, 0.056627895240694275, 0.05541639989672237, 0.054099925857257994, 0.052941887552292434, 0.05179532015870441, 0.050607285202052175, 0.049492859306739634, 0.04852979148154459, 0.0474202475501995, 0.04633151182250342, 0.04529234522156781, 0.04424107850481503, 0.04322428266951119, 0.04221533414375707, 0.041228730327274345, 0.04016915932282798, 0.03923871632923992, 0.038403421214457674, 0.03749695064188407, 0.03661290242554277, 0.03587533943332274, 0.03502052785957842, 0.03422832360246631, 0.033427494544356014, 0.03265641594137971, 0.03188112902483564, 0.031171245967946487, 0.030635909844928, 0.029958367414349856, 0.02931451146102715, 0.028537666287453793, 0.02797846765863957, 0.02755206988083509, 0.027021660631623274, 0.026519834142373314, 0.02609585588595333, 0.025643944141556317, 0.02521844836995415, 0.024827633169806605, 0.024466185244059302, 0.02411726600660373, 0.023815823276301665, 0.023550409262686867, 0.02330346852925885, 0.023084841366710136, 0.02291108623606551, 0.022747077911077163, 0.022744762987492978, 0.02262272509866667, 0.022537421701084033, 0.022570495545252284, 0.022545186399466666, 0.022550251671721887, 0.022601962009698846, 0.02268941067769968, 0.02281170409271399, 0.0229680883339113, 0.023100042764607736, 0.02333014301725306, 0.023589501936550388, 0.02402709670814556, 0.02432651883759136, 0.024593648782649122, 0.024976912626745933, 0.025392281971015073, 0.025996683259139827, 0.026455836129054184, 0.026897550781820077, 0.027443582315817967, 0.028024313660415776, 0.028742589785887136, 0.0293781501258725, 0.03008182179208108, 0.03079092754852108, 0.031538729756390375, 0.03232830715305552, 0.03314996608704031, 0.0339044583983219, 0.034810927430652464, 0.035746560913239606, 0.03681095973933997, 0.03779343994701199, 0.03871244110968162, 0.039778493616700154, 0.04087382207601515, 0.04201954744222551, 0.04317211131242583, 0.04451759393635974, 0.045713241367485315, 0.04694990832505756, 0.04813546550789417, 0.049462340805267645, 0.050813805379374605, 0.05220741065757873, 0.0536333559433532, 0.05517439669734093, 0.056654733269844486