0.037628204277861205, 0.03706223984421364, 0.036467009251589626, 0.03591906462496735, 0.035370869748898, 0.034902908467971186, 0.03439370681189834, 0.03398417693414801, 0.03359013896055527, 0.033202609518140434, 0.03283353014083807, 0.03256402157220531, 0.03220037902617837, 0.0318486732214329, 0.031428767230381204, 0.031106892483450027, 0.030798311302526186, 0.03048352203937299, 0.030173537223328432, 0.029842314682605776, 0.029545933864988803, 0.029300972963244184, 0.02900768094447067, 0.02872259337070779, 0.028383085001786393, 0.028123437710657524, 0.027903747483819713, 0.027652487254518684, 0.027410948946198034, 0.02719290371089574, 0.026971112755587976, 0.026710580682439325, 0.026520624460980396, 0.02634128744363488, 0.026176142189755502, 0.026020504746241513, 0.02592685316145808, 0.025792757897641454, 0.025676341471798675, 0.025542486505865936, 0.02546681155517626, 0.02545366163515505, 0.025406020982976896, 0.02537875823975532, 0.025337950147037748, 0.025356318338041937, 0.025412115298295904, 0.02546680049442513, 0.025542579500555468, 0.0255912430898819, 0.025716319400853886, 0.025893535745944097, 0.026053880883908604, 0.026236807824573122, 0.026464984596424507, 0.026691359088344385, 0.02682592168473939, 0.027117096148435334, 0.02742702962467043, 0.027780490847239197, 0.028128332680761765, 0.0284981352514207, 0.02889338972186764, 0.029313199780592773, 0.029796228767632167, 0.03026217483981136, 0.030663444501385823, 0.031198293654590366, 0.03175682153017977, 0.03242397029281968, 0.033022140918168595, 0.033592423044257726, 0.034260436437130296, 0.03495650952518466, 0.03562618175392302, 0.03638719768284538, 0.03715267455756864, 0.037971010287987356, 0.03881673678549022, 0.03974333255108973, 0.0406401528913545, 0.04153730122996068, 0.04250486871989695, 0.04350442803236953, 0.044551016819187, 0.045614524529613044, 0.04662991445476657, 0.047773301319505156, 0.048947341434148285, 0.05015306803870641, 0.05139142265257109, 0.05264227695546829, 0.05395104353355761, 0.055293621459187994, 0.05672199354912499, 0.05812813084137749, 0.05954042109223481, 0.06102880916776358, 0.06255472656840633, 0.06407142374295353, 0.0656797505828786, 0.06737936205689878, 0.06905386629392565, 0.07076909633857349, 0.07254228012762935, 0.07433732900549714, 0.07613522478872166, 0.07801967195138391, 0.07994417575774052, 0.08186975312184071, 0.08388042002923365, 0.0859666802960175, 0.08805103693159848, 0.0901774617881621, 0.09224645189555593, 0.09447016027241818, 0.09680693127813113, 0.09909592874856313, 0.10142794687720004, 0.1037230832103542, 0.10615157457218702, 0.10861362756623807, 0.11112109951662327, 0.11366838970223915, 0.1162809785768532, 0.11890634293933676, 0.12159402504147675, 0.12430230929195003, 0.12705454635342453, 0.12977192225196008, 0.13262166561821886, 0.13550138407358628, 0.13843108066023133, 0.14140028365746796, 0.14440412254350443, 0.14745404472135776, 0.1505860320608393, 0.1537110113548069, 0.15687873239166011, 0.16009152961754214, 0.16334351896581525, 0.16666765083570023, 0.16999941572742217, 0.17337412257597798, 0.17669014903683117, 0.18016166531065736, 0.183656840363107, 0.18720101659681698, 0.1907803827682126, 0.1944606857761837, 0.19810253775509234, 0.2017572580056608, 0.20548002669195348, 0.20923921440590604, 0.21299900788961168, 0.2168342906037948, 0.22076568933203225, 0.2246591258442066, 0.22858880281297272, 0.23247520442252392, 0.2364848846080452, 0.24056333370279304, 0.244626724199946, 0.24872136904351452, 0.2528269882325732, 0.25698479444939953, 0.2611643150460745, 0.26537898811595756, 0.26962051125578207, 0.2739159006548236, 0.27820601277175233, 0.2824926468192885, 0.2868390938097175, 0.2912088107242654, 0.2955893634960964, 0.3000051910254095, 0.3044245831310809, 0.30888316637766455, 0.313360101143036, 0.31785612393490315, 0.32236781829476974, 0.3268803199024322, 0.33142637011840514, 0.3359865860537126, 0.34061144561966744, 0.34519144075324876, 0.3497338268907749, 0.3543489500642684, 0.35897355311743884, 0.3636514567821132, 0.3682870072083393, 0.37292552765549264, 0.37757971286030295, 0.3822405677365095, 0.3868583833557662, 0.39153518853433183, 0.3963121078951136, 0.40097637820337517, 0.4056450604805148, 0.4102784434499121, 0.4149558035483991, 0.4196463394926351, 0.4243153764010699, 0.42890425077168687, 0.4335734177796241, 0.438231606932918, 0.44292798757786045, 0.4475558310312761, 0.4521995222570868, 0.4568020312323123, 0.46139313971578844, 0.4659228652674191, 0.47049298929585903, 0.47505915214825595, 0.4795896898416677, 0.48410065517166456, 0.4885777798668292, 0.49304779667692267, 0.49752813081415714, 0.5019451930495811, 0.5063382260337261, 0.5106337074130366, 0.514983686034633, 0.5193539731518264, 0.5236322517358136, 0.5278797642776183, 0.5320926104181355, 0.5362750984203999, 0.5404241741678733, 0.5445358128278953, 0.5486103342925519, 0.5525992800730567, 0.5566018321689497, 0.5605530536921893, 0.5644688414525206, 0.5683390094146913, 0.5721928755068691, 0.5759653970537556, 0.5797503540190169, 0.5834210354741856, 0.5870460550244975, 0.5906145744328838, 0.5941445289231613, 0.5976143508707245, 0.6010421688483828, 0.6044157729018012, 0.6077116276599928, 0.6109759437872321, 0.6141759264420178, 0.6173217607217862, 0.62040627379117, 0.6233983753502963, 0.6263612976955842, 0.6293109139314933, 0.6321349822207596, 0.6348948527419239, 0.6375054379875817, 0.6401441471215279, 0.6427657283495974, 0.6452526721172733, 0.6476697145794239, 0.6499700459284602, 0.6522504064951731, 0.6544949906160037, 0.6566196420795332, 0.6586703904094952, 0.6606647561558735, 0.6625628689768519, 0.6643279323983508, 0.6660817512938293, 0.6677551941988217, 0.6693190278495176, 0.6708342215661018, 0.6722780468534988, 0.6736252143344975, 0.6748894635299212, 0.6761386586855583, 0.6772274038200565, 0.6781454906693665, 0.6790844651566821, 0.6799364530733458, 0.6806804158619895, 0.6813609017681171, 0.681989717452985, 0.682488813067071, 0.6829016373446902, 0.683244936891244, 0.6834821621806173, 0.6836764936033759, 0.6837354981344885, 0.6837100154367919, 0.6836006993200013, 0.6834041844041071, 0.6830113398679521, 0.6826560259528952, 0.682207577846314, 0.6817164250244401, 0.6810771136636731, 0.6803989310546525, 0.6795759510745968, 0.6786672073000232, 0.6776619197122546, 0.6765821914186174, 0.6753157840742611, 0.6740746926301531, 0.6727410933790645, 0.6714077223162579, 0.6698801981600778, 0.6682757963538619, 0.6665778316799925, 0.6647957241528641, 0.6628325172179872, 0.6608947893461218, 0.6588811061829231, 0.656764647965407, 0.6545619571245506, 0.6522765471600672, 0.649903713635788, 0.6474067584279265, 0.6448729816477282, 0.6422551287257843, 0.6395819050074836, 0.6367958592717166, 0.6340001792846914, 0.6310478825186278, 0.6280220375594453, 0.6248744207298075, 0.6217086260117562, 0.6184965867429424, 0.6151778710967364, 0.6117875562675688, 0.6083067067938801, 0.6047779511762607, 0.6012090280852512, 0.5975368249237617, 0.593798081993647, 0.5899398636618639, 0.5860774262884875, 0.5821900933647326, 0.5781900347222065, 0.5741283040163508, 0.5699010370585806, 0.5657324828473966, 0.5615560951195399, 0.557253956249016, 0.5528947131881649, 0.5485073404963017, 0.5440346921356486, 0.5394333813710757, 0.5348691841128117, 0.530251822549432, 0.5255713834424545, 0.5208548124923049, 0.516179143911008, 0.5113565646726541, 0.5064943656735924, 0.5015175242088302, 0.4965889280286795, 0.4916499409431397, 0.4866382311427784, 0.481591264243051, 0.47647907755583524, 0.47137013671330397, 0.4662654707721043, 0.4610887691016558, 0.4558852275262915, 0.4506313695792725, 0.44538165409056873, 0.4400713602646676, 0.4347802811360396, 0.4294666667059516, 0.4241259261350966, 0.4187739276481924, 0.4135018623060912, 0.4081052224447218, 0.4027006518255877, 0.39724590627176865, 0.3918341379371229, 0.38636416730736584, 0.38094634082001116, 0.37552173232403363, 0.37009757173190383, 0.36466463583302544, 0.35922445927565316, 0.3537927929655804, 0.3483636525387312, 0.342971624016576, 0.33754873458989476, 0.3321997630105822, 0.3267894688769373, 0.32139529732961536, 0.3159486533413626, 0.31059835872524183, 0.30529473276302405, 0.29997249401767534, 0.2946705068654203, 0.2893153640492464, 0.2840674207752957, 0.27892489468340065, 0.27370846200319615, 0.26852085253467955, 0.2632779559860738, 0.2581622450565721, 0.25308195242683895, 0.2480222290307332, 0.24299419270370567, 0.23802444280835805, 0.2330616024939656, 0.22817343589237224, 0.22328315662756998, 0.21843942147340634, 0.21363483310131065, 0.20887502873060892, 0.2040717743122993, 0.1994157105952492, 0.19481676506988632, 0.19024595386357288, 0.18572194868907793, 0.18126452317651068, 0.17683597425947642, 0.1724934091973349, 0.1681653900988532, 0.1638932947389851, 0.15970803144988524, 0.1555461873193569, 0.1513431758696459, 0.14731425997167816, 0.14334051323104566, 0.13951247423291177, 0.13564172924253817, 0.13174835845516525, 0.12801683169097555, 0.12434516750488525, 0.12083022325096013, 0.11726940829876563, 0.11375854494092681, 0.11033679481032208, 0.10698258374228826, 0.10359653622059808, 0.10039094939611097, 0.0972626744105786, 0.09418213563254003, 0.0911673938389118, 0.08825071097633644, 0.08536584633560346, 0.0825217967109202, 0.07978022815154899, 0.07710728215690521, 0.07450211128318619, 0.07196790599200062, 0.06948771611870455, 0.06709530784299685, 0.06477230697862017, 0.06255313143334021, 0.060365508516211565, 0.05822109689468127, 0.056181113223000234, 0.054211263556329874, 0.05234438227182257, 0.050510729044461085, 0.048716232991763156, 0.047030258162422886, 0.04541364670021746, 0.043855776983569426, 0.04237878824171129, 0.04097529847059228, 0.039633972719125006, 0.03836078621492709, 0.037249861258224375, 0.03610001080970059, 0.034941193390400256, 0.03394514633040873, 0.03301455937411301, 0.03219359648663563, 0.03138695155775815, 0.030612752086566945, 0.029942617238344946, 0.029335325915551696, 0.028802074092292303, 0.02831711961527069, 0.02784391044117589, 0.027487646952793418, 0.02718857758567193, 0.02693316190512211, 0.026748802055753414, 0.026706006001034416, 0.026620177883971353, 0.02659312232929455, 0.026639249726709974, 0.026723788053486706, 0.026768320766323624, 0.026975081133450023, 0.027229484786198056, 0.027525733155189323, 0.027874359616034322, 0.028372094061303206, 0.0287978769326418, 0.029273480287767873, 0.02976969925057436, 0.030343500573565076, 0.03097911191117662, 0.03163618398929101, 0.032335141668141866, 0.03307717593637715, 0.033855299332123376, 0.03460432865146687, 0.03546512315245512, 0.03635719807901292, 0.03724824948588412, 0.03820434181124469, 0.03927258022865265, 0.04027094343041082, 0.0412994644105589, 0.04233430031626104, 0.04342134991184616, 0.044564228781582095, 0.04569469963026044, 0.04684869203661412, 0.04792627413410356, 0.04913511437483517, 0.05041377934020405, 0.0516416465856042, 0.05288465536898182, 0.05407724956119815, 0.055354814445121844, 0.0566505442813063, 0.05794134621603542, 0.05923878454246584, 0.060616638156729574, 0.06191489028525265, 0.06324712606040273, 0.06455586339600236, 0.06587047691019988, 0.06711569699261388, 0.06844597586620882, 0.06986064986900926, 0.07117180598881914, 0.07248232066528308, 0.07372221221378344, 0.075034823868469, 0.07635360720442506, 0.07764407548890714, 0.07892381856012907, 0.08021529033093759, 0.08146713941514633, 0.08278354492682008, 0.08399863235687416, 0.08520264939563475, 0.08641472626869204, 0.08758848974191447, 0.08866185542391526, 0.08981440806309351, 0.09094371316942675, 0.09210403773393744, 0.09317741471907766, 0.09426490933341077, 0.09528717656023664, 0.09628646720333271, 0.09732432588323944, 0.09826554423069025, 0.09912300121026839, 0.10002333672991107, 0.10089366737705928, 0.10183145042029249, 0.10262662568478981, 0.10339864988748158, 0.10413759619537807, 0.1048467016255341, 0.10557449331287194, 0.10621378570425566, 0.1068119485904525, 0.10738991812756381, 0.10793405180284432, 0.10841447520745749, 0.10889164465877697, 0.10940014781598073, 0.10979167117117637, 0.1101479985969754, 0.11042753173969169, 0.11071591828787104, 0.11106011375406565, 0.11125621449976025, 0.11141721609649265, 0.11149624514843982, 0.1115900991354188, 0.11175265779700677, 0.11175219632478246, 0.11171730371983911, 0.11163782009924147, 0.11153245151380084, 0.11140147148871415, 0.11121930906239251, 0.11099956822401473, 0.11077862669658484, 0.11047813990296008, 0.11015581891772663, 0.10978062351280969, 0.10936937415332783, 0.10894805236143965, 0.1084607314306737, 0.10798430359142436, 0.1074209857280729, 0.10682501957263402, 0.1061869055627443, 0.10552598796557079, 0.10484053458552645, 0.10411115156316948, 0.10334892141045918, 0.10261966477576313, 0.10178424117289443, 0.10086289466916185, 0.0999782972743677, 0.09916065073311454, 0.09820141881760476, 0.09721764642689108, 0.0962250363493442, 0.09519021963656708, 0.09411629849518112, 0.09303696066289116, 0.09193392821253417, 0.0907500565402251, 0.0896087243847326, 0.08850405554730831, 0.08730621036959742, 0.0860893509358723, 0.08485030584744893, 0.0835982697214514, 0.08237800606079555, 0.08108727998620448, 0.07978449497238736, 0.07847949211661712, 0.07715348944805843, 0.07579324107785122, 0.07445255535694885, 0.07310284318417472, 0.07174918641369202, 0.07038439616876645, 0.06899728135542563, 0.06762530365106159, 0.06624952588704996, 0.06492118147560846, 0.06353567176212317, 0.0621231682095438, 0.06074882207462811, 0.059378006874122875, 0.05802780230054995, 0.05666608810422903, 0.05541252852011602, 0.05405638381322171, 0.052716809471177364, 0.051391668783847676, 0.050087144900872294, 0.04880871636778985, 0.0475404744521497, 0.04629263521033324, 0.04498479199325977, 0.043790869608098186, 0.04269445305711129, 0.04152995224651095, 0.04039217019061984, 0.039269059967104364, 0.038189633484665746, 0.03718151587237208, 0.03615675593246483, 0.0351663144690013, 0.03419938732447716, 0.0332821323749725, 0.032325611138583336, 0.03149283508605693, 0.03069509282056067, 0.03002477635243524, 0.029291249103003066, 0.02853247219945558, 0.027900044616390184, 0.02731122031946685, 0.026808279826917504, 0.02630632968931906, 0.025844493259581873, 0.025446247835808768, 0.025100348772926905, 0.024817225906765, 0.02457858855739743, 0.024422748113436126, 0.02429504910314182, 0.024227636795316546, 0.024205672511094057, 0.024263544114815756, 0.024397994211695355, 0.02457940266834116, 0.024825882022105488, 0.025038662881630303, 0.025430647062941, 0.02598061484543577, 0.026486660021056582, 0.027063618380284697, 0.027661063693441526, 0.028388508135061195, 0.02913240584743788, 0.030008251621148382, 0.030953524361456534, 0.03197623513692227, 0.03306378254026961, 0.03427238821681346, 0.03550273749350457, 0.036811690024925424, 0.03820374351636526, 0.03967106894885978, 0.041165054422820646, 0.04280051711486059, 0.04451429563744304, 0.04632166499149211, 0.04819271293300076, 0.050138640989545166, 0.05217390843343764, 0.0542912223029617, 0.05648842657996301, 0.058771514190532545, 0.06109052512636545, 0.06354620816916969, 0.06608300725895662, 0.06876318989274965, 0.0714561855912853, 0.07418024491118595, 0.07705237666048466, 0.08000727713201918, 0.08313310214097408, 0.08624317141737887, 0.08943367449243333, 0.092720708223343, 0.09609435413938403, 0.0994517728802371, 0.10301000798566678, 0.10665542523149724, 0.1103715986936074, 0.11416804040137676, 0.11811956162681903, 0.12206713615431466, 0.12610037528789897, 0.1302156989035958, 0.1344138730633054, 0.13859703847037727, 0.14297080668420697, 0.1474982978967884, 0.15201213616410572, 0.15660526605497194, 0.16117583118326195, 0.16593773596495942, 0.17078902224913733, 0.17569055417784482, 0.18066384382600956, 0.185701871553268, 0.1908180394245002, 0.19601052841361125, 0.20126475087160944, 0.20658774702723884, 0.21192358776956852, 0.21738852570262254, 0.22291777280041497, 0.22850798019738552, 0.234160035913186, 0.23988628791191735, 0.24565798809648967, 0.2515329990639593, 0.2574181616145341, 0.2633634959557719, 0.2693044738643672, 0.2753734092061747, 0.28154542773066005, 0.28771067476302437, 0.29392850324219394, 0.3001185941264855, 0.3064466781690652, 0.3128272351733441, 0.3192397324587059, 0.3256939331985005, 0.3322449922297288, 0.33877165994351005, 0.34531434430920815, 0.351924164982912, 0.35856978153382013, 0.36518919413269735, 0.3719090270967052, 0.37860375894526976, 0.3853837273680779, 0.39218557674412424, 0.39899654462295825, 0.40584066133241575, 0.41269491838322797, 0.419574873608849, 0.4264699451150338, 0.4334234317083042, 0.44033911360123074, 0.44720268285884834, 0.4541517121197035, 0.46110673614032976, 0.46807423080107574, 0.4750359887974519, 0.4819735423391905, 0.48894101131289025, 0.49590566114389306, 0.5028410287058612, 0.5097985077340115, 0.5168519065606569, 0.5237765831232076, 0.5306950637218921, 0.5375156854888407, 0.5444257055180904, 0.5513658173087511, 0.5582312238804729, 0.5650776805692805, 0.5718283553120381, 0.5786401868950811, 0.5854450260353048, 0.5921940415543866, 0.5988596638358107, 0.6055517622717925, 0.6122065684986682, 0.61888048043538, 0.6254493887517182, 0.6318961567388004, 0.6383973445358125, 0.6448517412613007, 0.6513472978177117, 0.6576930344737516, 0.6639773227360715, 0.6702315011382515, 0.6764348715030164, 0.6825737174253119, 0.6886712604002706, 0.6946119979988045, 0.7006061845559348, 0.7065342197337507, 0.7123912758401345, 0.7181847475690845, 0.7239286140457517, 0.7295799651699177, 0.7351609421287912, 0.7406361098735738, 0.7460766392391102, 0.751457888783531, 0.7567425003992815, 0.761949503211366, 0.7671510488442183, 0.7721896289173948, 0.7770917697636195, 0.7819810870819457, 0.7867859568922488, 0.7915483936301291, 0.7961750934810579, 0.8006150009486057, 0.8050813153101164, 0.8094530865583215, 0.8138214958295875, 0.8179906153516923, 0.8220565069478739, 0.8260427944922603, 0.8299341092740448, 0.8337147774797337, 0.8374142895397131, 0.8409449233329725, 0.8444535368030743, 0.8478569808305891, 0.8511391715184405, 0.8543332023596453, 0.8574292366099135, 0.8604074505412347, 0.8632783726795616, 0.8660573162712301, 0.868710374873379, 0.8712242427910868, 0.8736652977073954, 0.8759957679980583, 0.8782429316290864, 0.8803479400208217, 0.8823234160953318, 0.884210703855847, 0.8859860751186284, 0.8876427037631255, 0.8891942845519158, 0.8906210235183115, 0.891947864775618, 0.8931607051729765, 0.894266074421973, 0.8952500069381193, 0.896163538113703, 0.8969145790507271, 0.8975542995108894, 0.8981217107025314, 0.8985328667643185, 0.8988275445500266, 0.8990192405225716, 0.8990998518471711, 0.8990521286443655, 0.8989122176220623, 0.898579905534936, 0.8982255141472623, 0.8977546532125937, 0.8972600671082147, 0.8965474032009498, 0.8956697105052722, 0.8947470405549848, 0.8937128844852776, 0.8925823886742048, 0.891325601800136, 0.8899931242344177, 0.8885158699194675, 0.8869332952313054, 0.8852196116622284, 0.8834311140762297, 0.8815373498675724, 0.8795391582402952, 0.8774374069245608, 0.8751595364983624, 0.8728626686494997, 0.870554020082569, 0.8680371228087898, 0.8654236323851627, 0.8626985435945165, 0.8598961226829461, 0.8569133467847466, 0.8539325486552134, 0.8508539683427396, 0.847776456058439, 0.8444953387026451, 0.8411375822047588, 0.8376817398023046, 0.8341411522199025, 0.8304852458398319, 0.8267819367819709, 0.8229884749567875, 0.8191201540666695, 0.8151705884296302, 0.8111595868400785, 0.8070495597468194, 0.8028374643973476, 0.7985804281341233, 0.794248803097531, 0.78978649176485, 0.7853178414910619, 0.7807552376578507, 0.7761454001727972, 0.7714655493620137, 0.7667125991662306, 0.7618998050071472, 0.7571240066097565, 0.752172468738952, 0.7471666206824022, 0.7420000388969364, 0.7369026420193827, 0.7318311307174193, 0.726611959948788, 0.7213449736615184, 0.7160407592876163, 0.71068123491593, 0.7052223327718387, 0.6997854256940785, 0.6943052866604663, 0.6887576426083651, 0.6832002145998443, 0.6775855289732478, 0.6719547391113705, 0.6662881878451995, 0.660654938359516, 0.6549148505701542, 0.6490690823907956, 0.6432892580172972, 0.6374822623396356, 0.6317342168853574, 0.625868723604474, 0.6198966104558076, 0.6140116734214182, 0.6081082592482775, 0.6021871960038243, 0.5962533536482147, 0.5903898450937759, 0.5844229358316464, 0.5784522915185318, 0.5724922651821787, 0.5665162442188281, 0.5604098887770518, 0.5544533711284811, 0.5484928642612001, 0.5426094510465059, 0.5366380584944612, 0.5306765715547291, 0.5247208878371805, 0.5187755880680177, 0.5127608046688472, 0.5068509307537161, 0.5010522546270925, 0.4951521155753938, 0.48927198100097696, 0.4833329754387683, 0.477506410439722, 0.47166999890000466, 0.465886958690495, 0.46012495455283703, 0.4544541575218463, 0.4487314043952049, 0.4429643881227864, 0.43731327425106653, 0.43169082469254383, 0.42610537529384335, 0.4205446788016914, 0.4150994429010544, 0.40959824020170954, 0.40413869298657423, 0.39868875254406794, 0.3933189256804293, 0.3879663130332463, 0.38268499785656424, 0.3774465801873345, 0.3721985364018407, 0.36705643977654306, 0.36197491796220804, 0.35691927694695785, 0.35191115650116667, 0.3469491855284823, 0.34204013240213776, 0.33717940248513817, 0.33237367102419213, 0.32772581378601967, 0.3230137021813187, 0.31836238979033954, 0.3136565153395507, 0.30914165988617326, 0.3046985503042405, 0.30029207424877524, 0.2959434657711269, 0.29166407627318, 0.2874323970172013, 0.28331668419352607, 0.27920041285193414, 0.2751493207752355, 0.27107432433484807, 0.26716522632254125, 0.2633363735886192, 0.2595468073192491, 0.25582059457087963, 0.25224093883734905, 0.24863263285869633, 0.24500991836038824, 0.24155106425149084, 0.23815659082971186, 0.23483880479258057, 0.23157304664184564, 0.22842088730559107, 0.22528215626468906, 0.22221290060969906, 0.2192325853858145, 0.21629917350853592, 0.21340032678493961, 0.21061101242967178, 0.2078890282768805, 0.20520680965585328, 0.20262288939341988, 0.20009938172092606, 0.1976475770653558, 0.19526135289469568, 0.1929801357551221, 0.19072027191093058, 0.18854925842527137, 0.186422079528974, 0.1843631613852933, 0.18230110443928788, 0.18038597339303844, 0.17856231721943142, 0.17676880234758713, 0.1750395171728093, 0.17339774037416278, 0.17179290357659466, 0.1702197444073665, 0.16874738552114146, 0.16733643547751464, 0.1660337617388054, 0.1647385585192512, 0.16348656267014255, 0.16231876898483746, 0.16121108002276924, 0.16009724985482215, 0.1591160688077978, 0.15826143813816193, 0.1573797799168989, 0.15655616139357928, 0.15568474802156262, 0.15498778718953163, 0.15437177761385792, 0.1537697339180851, 0.15321873685356227, 0.1527432136558983, 0.152289618299779, 0.15180680817551745, 0.15146407976888188, 0.15116594617240253, 0.15100136366928843, 0.15078032853692405, 0.15049771599484255, 0.150386606773364, 0.1503155044336913, 0.15035494394933158, 0.1503539135175004, 0.15030387853603142, 0.15039896109469386, 0.15052945457862757, 0.15078810355946606, 0.15097639462934923, 0.15113700603729618, 0.15141081065199502, 0.1517173478540568, 0.15208206393734083, 0.15244834342978533, 0.15284109451813752, 0.15327036161137184, 0.1537288242174855, 0.15420360125189447, 0.15471871388618585, 0.15528010192372918, 0.15584214179419142, 0.15642864257103056, 0.1569479066360441, 0.1575912129650338, 0.15826741441875977, 0.15893981953170566, 0.15962808204515624, 0.16033017020492094, 0.161048106537771, 0.16175985653536104, 0.1625064257187497, 0.16326368077124395, 0.164092535958201, 0.1648611173409907, 0.16554575850498973, 0.16634872958351954, 0.16715548358367954, 0.16802584809135565, 0.16883094154801487, 0.16962836716716412, 0.17044484902232285, 0.17126372368185167, 0.17208920846244657, 0.1729091208188424, 0.1736394493053316, 0.17446880665365405, 0.17529066961746007, 0.17618867286194204, 0.1769839145449234, 0.17777390145310618, 0.1785602341090956, 0.17934020605936296, 0.18012188678309385, 0.18088466902329017, 0.18153866793401274, 0.18229476689271135, 0.18303401346908832, 0.18380995891645643, 0.1845079486166714, 0.18513875834700752, 0.18581312086415203, 0.18646816158884824, 0.18711660167457178, 0.18773011184195018, 0.18834996617807767, 0.18891977336391802, 0.1894699393161638, 0.18995371841040928, 0.19046791965464538, 0.19096139397714962, 0.19142537070267285, 0.19186407619560328, 0.19231900654405565, 0.19270041586974415, 0.1930364563570749, 0.19337091585323582, 0.19367817523861197, 0.19399568029913164, 0.1942419651245087, 0.19442603656262084, 0.19462235486651647, 0.19478824462911368, 0.19496391168898086, 0.19506244646802112, 0.19510527305912997, 0.19514743703806392, 0.19515723202535026, 0.1951945770517381, 0.19513077101214085, 0.19504991240001493, 0.19492327475099275, 0.19476561874068254, 0.1945499306708992, 0.1943312999532609, 0.19415941080842553, 0.19386099428395326, 0.19353192749791423, 0.19311620793975362, 0.19273018956444796, 0.19237099699708024, 0.19190459821584152, 0.19140533533299628, 0.1908122819427286, 0.19025324775527833, 0.189663025959375, 0.18902782023114476, 0.18835554610740646, 0.1877250223422695, 0.18696902665537812, 0.1861138803634822, 0.18530136561961105, 0.18445199583249985, 0.18357126261671955, 0.18264826391776962, 0.18175767781978872, 0.18075469591839313, 0.17972022658587483, 0.17860807433598536, 0.17751565896771607, 0.1764882500294445, 0.17531417310192748, 0.17411164262934764, 0.17284871877197794, 0.17159199947901962, 0.17032500445798543, 0.1690032141685939, 0.16765292237539484, 0.16627138460765978, 0.1648602633070586, 0.16341184936652683, 0.1619430954815939, 0.16042922225027534, 0.158904077983217, 0.15734945981712578, 0.15580791056846452, 0.1541907548218169, 0.15264135283014216, 0.1509619334199892, 0.14926294719559083, 0.14749941318516488, 0.14576591887352683, 0.14409617311247486, 0.14230643139144628, 0.14049947299020926, 0.13869735425597912, 0.13685254749247303, 0.13498093763342137, 0.13310477545015995, 0.1312117069361308, 0.12928492598926228, 0.12736102365592963, 0.12541105923425142, 0.12345516811314913, 0.12148314538497149, 0.1196020035528293, 0.11758660190895182, 0.11556995288735783, 0.11353808392689113, 0.11149884602507351, 0.10945632561482188, 0.10740241014506922, 0.10541686818270764, 0.10334111169370308, 0.1012640340374968, 0.09920656744612898, 0.09712416451374609, 0.0949762604104759, 0.09290245825069032, 0.0908254566173478, 0.0887933639630855, 0.08670668039349026, 0.08463792302090296, 0.08255419371933558, 0.08047474061163089, 0.07841324190834481, 0.07634242857484967, 0.07432964667227457, 0.07226673558874075, 0.0702148652889048, 0.06818484009824065, 0.06615474872090965, 0.06425029107876133, 0.06223206350380287, 0.06023401202931562, 0.05828338660995984, 0.056321486628173156, 0.05439140498843287, 0.05247076554091147, 0.05057206206911478, 0.04871378852107194, 0.046857150818272165, 0.04498488006882597, 0.043180968873778855, 0.04139930006994136, 0.039624956981825235, 0.037892272971612746, 0.036207138775419874, 0.03452039406995676, 0.0328610104635457, 0.031338721389225194, 0.029722903353673523, 0.028155010359331316, 0.026609979592547028, 0.025101930332435875, 0.02357593934913343, 0.02214942674567946, 0.020846801534061748, 0.019479278891632913, 0.018153236302646737, 0.016811150054641153, 0.015576033328310781, 0.014467888105668158, 0.013300740038262399, 0.012179427837200652, 0.011076611949539605, 0.010051159420452241, 0.009034136269843175, 0.008104296233929064, 0.007218889830502807, 0.006475984280054778, 0.005670157744403644, 0.004863380024543488, 0.0041701734685312694, 0.003527179325856555, 0.002978421180350246, 0.0024325948093550974, 0.0019534358801878825, 0.0015162334542579846, 0.0011353795976617397, 0.0007745163553953802, 0.0005121515331815466, 0.0002711897169482948, 0.00012491498688814795, 3.374564295547244e-05, 0.0, 2.184438764991136e-05, 0.0002092968354633928, 0.0003344899165432436, 0.000525428611051313, 0.000749225730107264, 0.0010755875211703235, 0.0014592122741368442, 0.0019143987895484035, 0.0024337569171741028, 0.0029652465798429427, 0.0036208656753306937, 0.004428188925247467, 0.00519839049375745, 0.006037734915341294, 0.0069068851655591495, 0.007889570625615499, 0.008905236018438796, 0.010026828915753202, 0.011214428878106293, 0.012531663980168285, 0.01384526469246244, 0.015151550447884087, 0.016617889643123048, 0.01815124464114363, 0.019830997663040365, 0.021490407276300257, 0.02312996420630502, 0.02494756643482282, 0.026832966573553895, 0.028792065273061638, 0.030814282672148034, 0.03297847317966431, 0.03513162624580931, 0.03735939862886124, 0.03963526741519135, 0.04201475250771676, 0.04445478010554366, 0.046980435561604805, 0.04957772750422792, 0.052190303221093415, 0.054938125144363574, 0.057799090557935744, 0.06067879339148565, 0.06363032181636072, 0.06659718883264955, 0.0696992244161163, 0.07293124740681986, 0.07616246283891519, 0.07946599737913561, 0.08283101197961161, 0.08627947041454363, 0.08983533515580212, 0.09342022927317159, 0.0970772899536328, 0.10073638901487171, 0.10454476815425576, 0.10841570773874397, 0.11235757412915492, 0.1163656528093576, 0.12046215779836994, 0.12459953126506845, 0.12879214534681263, 0.13306468345770542, 0.13740274244950013, 0.14176397797161436, 0.14623724290862125, 0.15075803650434766, 0.1553569130805162, 0.16001661190310582, 0.16475010299418558, 0.1695292724136405, 0.17442705695908203, 0.17932027175089513, 0.1842766658278698, 0.18920603620802404, 0.19429706399879462, 0.19945641531330743, 0.20465595645049095, 0.20991088006399217, 0.2152023264430474, 0.22056879665450438, 0.22604438072951868, 0.23150864710726887, 0.23702774286875838, 0.24255338604709406, 0.24818493532330094, 0.253820901336369, 0.25955545199313534, 0.2653351360245835, 0.27116480541292765, 0.27703282538489726, 0.2830353547319569, 0.288979270977144, 0.2948725053919262, 0.30092275053215045, 0.3070122100887814, 0.3132202675301852, 0.31937608392070005, 0.32553548785664865, 0.3317779181035493, 0.3380569725637955, 0.34440304735838023, 0.3507481025751043, 0.35707316439796777, 0.3634940062613233, 0.36994412424413153, 0.3763911428288017, 0.38290106957222486, 0.38944488732346766, 0.39600231956729104, 0.4025834103756055, 0.4091583576208504, 0.41578753756263664, 0.4224672793973231, 0.42912981182945104, 0.4358114728922019, 0.4425609095651683, 0.44927091471918784, 0.4559047583854323, 0.46266161972853675, 0.4694282043884218, 0.4762496035175198, 0.48302731061128024, 0.48978712996578844, 0.4965862738178925, 0.5033908043755141, 0.5101956436812264, 0.5170079885891892, 0.5238062491884117, 0.5306227097455242, 0.5374375457154014, 0.5442785094149455, 0.5510830979726885, 0.5578908258588913, 0.5646863184464764, 0.5714759084653175, 0.5781702413559685, 0.5849547381719731, 0.5917240231087791, 0.5984773652087888, 0.6052139558025353, 0.6119762028458312, 0.6186711208625457, 0.6253607084463435, 0.6320184706840438, 0.6386569768703728, 0.6452130924481679, 0.651816441838397, 0.6583467540690493, 0.6649007051252652, 0.6714230079233722, 0.6779011870002157, 0.6843595920897485, 0.690754577566842, 0.697146708434976, 0.7035009908314453, 0.7098639484266919, 0.7161343882519584, 0.7224276383366165, 0.7286140983337145, 0.7347638195134627, 0.7407936844540863, 0.7468748929235829, 0.7529279572501134, 0.7589128535885946, 0.7648502911323649, 0.770744334307269, 0.7765826390530527, 0.7823059472691443, 0.7880497005155375, 0.7937366668612388, 0.7993845100697334, 0.8049534258591786, 0.8104735103411229, 0.8159242484392406, 0.8213154918653726, 0.8266081086744559, 0.8318818947871578, 0.8370697892130317, 0.8422156401022379, 0.8472938171814729, 0.8522944691473753, 0.8572364088771955, 0.8621526282982243, 0.8669475890530616, 0.8716732935151383, 0.8762341757835982, 0.8808299605485295, 0.8854200286068609, 0.8898506742984699, 0.894206844211036, 0.8984389968585171, 0.9026493453943042, 0.9067388649602255, 0.9107934642576988, 0.914764472111159, 0.9186437383400856, 0.9224476610047169, 0.9261783518646914, 0.9298103428934574, 0.9333571875261533, 0.9367908029122739, 0.9401692092795642, 0.943502552171671, 0.9466984338706325, 0.9498076593034593, 0.952857018058468, 0.9557872039422042, 0.9585303952502177, 0.9612976725881741, 0.9639702986174237, 0.966573199651676, 0.9690533340382055, 0.9714190987281635, 0.9737147984893129, 0.9759152877510539, 0.9780243431844, 0.9800334206552531, 0.9820165045816817, 0.9838255354752004, 0.9855424957837049, 0.9871338080930105, 0.9886684942736909, 0.9901412414433007, 0.9914792222881661, 0.9927224917970059, 0.9938193754703958, 0.9948782010075988, 0.9958787441309377, 0.996734615893273, 0.9974939845566807, 0.9981303778497922, 0.998699391465894, 0.999180353088981, 0.9995510616096072, 0.9998240559000399, 0.9998983973732635, 0.9999889490153424, 1.0, 0.9998823009896458, 0.9996646562030326, 0.9993345775873055, 0.998920554295148, 0.9983892807651754, 0.9977804602593588, 0.9970730002246478, 0.9963607786293196, 0.9954464685697519, 0.9943543096634229, 0.9932682982837786, 0.9920860365156615, 0.990889593781361, 0.9895067594732572, 0.9879202945084312, 0.9863729047916177, 0.9847297527582038, 0.9830378473539132, 0.9812006147439517, 0.9793074579352429, 0.9772864601973998, 0.9751785723972418, 0.9729605482309472, 0.9706830113278889, 0.9683473655493897, 0.9658929524834561, 0.9633546251052157, 0.9606384585209956, 0.9579458473569661, 0.9552667254294996, 0.9523877417541876, 0.9494297066001798, 0.9463603423119492, 0.9432499581455296, 0.9399895798588497, 0.9367307821758336, 0.9333907757078231, 0.9299658745837345, 0.9264687439783794, 0.9228841476193037, 0.9192358635563564, 0.915512906652145, 0.9117862714576673, 0.9079095625928046, 0.9039821335632621, 0.8999713275756758, 0.8958966185286215, 0.8917496010958045, 0.8875506330907849, 0.8832621962578765, 0.8789438732391452, 0.8745641342729092, 0.8700823049383247, 0.865588945510453, 0.8610790139121991, 0.8564621166331703, 0.8517910579205885, 0.8470880614240547, 0.8423097513198174, 0.8374533562209138, 0.8325813529976896, 0.8276607642679825, 0.8226930024641791, 0.8176794809978152, 0.8125757050580671, 0.8074807147964793, 0.8023206503013737, 0.7971419285124132, 0.79192147581787, 0.7867228166407125, 0.7814166746478861, 0.7760186963151006, 0.7706556257675633, 0.7652589095665491, 0.7598958758042248, 0.7544287641925012, 0.7488423561484956, 0.7433385834105244, 0.7378069034653, 0.7322466256686748, 0.7266651962690133, 0.7210495165370685, 0.7154264665363629, 0.7097838118788353, 0.7042020300178639, 0.6985154884450938, 0.692805815167287, 0.6871019025791608, 0.6813892789656877, 0.6756940483155737, 0.669964416187057, 0.664224515149686, 0.6584893257004619, 0.6527521647824404, 0.6469971399762182, 0.6412616949016028, 0.6354940756577586, 0.6297653717934084, 0.6240381600411731, 0.6183061862235382, 0.6125877648569582, 0.6068305352650302, 0.6011309065542805, 0.5954376747201048, 0.5897645025819852, 0.584088065556094, 0.5785001091742498, 0.5728404019401891, 0.567200407349701, 0.5615704708262749, 0.5559737792134363, 0.5503948903219823, 0.5448431837881437, 0.539315029016482, 0.5337537740020478, 0.5282832105740448, 0.5229030490801352, 0.517472564771604, 0.5120723334345062, 0.5066153429921086, 0.5012893587169146, 0.4960569334027601, 0.49078021407112815, 0.48553828580031155, 0.48029534388725914, 0.47513040443386334, 0.47000225632412784, 0.46490930676704334, 0.4598542570467116, 0.45482377410757163, 0.4498495949815088, 0.4449209204200992, 0.4400276893662351, 0.43517715283399366, 0.4303715799416085, 0.4256090998947619, 0.42082918336723596, 0.4161665493189313, 0.41154754361872264, 0.40705476780742444, 0.40251647097893195, 0.3980233634226004, 0.39358975479566344, 0.3892082602355488, 0.3848084764994224, 0.38054144780445565, 0.37631727168487233, 0.3721508754277757, 0.36803540497502013, 0.36397829964468104, 0.35996641891402653, 0.356042358933076, 0.35213421785125926, 0.34828289105824023, 0.3444309044574452, 0.34070121272144405, 0.33702053164112866, 0.33340068166272113, 0.32983604922162085, 0.32640852605715404, 0.3229456774458046, 0.31945360450330557, 0.3161244899978415, 0.31285105470107544, 0.3096613454250743, 0.3064972172939735, 0.3034362056605351, 0.300383556093517, 0.29739205871728647, 0.2944587539489033, 0.2915889015400862, 0.2887738477613284, 0.2860244772364621, 0.2833343186250172, 0.28064281236707483, 0.27807803844502044, 0.27556841176355695, 0.273114178403383, 0.2707155156045955, 0.2683882769103951, 0.26609904467771833, 0.263816585773183, 0.26164671056737204, 0.25953026037976895, 0.25746476632517284, 0.2554558814734853, 0.2535411671389965, 0.251634110627228, 0.24978268701239245, 0.24800476231559446, 0.24626077458967546, 0.2445115751102044, 0.24288478099460262, 0.24130835460515568, 0.23986867217560162, 0.23838138864895803, 0.23694070260832842, 0.23556229634615405, 0.2342358506193725, 0.23289093225834123, 0.23167448220843342, 0.23051915994688832, 0.22939120111259045, 0.22830887133021252, 0.2273293599445947, 0.22632938343794773, 0.22527954177670856, 0.22438516322324137, 0.22353041731328593, 0.22275441914518054, 0.2219731830349642, 0.22120007720677734, 0.2205040821010134, 0.21984565181353805, 0.21930165878126837, 0.21870697290777769, 0.21814594813445073, 0.21763126430657787, 0.21715394182429812, 0.21662889894720969, 0.21623354255857782, 0.21592916752452007, 0.2155842952150783, 0.21527138253005504, 0.21500779194223446, 0.21475348164411198, 0.21443736457019155, 0.2142535635345271, 0.21409239668833044, 0.21398106947556933, 0.21386059560737317, 0.2137709430191715, 0.2136946197931911, 0.21364015166729755, 0.21362241257757747, 0.21360705355436724, 0.21359081358830986, 0.2136172981471986, 0.21366067486019183, 0.2138014329851146, 0.21386579058957253, 0.21390315190786907, 0.21400962037020618, 0.21412945925776877, 0.21424460750472504, 0.2143903327883417, 0.21449171290862193, 0.21466228130667914, 0.2148376108669085, 0.21503435410824945, 0.21521579600078403, 0.2154842353242356, 0.21566326569085192, 0.21584990648914662, 0.21603752558717604, 0.2162359629662567, 0.21636955135850228, 0.2165821778155291, 0.2167920758442036, 0.21707349936994041, 0.21726692147346213, 0.21746937819349893, 0.21766016238482133, 0.2177296432958514, 0.21793049871466655, 0.2181204872200657, 0.21832970598211146, 0.2184938611173267, 0.2187402463357625, 0.21887311568750445, 0.21900053567246236, 0.2191028760570284, 0.2192180011530265, 0.2192260183459798, 0.2193324384063991, 0.21942162650255878, 0.21949749136109026, 0.21955158134194977, 0.2196041558897959, 0.21962153370495605, 0.2196220841375829, 0.21958048437250563, 0.21954932065501098, 0.2196023296294079, 0.21951894169868946, 0.21942145447012995, 0.21920908010084186, 0.2190927893199883, 0.2189642545549351, 0.21880110426518265, 0.21861565935935712, 0.2184903583531093, 0.21824926880751963, 0.21792955839336195, 0.21765864593568884, 0.21736437084407753, 0.21703336799828968, 0.21669329023975037, 0.21632708390850058, 0.21593742359534063, 0.21552264139975538, 0.21506951399341537, 0.2146058279370919, 0.21410022728051992, 0.2135861882255341, 0.21304509395904947, 0.2125662586333941, 0.21196011321998967, 0.2113584566271979, 0.21070486173819794, 0.21002979108052097, 0.20929582084699835, 0.20858045009439127, 0.20776103250638842, 0.20700478795772523, 0.20621854925621305, 0.20540419877821706, 0.2045594726022329, 0.20375461608154977, 0.20284502894921508, 0.2019117844200486, 0.20097571031631778, 0.19999206735823769, 0.19888329509907282, 0.19786676195592057, 0.1968213437528961, 0.1958291104259287, 0.19471782214064856, 0.193527897122207, 0.1923792296515607, 0.19120512315775393, 0.19006904008514688, 0.1888375819080829, 0.18750304029874035, 0.18624109476607786, 0.18495403319460635, 0.1836583219113811, 0.18232118001939476, 0.1810287772634349, 0.17963936740693015, 0.17823255816819028, 0.1767532132846438, 0.17531849943548125, 0.1738344861474258, 0.17236310866249063, 0.17087080676301583, 0.1693295153021505, 0.16780135738423013, 0.16628048383195188, 0.16470925771333095, 0.16312114001303055, 0.16160069987466438, 0.15997003345750724, 0.15830933831830027, 0.15666036926445923, 0.1549998525219231, 0.15328734811473493, 0.15160959067673715, 0.1499817649164581, 0.1482706605698538, 0.14655140146755277, 0.14482020941862456, 0.14308566772904271, 0.1412528840531907, 0.1395146647140817, 0.1377643662892676, 0.13600051469229169, 0.1342297786816009, 0.13253404158417276, 0.13073580076540495, 0.1289352939795835, 0.12714194990315358, 0.12533653668207295, 0.12347646723361372, 0.12167639901078085, 0.1198730750294001, 0.11805943621816994, 0.11625300954265479, 0.11452658685477282, 0.11270805449066941, 0.11089438143550422, 0.10909093639107596, 0.1072867458620261, 0.10543316170380072, 0.10364757813844416, 0.10186514074569852, 0.10008269495853062, 0.09830937222732335, 0.09664882631449871, 0.09487310280462496, 0.09311014315933348, 0.09128504443518733, 0.08955674862525459, 0.08787491421725081, 0.08615936136851979, 0.08445577158495499, 0.08275009713556307, 0.0810734274550316, 0.07944323447831884, 0.07778756347504388, 0.0761473122940877, 0.07461328222547672, 0.07299334203164716, 0.07132273432021768, 0.06975452077351833, 0.06820315096883935, 0.06671497650540355, 0.06519283102328124, 0.06373344944328123, 0.06224768580650082, 0.06078534004576781, 0.05936727045344838, 0.057948801486656765, 0.05658363343231679, 0.055210321152338294, 0.05386298436257081, 0.05253095781763824, 0.05123647022706021, 0.050035311230226164, 0.04878258072895169, 0.047559127245610344, 0.04634233152942696, 0.04517939210019595, 0.044092342603778645, 0.042978108475662836, 0.04189425615596321, 0.04094685544986195, 0.0399098798521311, 0.03884073854590753, 0.03788365282704414, 0.03695730038776619, 0.03614172151205342, 0.035266853884275154, 0.03446155212306794, 0.03365282170791077, 0.03288063177940959, 0.03217855036236297, 0.03147364119121885, 0.030850522566888253, 0.030213868575497273, 0.0296160419860102, 0.02898426399267405, 0.028471439594583058, 0.028027282000151206, 0.027576773080000738, 0.027162101202652836, 0.026841013860743244, 0.026490857973454615, 0.026237707953359717, 0.025958509106648948, 0.025721264928742334, 0.025472864794654153, 0.025324353048152802, 0.025264416241621814, 0.025184361583005754, 0.025144798004616054, 0.02512314882503377, 0.025166619521450904, 0.025369361906415363, 0.02547483785109257, 0.025625846747690535, 0.02583201932301544, 0.026070309917753665, 0.02636694101961656, 0.02669063329324769, 0.027057952259978403, 0.027480177905588727, 0.027931772771329518, 0.028455200264012513, 0.028988716774738587, 0.029572698122302194, 0.03019271997706657, 0.030856142410157893, 0.03150487368398053, 0.03226133243915373, 0.03314621394713252, 0.03397011481034442, 0.03483876606091447, 0.035693972704561365, 0.036658054653371484, 0.0376834043547401, 0.038725569376455424, 0.03980953409799072, 0.04092216750608408, 0.04209135702898184, 0.04330159205808534, 0.044552982776271524, 0.04584562792423577, 0.047195354750841335, 0.048568766852261504, 0.05000028090531416, 0.051456349315281376, 0.052955512932344476, 0.054572341371207235, 0.05614766688433407, 0.057772363498052016, 0.05944009852304359, 0.06115330528104005, 0.06284053785007318, 0.06465187211070102, 0.06657651936689883, 0.06845842540838838, 0.07038457808290603, 0.07233219051957394, 0.0743482461843394, 0.07637975539155023, 0.07848233890020216, 0.08062482416771923, 0.08280597369601499, 0.08502863521776817, 0.08731228823723827, 0.08961234437956603, 0.09195364700189702, 0.09439244133755241, 0.09680863952648823, 0.09927404520732366, 0.10177691055705908, 0.10432291052595323, 0.10686168326800029, 0.10949875720316765, 0.11222986466767335, 0.11493788589222846, 0.11768798719533344, 0.12047448545970456, 0.12330814587897915, 0.12609059226891792, 0.12901679672774155, 0.1319779274223923, 0.13508074201278417