0.03240109945394287, 0.03215802424855279, 0.03193670454536891, 0.03167442122406302, 0.03149522270246923, 0.03135254930634983, 0.031188909534035494, 0.031034065613443903, 0.030842837262739772, 0.0307072949858546, 0.030618484431667776, 0.03048276290842983, 0.030362156361672145, 0.030233704213533493, 0.03010938047012312, 0.029999263412221013, 0.029880647793210192, 0.029735925937699678, 0.02962823563222957, 0.029522165870440466, 0.02941611091097875, 0.029313978196643456, 0.029217405802146015, 0.029119176584153254, 0.029023691388840766, 0.028946966748145987, 0.028855694887071192, 0.028700411625456782, 0.028626656009684455, 0.028553715550446772, 0.02852789205867317, 0.028452906480025658, 0.02837976663875333, 0.028316119337227497, 0.02825800788134742, 0.02823194978893636, 0.02818223206471615, 0.02808405626657932, 0.028056719763505815, 0.02803388324779287, 0.028065119212086053, 0.028046472464724255, 0.028017114322798648, 0.02801803086811172, 0.02802640714310956, 0.028016107434688586, 0.02804321707503189, 0.028075037235706177, 0.028115659765223705, 0.028163345100384096, 0.02820964778393991, 0.02827350505138519, 0.0283395620968294, 0.028419326129509048, 0.02850687190869846, 0.028709466343397647, 0.02879996680625096, 0.028905116559087375, 0.029024300498943913, 0.02915699293334923, 0.029248396061393976, 0.02941371843107204, 0.029527013300041552, 0.029718966462826766, 0.029917201355579348, 0.0301206509800906, 0.030333668546893473, 0.03056877656443362, 0.030796681311133993, 0.03103445638398856, 0.03129470643782661, 0.03155164046012555, 0.03181129206102348, 0.03209247191932921, 0.0323849773986519, 0.03271884658128009, 0.03303091716517298, 0.03333385367659501, 0.033676086082150496, 0.034030643199332244, 0.03442576513116785, 0.03480198064240736, 0.035176863374674155, 0.03558391884445514, 0.03600446178037057, 0.036442124113853565, 0.03688957933689721, 0.03734234223935808, 0.03781916494164816, 0.03830979752453151, 0.038784626915126845, 0.03930722524090652, 0.039865324171643575, 0.04041087768622909, 0.040971229878748745, 0.041530776970313266, 0.04212324567524575, 0.04275118218243324, 0.04337013569510733, 0.044005256983303806, 0.04468818860646728, 0.045351907126767524, 0.04597070488247216, 0.04667864299639109, 0.047400952213414956, 0.048143303949573946, 0.04889488829002755, 0.04965525406757007, 0.0504395838299332, 0.05123983022927792, 0.05209835516241378, 0.05292593370753236, 0.05376379316401046, 0.05463044707517437, 0.05551542201330056, 0.05640467493002251, 0.0573280248023155, 0.058251350145807346, 0.0592120524991782, 0.0601895064075739, 0.06121726619512782, 0.062224708117729476, 0.06323739177830039, 0.0642850455370175, 0.06535099637145066, 0.06644755592893786, 0.06754865964136195, 0.06861975747858542, 0.06976516952607037, 0.07092677325292106, 0.07210490250855553, 0.07329984688795699, 0.07456620890525154, 0.07578862151098607, 0.0770315391078621, 0.07822629195334516, 0.07951802203948165, 0.08084666450892238, 0.082167807208474, 0.08350660863964712, 0.0849104709088455, 0.08627876917115672, 0.08764296050567177, 0.08905486478880227, 0.09048510748139375, 0.0918739528780265, 0.0933480422081117, 0.09487532824433477, 0.09637414031387606, 0.097890385433129, 0.09940119573708289, 0.10095495260477179, 0.10253862892179376, 0.10412247044119967, 0.10572310384103088, 0.10730711169345325, 0.10894521466006714, 0.11062769310343107, 0.11229128914494248, 0.11397133061111253, 0.11568164366624163, 0.11739219373310714, 0.11905623354617707, 0.12080765012828941, 0.12257147389843161, 0.12438295904468832, 0.1261676684096119, 0.12798994169269648, 0.12980105891385135, 0.1316277153317435, 0.13341335431172158, 0.13527684915794697, 0.13717773004704845, 0.13906011446035804, 0.14095510138225129, 0.1428869826193415, 0.14480329508282003, 0.14672402366134946, 0.14866732695810145, 0.15062237027222977, 0.15258000360896443, 0.15455848883893483, 0.15651376814879084, 0.15851637539047642, 0.1605266030000536, 0.16258647906465312, 0.1646064308905214, 0.16655719172483027, 0.16860603703917815, 0.17065917314692808, 0.17275006759049705, 0.17480796538641982, 0.1768582548876787, 0.1789304572931743, 0.1810076602830836, 0.18312119428383244, 0.18520368948179644, 0.18730620804715234, 0.189398359187281, 0.1914961761570702, 0.19358322095269234, 0.19569241284933564, 0.19777291481146847, 0.19989136565593413, 0.20200997215018365, 0.20412851616056366, 0.20624674770044052, 0.20834334774107688, 0.21046275119297303, 0.21257974757030734, 0.21476428838534212, 0.21686701695389715, 0.21893028478137064, 0.22103898896204027, 0.22314462605235966, 0.22520992201585588, 0.2273127112310254, 0.22940372406850465, 0.23149396783860507, 0.23359979578280876, 0.23567252371894265, 0.23773885128918995, 0.23982635854142959, 0.24187490962569025, 0.24390316295704503, 0.24594022376842015, 0.24796880548749256, 0.2499567821695453, 0.2519707031723318, 0.25397795030328085, 0.2559670398773747, 0.25794386620532683, 0.25992030997412646, 0.26186986352047276, 0.2638101238301667, 0.2657330992070415, 0.26764240274845996, 0.26953396740874086, 0.2714146948911801, 0.27325183518916996, 0.27510452555357395, 0.27693907620350505, 0.2787587060344649, 0.2805556445863087, 0.2823442220111333, 0.2841016830566447, 0.285840069011671, 0.28755011721852874, 0.2892499736316997, 0.2909340360971156, 0.29259069636495677, 0.2942257447704025, 0.29581591029284293, 0.2974091849585823, 0.2989728792061286, 0.3005178884078891, 0.30203768251638197, 0.3035161965961721, 0.3049866807571713, 0.3064283982768229, 0.30784486686291485, 0.30923377414434683, 0.310607144041068, 0.3119386057063302, 0.31324062784657913, 0.31451653169332494, 0.31576383514609013, 0.31699617013320824, 0.31818331435489444, 0.3193256803585959, 0.32045631757644355, 0.3215560761704346, 0.32261058357723255, 0.3236493209472169, 0.3246500964264993, 0.3256238656561122, 0.32656416815653944, 0.3274830708172289, 0.3283542569471846, 0.3292340931757306, 0.3300327659099831, 0.33079971174641065, 0.3315044682247873, 0.3322098122301572, 0.3328571438277277, 0.33349465634954323, 0.33409513056978135, 0.33468128903749544, 0.33520458033320105, 0.335697126606894, 0.336147459728184, 0.3365615340974236, 0.3368759380765437, 0.3372246223338762, 0.3376238672750648, 0.33788007546787163, 0.3381012983603315, 0.3382519314877576, 0.3384060617946788, 0.3384621802069163, 0.33854695454642375, 0.3385898022215157, 0.3386559999162107, 0.3386079526139112, 0.3385279482510874, 0.3384045540439746, 0.3382437746973441, 0.337975249189763, 0.3377479180338516, 0.3374821886804566, 0.3371710354414017, 0.33681899410131927, 0.3364719753438436, 0.3360333373548017, 0.3354923868182668, 0.33498695692848607, 0.33444024287412766, 0.3339017980097274, 0.33326764905691597, 0.3325541585613362, 0.3318507699520296, 0.33110770772386966, 0.33039896000799523, 0.32956826429392494, 0.3286556768100929, 0.3277615708545633, 0.3268297347116815, 0.32585161134030594, 0.3248460590579726, 0.3237783879768018, 0.32270109738740366, 0.3215854611455998, 0.320458279157006, 0.3192641033742659, 0.3180643001785674, 0.3167957185708792, 0.3154938511628016, 0.314121896030971, 0.3127582097845024, 0.3113681182222957, 0.30993341368495175, 0.30846489534120564, 0.3069664305772451, 0.30543093234433966, 0.3038331194616577, 0.3022367335631751, 0.30060689848953936, 0.2989810581383653, 0.29728152306707767, 0.2955261260763739, 0.29377107473878533, 0.29198557588250007, 0.2902315403042259, 0.2883790163231457, 0.2864537725798534, 0.28455651940682963, 0.2826313800189558, 0.28065610295586096, 0.2786797025030079, 0.27667577359941137, 0.27464505282262847, 0.27258825804276576, 0.2705692109417867, 0.2684543781344904, 0.26628401161803095, 0.26413283638885743, 0.26195959594588153, 0.25975256015425147, 0.25753838078393343, 0.2553557067054365, 0.25309335756023915, 0.25081420278880423, 0.24848516994571296, 0.24617738876364115, 0.24381498029949789, 0.2414768848959371, 0.2391202091076481, 0.23675466721954894, 0.23436253115937192, 0.23196381781006284, 0.22954067033921915, 0.22710422463543872, 0.2246762045316006, 0.22221254928988754, 0.21972303581937616, 0.2172417228015697, 0.21475047092132646, 0.21225520484233482, 0.20974540313886986, 0.20726126223148372, 0.20473256300074458, 0.20219932472962254, 0.1995952810306214, 0.19706250639954268, 0.1945594603324523, 0.19200884156421713, 0.18945514590032403, 0.1868814610904032, 0.1843256948775346, 0.1817905329763469, 0.17922827609164735, 0.1766666319621554, 0.17405530881616263, 0.1715029926537324, 0.1689729184396066, 0.16641760315901197, 0.16386494127183382, 0.1613051277048626, 0.15876123202317605, 0.1561794184349871, 0.15364992315465223, 0.15112371608808672, 0.14867723931418508, 0.1461511601542172, 0.14366361983999335, 0.14115523841628216, 0.13865949350279472, 0.13616947514669922, 0.1337002513303276, 0.13118762179610996, 0.12875119110703087, 0.12636526236815707, 0.12394488548166455, 0.12153851739552238, 0.11913955728051595, 0.11676334189905886, 0.11441778981196656, 0.11206984153514214, 0.10973865215814982, 0.10740880676780182, 0.10511423828755025, 0.10289278075741204, 0.10062565005291337, 0.09837970998860471, 0.09611468778810794, 0.09391643598197136, 0.09174968008329472, 0.08958882202684665, 0.08744886666599584, 0.08538454975757734, 0.08328067656608767, 0.08121418162010892, 0.07915891393624357, 0.077129387344899, 0.07517288918365704, 0.07318875354814414, 0.07118917522333174, 0.0692670683356321, 0.06737038396465897, 0.0655449197608914, 0.06369396879079897, 0.06188746628957592, 0.060091749257149094, 0.05832542556923314, 0.05660063646630361, 0.05489120816316999, 0.05325195550840528, 0.05159704443225841, 0.049974130642347105, 0.04837062558191574, 0.046812388496254034, 0.0453408393864174, 0.04383665451473093, 0.042366205036764276, 0.04092383350015622, 0.039520409993839024, 0.038177524820861904, 0.03683538655685085, 0.035527081414413145, 0.03427513067961868, 0.033030857059234135, 0.0318350880368911, 0.030657706989969176, 0.029515074419837355, 0.028429698410266213, 0.027352885628673555, 0.026346485004820685, 0.025335618763193, 0.024361505664677298, 0.023428926738785313, 0.022526297947917683, 0.02170860393119633, 0.020871140096692033, 0.020071709516937847, 0.01934653469488397, 0.01861681414401374, 0.017943197593484145, 0.0172877502408089, 0.01667065285076129, 0.01616844378959765, 0.015616559646505011, 0.015107550245321908, 0.014636704153156287, 0.014205250406121368, 0.013794919834209008, 0.013442370048976762, 0.013166664055976, 0.012881745452070695, 0.012635054853167056, 0.012429574528548076, 0.01225740406463487, 0.012180177032861225, 0.012074517022889811, 0.012008562524970505, 0.011972845448922348, 0.011985404834684731, 0.01209146429610169, 0.012171346754662304, 0.012291089689288801, 0.012479786423744333, 0.012673439977341603, 0.012892743677545568, 0.013166832608332315, 0.013478523572197842, 0.013869497987793364, 0.014249936599214771, 0.014641261453692081, 0.015102545915923865, 0.01560011478809205, 0.01618811666731123, 0.01675080091248068, 0.017338273507203694, 0.017979804352833452, 0.018658322453544506, 0.01938579471535669, 0.02013585855526588, 0.020924553691975177, 0.021747856756084722, 0.022607584916498145, 0.023507007890014257, 0.02443846235313668, 0.025456761318385177, 0.026453595815403446, 0.02748893089607687, 0.028570979329592894, 0.029680612152337547, 0.030820755148098906, 0.032005875624342844, 0.03322728862621808, 0.034503994439807735, 0.03579473044035035, 0.03706071795347738, 0.038432101869448426, 0.0398360070655761, 0.041314738811780126, 0.04277901322551538, 0.0442594758883538, 0.04579694579262577, 0.047368441126700286, 0.049038832698383966, 0.05067016388035031, 0.05231283930562183, 0.054022246365198576, 0.05576680591966319, 0.057593645807004316, 0.0594019105631549, 0.061212346100628694, 0.06309898698304388, 0.0650198949266531, 0.06698721170060531, 0.06897472278280582, 0.07097404637248447, 0.07303346193340186, 0.07512584824452975, 0.07725299502482684, 0.0794112051380158, 0.0816429050070475, 0.08386234985218011, 0.08611723321787634, 0.08838619312334103, 0.09071368556159434, 0.09306931889305775, 0.09546422699689901, 0.09789214445798537, 0.1003548269255034, 0.1028485475160783, 0.10541921361505571, 0.10797360177167407, 0.11056353390508039, 0.11314481116564264, 0.11581032104104486, 0.11850093254124042, 0.12123166465068534, 0.1239943170386532, 0.12682760154424857, 0.1296496153012523, 0.13247802530904432, 0.13537226566429666, 0.13829896691655913, 0.1412792222829448, 0.14426833668455227, 0.1472684356219389, 0.1503278494507929, 0.15341949975052327, 0.15652066512822685, 0.15967987461481742, 0.16288775662095326, 0.16610725026986126, 0.1693592804530334, 0.17262282762797848, 0.17594264340287488, 0.17930261615095985, 0.18268426805475085, 0.18609810188966, 0.1894968169028822, 0.1929811031836348, 0.1964967422615135, 0.20004038421065268, 0.2036144219832195, 0.20721034090603205, 0.21084698811245822, 0.21450013284807923, 0.21819979721157143, 0.22192954565865647, 0.22571415032669714, 0.22950159035567191, 0.2333087520813537, 0.23716162847701322, 0.24104558849689772, 0.2449693700995332, 0.24891428134834873, 0.25285555315826974, 0.2568675952615135, 0.2608789678216251, 0.26495316346506786, 0.26905500332219245, 0.2732496324650966, 0.27739930987325273, 0.2815177830481504, 0.28573885052371434, 0.28998746435206996, 0.29428127642577917, 0.29858307298299913, 0.30287328711204936, 0.30723751549942, 0.31162789471219565, 0.3160761167785261, 0.3205151470563519, 0.3249735653879403, 0.32946973862229756, 0.3339930142703944, 0.33851686771729783, 0.34309698199541705, 0.34769673696552283, 0.3523272550885082, 0.3569822130882779, 0.36167729338890353, 0.36637880423620156, 0.3711192611168316, 0.37586850592503135, 0.3806427809581223, 0.38538200194683503, 0.39021246391528325, 0.39509300892667143, 0.39996026603457757, 0.4048494347890044, 0.409763679002897, 0.4146951788900846, 0.4196406860541029, 0.42461468623557835, 0.4296084450091017, 0.43455143199745255, 0.43959236541709057, 0.44470398081515305, 0.4497670830527778, 0.4548480479860536, 0.45986922560851873, 0.4649941446732173, 0.4701310404294575, 0.47527998446060843, 0.48044095770632844, 0.485657692033284, 0.4908368019693908, 0.49598078501519743, 0.5011933762049428, 0.5064158479320586, 0.5116671979144417, 0.5169060652756877, 0.5220899807152152, 0.5273562852170812, 0.5326276276780992, 0.5379669913525686, 0.5432399320887816, 0.5484734515899994, 0.553767335898757, 0.5590647217341415, 0.5643580942155898, 0.569661816826375, 0.5749862887752579, 0.580289921030112, 0.5855949013267001, 0.5909056760401513, 0.596210230765339, 0.6014648487800194, 0.6067730252756772, 0.6120757988805838, 0.6173638858148841, 0.6226553560699605, 0.6279304544542492, 0.6332072269228556, 0.6384746611513561, 0.643754931218683, 0.6489989003046044, 0.6541679372197321, 0.659399055977068, 0.6646145914606685, 0.6697983247959535, 0.6749832970855331, 0.6801362388070556, 0.6852864605238335, 0.6904167878978693, 0.6955091499094772, 0.7006002216392407, 0.7057159370560034, 0.7107550430516092, 0.7157728670106136, 0.7207507797986424, 0.7257249629521608, 0.730701628890785, 0.7356201548615043, 0.7405127272449419, 0.7452781752523744, 0.7501277982462841, 0.7549842870238072, 0.7597577726175637, 0.7644975412890298, 0.7691518538055577, 0.7738279120778236, 0.7784681485861292, 0.7830645492968089, 0.7876206350073172, 0.7921514705366177, 0.7966227350992713, 0.8010663065142878, 0.8054513829612325, 0.8097935593792697, 0.8140058026301423, 0.8182696848309851, 0.8224877540363105, 0.8266484057855663, 0.8307573605322911, 0.8348175116285852, 0.8388207315088364, 0.8427581725083783, 0.8466551400869239, 0.8504962930533074, 0.8542808738441744, 0.8580080884182623, 0.8616490583401093, 0.8652625862521042, 0.8688146247666697, 0.8723185361123266, 0.8757437874852239, 0.879093951707116, 0.8823942436990541, 0.8856292553979871, 0.8888437710215592, 0.8919400345583728, 0.8949062506683765, 0.8978791625786309, 0.9007808874367687, 0.9036108188247978, 0.9063683225641184, 0.9090965751883046, 0.9117016928276589, 0.9142348224208875, 0.9166826397484528, 0.9190702297431472, 0.9213189808217522, 0.9235622699124219, 0.9257246312916257, 0.9278338249512441, 0.929829862838291, 0.9317227574417348, 0.9335603541938557, 0.9353150797719425, 0.937026831926243, 0.9386094153799063, 0.94006798574895, 0.9414912400412699, 0.9428286695552129, 0.9440500953679278, 0.9452185206183061, 0.9463333814237095, 0.9473199674032117, 0.9482195765673632, 0.9490562815722924, 0.9497774296267062, 0.9503923256648898, 0.9509413685488857, 0.9514011834312868, 0.9517258156449858, 0.9520118580451173, 0.9522524211819263, 0.9523469097329283, 0.9523513560128223, 0.9522356069740823, 0.9520627342154918, 0.9517866941942724, 0.9514298558803195, 0.9509797818330321, 0.9504558531014344, 0.9498171505163817, 0.9490620292397698, 0.948242629637049, 0.9473298929685429, 0.9463450520388836, 0.945243561524683, 0.9440575158032275, 0.942772039747752, 0.9413954960784487, 0.9399156547997128, 0.9383586954222229, 0.9366961951393027, 0.9349582334100685, 0.933128498570725, 0.931258249597238, 0.9292397866749118, 0.9271143871990746, 0.9249231030950978, 0.9226432326791546, 0.9202610725945811, 0.9178068127584859, 0.9153010874015426, 0.9126661527048647, 0.9099461246965899, 0.9071430577058922, 0.9042535842003921, 0.9012521415150945, 0.8981988399108498, 0.8950890667185387, 0.89186395183175, 0.8885574725587183, 0.885154445127351, 0.8816890684419877, 0.8781451236073624, 0.8745197402652718, 0.8708158745526915, 0.8669905858554849, 0.8631380013134186, 0.8592089815335667, 0.8552011174073337, 0.8511177814213812, 0.8469672554508823, 0.8427358833346498, 0.8384402211158642, 0.8340665424440599, 0.8296243320132402, 0.8251234966193782, 0.8205465484699663, 0.8159576233429481, 0.8112459837704893, 0.8064749702092652, 0.8016540883310617, 0.7967655113258665, 0.7917240579973159, 0.7867356675327083, 0.7816872494744147, 0.7766612432633493, 0.7714878924118562, 0.766195909107953, 0.7609317369511491, 0.7556156053137008, 0.7502386876258524, 0.7448250262431375, 0.7394024079746755, 0.7338905319388486, 0.728336712985358, 0.7227282936638197, 0.7170964911801859, 0.7114243750904479, 0.7057172156122767, 0.6999744849633689, 0.6942082670243483, 0.688397758158663, 0.6825341750249574, 0.6766674744066004, 0.6707722037206179, 0.6648535676322417, 0.6589057966473064, 0.6529697821884336, 0.6469725986215267, 0.6409573524288374, 0.6348973433822532, 0.6288536107137942, 0.6228364745089507, 0.6167581209209548, 0.6106699747744477, 0.6045768633056434, 0.5984726885835554, 0.5923682504660465, 0.5862537591652327, 0.5801368607096777, 0.5740224721149062, 0.5679045757485777, 0.5617221557181259, 0.5556183468876705, 0.5495158379234564, 0.5434499746940704, 0.5373518995907274, 0.5312120944013217, 0.5251403027349296, 0.5190780080782771, 0.5130412495855727, 0.5070021526484257, 0.500972187793904, 0.49496800044278233, 0.48898299476666, 0.48305571297761507, 0.4771095444660385, 0.47116338107133743, 0.4652744692927832, 0.45941303445168336, 0.45355256474423244, 0.4477542308324785, 0.44201265101286663, 0.43627359521294967, 0.43056980952687274, 0.4249430067699665, 0.4193088027237646, 0.4136811694764523, 0.4081356821529513, 0.4026319023370029, 0.3971694066508912, 0.39175323273282214, 0.386382595655452, 0.38105877708849134, 0.3757830358698533, 0.3705916747837645, 0.3654113399695239, 0.3602198168946704, 0.35515594031393416, 0.3501438906156335, 0.3452008742743922, 0.3402947024697969, 0.335475152391352, 0.33067997103629654, 0.3259455004537501, 0.3212304804590368, 0.3166252075961651, 0.3120544293058885, 0.30757521039852154, 0.30315753655144784, 0.29880616271890176, 0.2945148061828352, 0.29026943122219934, 0.28611205988785904, 0.28202083595951644, 0.27798979690512965, 0.2740348348574106, 0.27014506041055, 0.26632883388166345, 0.26258284495693096, 0.2589412087661415, 0.25533382551328687, 0.2517814835753417, 0.24832555153074573, 0.2449435589601478, 0.24166753837219893, 0.2384308123465378, 0.23525707089832615, 0.23217624563515327, 0.2291718498233313, 0.22622480398540903, 0.22337630516967605, 0.22059844821155852, 0.21790271266248296, 0.21528313003022329, 0.21275923989417636, 0.21029023817448567, 0.20788682380548895, 0.2055750632757677, 0.20334038965173068, 0.20121263391438649, 0.19912840416633254, 0.19709835880804605, 0.1951743795702309, 0.19332712092134244, 0.19151788444103338, 0.18982853758254215, 0.1882202908704745, 0.18667832271751542, 0.18521094990077983, 0.1838461279223832, 0.18252405144382597, 0.18120755923816143, 0.18004530915673517, 0.17895386954161205, 0.17799816417741388, 0.17704020525809608, 0.17612678184523234, 0.17532055730017757, 0.17458555839675796, 0.17391077209455447, 0.17331803706658666, 0.17279434466940707, 0.17233917644563077, 0.17195197013430646, 0.1716216021403016, 0.17136980002108312, 0.17119045711283518, 0.17106803020048783, 0.1710101397098287, 0.171047575387105, 0.17111242542546054, 0.17122540076340922, 0.17141894457006876, 0.17167328915590285, 0.17197869125372947, 0.17235280222955615, 0.17272288391225887, 0.17321848115932967, 0.1737660538266312, 0.1744492634605882, 0.17508856868212294, 0.17569692551263347, 0.17645562383320448, 0.17726168740600406, 0.1781232133735418, 0.1790208206343861, 0.17999037339682278, 0.18097501489539297, 0.1820048711279401, 0.18306468864608239, 0.18418305741034685, 0.18537019721652648, 0.18656531242479682, 0.18780041428820768, 0.1890986410382666, 0.19040639768130455, 0.1917232703853071, 0.19310733593999524, 0.1944888082320189, 0.19594096448782122, 0.19742104462316853, 0.1989017372567626, 0.20043792001063498, 0.20200267092118437, 0.20358390616583433, 0.20518689465950296, 0.2068000755897467, 0.20844474143652655, 0.21010558792208708, 0.21178528868612037, 0.21348067979693647, 0.21516785996672644, 0.2168941606454049, 0.21863672465344058, 0.2203833655285123, 0.2221392608228077, 0.22392608288847363, 0.22569421617295857, 0.22744489968359138, 0.22922896016451338, 0.23101600716469856, 0.2327943640289541, 0.23458522915104316, 0.23639952495706737, 0.23818394617346567, 0.23996639561712127, 0.2417385241381837, 0.24351392361715915, 0.2452847469210846, 0.24704603055418164, 0.24879862152661633, 0.25052901576755515, 0.25226209357845303, 0.2539628492711687, 0.2556712022222067, 0.2573632543452596, 0.25902755407353834, 0.26068552622510766, 0.2623535812523292, 0.2639674586586154, 0.26556151344638307, 0.2671486284474234, 0.26869785497676496, 0.27022643422897985, 0.27172944806305865, 0.2732078167683804, 0.2746060550172527, 0.2760386458364065, 0.27748583829836937, 0.2788501038794984, 0.2801847387204684, 0.2814519261020685, 0.28272899688876335, 0.28398024236552954, 0.28518641362663155, 0.2863572637653074, 0.2874710642825077, 0.2885718744699296, 0.28973583501044226, 0.29074620950750396, 0.29172275665075426, 0.2925729807098237, 0.2934895334018369, 0.29442307938068923, 0.2952465422355241, 0.2960300950822206, 0.296713314254964, 0.2974222083062367, 0.2981066167606911, 0.29872162313828304, 0.2992919191998164, 0.2997996034547459, 0.3002816058076014, 0.3007203603258622, 0.30110822897569645, 0.3014491766879813, 0.3017570218728198, 0.3020017369282951, 0.30215413092749394, 0.302310847472977, 0.30241770968367965, 0.30252568864895196, 0.3025267666343321, 0.30246362893997475, 0.30237322851781845, 0.3022345434565538, 0.30205798835342734, 0.301821109966053, 0.3015012215591479, 0.3011727678698375, 0.3007941912239914, 0.30038675663019704, 0.29990594528087877, 0.29935406547762644, 0.29877963876014624, 0.2981557879462335, 0.29753364471514293, 0.2968053732284945, 0.29599457299469073, 0.29517942668597097, 0.29431633737835244, 0.29345469385056094, 0.29249041204985504, 0.29141349289396945, 0.29036928851929905, 0.2892769463425903, 0.28815286725569517, 0.28696410492376, 0.285714139857688, 0.2844369935360822, 0.28311448276876505, 0.2817507306030293, 0.2803388933566986, 0.27889775622439444, 0.2773980762018194, 0.27585703002241074, 0.2742996475941263, 0.2726742366672054, 0.2709612575053553, 0.26926545293253756, 0.2675291599969251, 0.26575846733330916, 0.2639430078836, 0.2621318916559292, 0.2602363991393805, 0.2583070544144249, 0.2563127229942275, 0.25432098561526384, 0.2523055523487134, 0.25024485671659885, 0.24815214694475168, 0.24602464388404247, 0.2438705469652933, 0.24167068640263914, 0.2394594162720566, 0.23721888390766366, 0.23492899310564597, 0.23263542066343337, 0.23033174912087026, 0.22798178903788963, 0.22560734349966907, 0.22326717817297537, 0.22083916061678027, 0.2183505356258554, 0.21589121961987331, 0.21341194327303661, 0.210922356068282, 0.208404703905086, 0.20585271263637744, 0.20330449138460352, 0.2007401435804575, 0.19819397206177364, 0.19559611965784246, 0.1929606557548675, 0.19034420551417786, 0.18771639406458066, 0.18513779658655954, 0.1824826057010579, 0.17976791632508607, 0.17710977542693584, 0.17444442908308702, 0.17180619828197422, 0.16912524078110516, 0.1664524575583373, 0.16376618625145853, 0.16107959828640195, 0.15836004658272015, 0.15567906381862123, 0.1529576458111851, 0.15028255037775357, 0.14760707808148862, 0.1449447997445719, 0.14227085844374163, 0.13964479153956127, 0.13697443375965065, 0.13431263261587534, 0.13159689780628855, 0.1289620956780634, 0.12633950135349584, 0.12371910592636948, 0.121108251129855, 0.11853426558748345, 0.11594221091348243, 0.11333783672619044, 0.11077776924588441, 0.10823160045359978, 0.10570899386973036, 0.10319217007251975, 0.10076245988168872, 0.09827145878854959, 0.09580281435638906, 0.09328827491475336, 0.09087342692879256, 0.08848639974388213, 0.08610936728018952, 0.08375347879349951, 0.08145272757442239, 0.07913693334347266, 0.07683736230038589, 0.07457300617367889, 0.07233386134458426, 0.07012037254318017, 0.06793298394456505, 0.06580720443391266, 0.06366890565486981, 0.061595057138859, 0.05951123865247927, 0.0574590940484031, 0.055466594392794624, 0.053474058812308704, 0.051546243226440545, 0.04961587461377135, 0.04772017595770509, 0.04583956399632563, 0.04401483379581133, 0.04225108396982301, 0.04048872941649895, 0.038761046789179236, 0.037087226770156655, 0.035426211820301194, 0.03383938052569622, 0.03224458798757124, 0.03068737819702785, 0.029170918768276464, 0.027687487971750035, 0.02623752517341479, 0.024828313329291453, 0.023455582397842806, 0.022184153766793054, 0.02087605871467793, 0.019627307972203804, 0.01839639707429508, 0.017205722637726375, 0.016093362972475694, 0.014976879765902888, 0.013891024022779525, 0.012857572070623973, 0.011863579770214879, 0.01094377345150327, 0.010023303210597122, 0.009153924015218006, 0.008312791890890238, 0.00751194316084572, 0.006777249126796794, 0.006052417540275464, 0.0054033027419795095, 0.004754857669828363, 0.004148135263848775, 0.0036491204469550546, 0.0031155762852546846, 0.0026082721879739606, 0.0021635312415187497, 0.001759778738587488, 0.0014192142352096287, 0.0010928505303465176, 0.0008510223149697578, 0.0005999405307349517, 0.0003909316547547235, 0.0002249490662669363, 9.756103242998655e-05, 6.808241340426097e-05, 1.2918625508724885e-05, 0.0, 2.667267466909456e-05, 9.587129223394987e-05, 0.00020832934602032775, 0.0003559867766999362, 0.0005424571393253145, 0.0008058131567775351, 0.0010635862648029038, 0.0013978154756019478, 0.0017295402529841496, 0.0021017111772279923, 0.002515258738930761, 0.002965724486672082, 0.003498366896623049, 0.0040193863620570525, 0.004580092441848923, 0.005214729936774445, 0.005848002519616153, 0.006518978098658338, 0.007230528043629836, 0.007979820101852064, 0.008790743038507914, 0.009610516667007733, 0.010500964894336572, 0.011390591822526084, 0.012318210213673308, 0.013297062577636364, 0.014296628890057953, 0.015331130593848183, 0.01640364175422642, 0.017511511126756134, 0.01861742223865522, 0.019799231500158308, 0.021070868106697838, 0.02230924691073645, 0.023582742962980803, 0.024887336472474885, 0.02623002732371338, 0.027639574935643202, 0.029044805379945818, 0.030484813655507936, 0.031995882761039075, 0.03349924022915538, 0.03499592437912056, 0.03657474370064401, 0.03818534243155604, 0.039834548577338307, 0.041507283774018376, 0.04324500781331723, 0.0449766934403214, 0.04674156737914155, 0.048514664371908975, 0.050347811334569934, 0.052276526984278295, 0.054162771295950304, 0.05608318038322549, 0.05797754757084185, 0.05997211591979988, 0.06201872596269945, 0.06406898976821876, 0.06614993512793468, 0.06824566492623818, 0.07038963317201696, 0.07258763860426676, 0.07478753637542435, 0.07701840199294821, 0.07928358814304055, 0.08157550467974396, 0.08391747030671258, 0.08626834687761824, 0.08865083460329021, 0.0910226078480167, 0.09347293608489672, 0.09598168380012516, 0.09848565512177766, 0.10102026788721426, 0.10357141046276575, 0.10616884095273668, 0.10880468455232613, 0.11146037142700838, 0.11414633876809292, 0.11681173769787359, 0.11956469561259933, 0.12238016139049528, 0.12518399387441423, 0.12801804229039315, 0.130849051318081, 0.1337479160132604, 0.13669808945642423, 0.1396514243691177, 0.14263516263234483, 0.14560729776703812, 0.14865737922564642, 0.15178304972535075, 0.15488404326251975, 0.1580166973046859, 0.16119847975666604, 0.16439205303773197, 0.1675760279791923, 0.1708397107688925, 0.17413319132628396, 0.17745843734948882, 0.1808119146686967, 0.18417307927409332, 0.18759054514601856, 0.1910374898601307, 0.19451246336416655, 0.19801946368222115, 0.20157068335783399, 0.20513652144949082, 0.20873376476222505, 0.21237825610044184, 0.21603649546668738, 0.21968861865030775, 0.2234165647782241, 0.2271746436327163, 0.23092101891333874, 0.23474538397994532, 0.23866128123294753, 0.24253498669850423, 0.2464415752067564, 0.2503388316395502, 0.2543161106729625, 0.258281452003629, 0.2623245630639994, 0.2663958720769558, 0.27052042100039075, 0.2746464355658796, 0.2788155739885282, 0.2830018376528952, 0.2872198106924186, 0.2914291107245209, 0.29571542168068593, 0.3000572747416625, 0.30439897752176875, 0.30877181384136115, 0.3131932421290703, 0.3176258881741265, 0.3220746010022549, 0.32657267612647983, 0.33110119770086455, 0.33563198775993885, 0.3402245622910989, 0.3448228026883241, 0.3494752403181677, 0.35409357650308676, 0.3588084723291912, 0.3635474690649572, 0.36834267830713185, 0.3731274314525114, 0.3779306254681434, 0.38277089967442723, 0.3876378333294579, 0.3925436699388129, 0.3974622297715543, 0.4023973786861606, 0.40737121729010983, 0.412371008588731, 0.41740352925395896, 0.4224535958187899, 0.42751517458039184, 0.43261770704798524, 0.4377442013131298, 0.4428610342088142, 0.44803870378168054, 0.4532321854155543, 0.458452535591401, 0.46369334723198546, 0.46894039572744844, 0.47422325577408486, 0.479514518007776, 0.48483631764733154, 0.49017592321356457, 0.49551203696632734, 0.5008890839431662, 0.5062660350501027, 0.5116761983390742, 0.5171006005573804, 0.52257406333653, 0.528021704485071, 0.5334600671426091, 0.5389406299625188, 0.5444336288961402, 0.5499630554494436, 0.5554761177759393, 0.5609977061514381, 0.5665344159738697, 0.5720812333139361, 0.577586466802417, 0.5831573849668681, 0.5887137088968938, 0.5942959874227515, 0.599880890349503, 0.6054767625087524, 0.6110644713670194, 0.6166503238846512, 0.6222410957055078, 0.6278319156618287, 0.6334273082391604, 0.6390153134792079, 0.6445750408687084, 0.6501615300826091, 0.6557427694950176, 0.661332064504546, 0.6668988203001195, 0.67240621384152, 0.6779651342518658, 0.6835123961052806, 0.689028133511289, 0.6945527092027435, 0.7000485761977269, 0.7055449463992147, 0.7110245464388674, 0.7164972590966947, 0.7219400054463764, 0.7273311395370969, 0.7327405847722691, 0.7381279894347085, 0.7434821078193901, 0.7488245184972447, 0.7541875172652771, 0.7594733486395997, 0.7647350466587997, 0.7699011859809376, 0.7751196097057993, 0.7803095977160445, 0.7854629692719804, 0.7905830800534412, 0.7956374908393838, 0.8006923832962421, 0.8057252432309214, 0.8107017580417555, 0.8156397661771315, 0.8205628077614635, 0.825417644512148, 0.8302076865201842, 0.834983836858994, 0.8397157765500747, 0.8443638424919235, 0.8490089494538067, 0.8536516970236429, 0.8581905914659497, 0.8626807386846965, 0.8670436925575762, 0.8714422120465781, 0.8757732686589493, 0.8800585862370309, 0.8842850129079214, 0.8884606314757022, 0.8925660559661367, 0.8965985833486805, 0.9005833993041737, 0.9045050466539987, 0.9083258353764302, 0.9121231579560926, 0.9158841018140219, 0.9195408990041138, 0.923130158842979, 0.92660528144781, 0.9300621822737878, 0.9334722250978301, 0.9367788214089562, 0.9400123645400493, 0.9431876772454479, 0.9462702418176272, 0.9492830147335115, 0.9522137209018229, 0.9550675102157463, 0.9577994571070257, 0.9605017048405053, 0.9630828052097108, 0.9656241216900647, 0.9680793613183324, 0.9704621702398519, 0.9727422936027622, 0.9749446174570896, 0.9770498859965063, 0.9790678392771638, 0.9809644575911532, 0.9828098772411419, 0.9845464737309412, 0.986211111145098, 0.98778261353875, 0.9893167700342224, 0.9906939261196048, 0.9919309676428685, 0.993131449672231, 0.9942365206081187, 0.9953194619780291, 0.9962233171221944, 0.9969541478088161, 0.9976824987045352, 0.9983121097109243, 0.9989041863933933, 0.9993280640237243, 0.9995895067897914, 0.9998295173605668, 0.9999686924447604, 1.0, 0.9999383247445923, 0.999819171834429, 0.9995493521368455, 0.9991807156524468, 0.9986813628206288, 0.9981181101365192, 0.9974639064686238, 0.9966964292231091, 0.995828177498523, 0.9948380983741911, 0.9937709447733959, 0.9926123944708979, 0.9913403121443143, 0.9899673796572694, 0.9884727227452514, 0.9869012692434393, 0.9852669218665008, 0.9834880601367488, 0.9816107066554802, 0.9796244453495775, 0.9775517980230527, 0.975355975292506, 0.9730895013975842, 0.9707237085921891, 0.9682293803217811, 0.965670496754162, 0.9630632645964118, 0.960300421297512, 0.957442940267335, 0.9545263125663267, 0.9514764391622548, 0.9483037392633682, 0.9450755937500505, 0.9417550267317786, 0.9383269283854682, 0.9348255592933755, 0.9312435183629542, 0.9275593355747843, 0.92378636875506, 0.9199342353232521, 0.9159851734800036, 0.9119644859569239, 0.9078432129408607, 0.903638845871595, 0.8993241584007746, 0.8949596797731625, 0.8905026366071677, 0.885976589476999, 0.8813510148660616, 0.876668226918321, 0.871906724138793, 0.8671153133546977, 0.862194783442428, 0.8571867823686559, 0.8521259242525038, 0.8469946507494032, 0.8417959857784322, 0.8365274949569173, 0.831197828599266, 0.8257971268301594, 0.8203329587776457, 0.8148189273703312, 0.8092302912592316, 0.80358645468054, 0.7978812711871313, 0.7921202343710275, 0.7862538501667714, 0.7803916290404427, 0.7745029161160334, 0.7685299181237986, 0.7625076483274339, 0.7564727675443935, 0.7503523145436606, 0.7441350218603803, 0.7379378153972603, 0.7316978114645197, 0.7254291545783069, 0.7191076015243781, 0.7127249609377638, 0.706335160370032, 0.6999109039775275, 0.6934751629522242, 0.6869851056174516, 0.680495555089993, 0.6739485594953626, 0.6673790008294126, 0.6607743392221448, 0.6541659210803558, 0.6474861079649099, 0.6408484388672068, 0.6341924088996973, 0.6275482003895776, 0.6208582432954604, 0.6141577548518291, 0.607448514406595, 0.6007322949047075, 0.594009109753566, 0.5872844479734984, 0.5805509774047967, 0.573825374089861, 0.5671010989955878, 0.5603711885235295, 0.5536560725401775, 0.547001511080483, 0.5402937554641737, 0.5335988902721311, 0.5268376126650117, 0.5201828118283219, 0.5136071513084454, 0.5069710414695793, 0.5003553017103317, 0.49372279791769574, 0.48715700895176256, 0.48058047359629563, 0.4740658177619026, 0.4675754018362929, 0.4610971918191106, 0.45466294457315637, 0.44825268411829544, 0.44187952486783716, 0.4355391104937975, 0.429310433234613, 0.4230312289751309, 0.41672782771603695, 0.41054295936935153, 0.40439891257378074, 0.3983639504945575, 0.392297983622286, 0.38624101787540677, 0.3802797693250565, 0.3743675383217554, 0.36850039873077467, 0.362690845650282, 0.3569619983321846, 0.35125550752929, 0.3456058232610393, 0.3400157197524769, 0.3344824889270225, 0.3290144814069463, 0.3236015097964389, 0.31825078620391, 0.31292467866185203, 0.30770614744697367, 0.3025329726458926, 0.2974436666667878, 0.29241867346986733, 0.2874943300958199, 0.28259727509420757, 0.2777736280165136, 0.2730167363620607, 0.2683315305314472, 0.2636696507805576, 0.2591362056222638, 0.2547299400481249, 0.2503326138698099, 0.2460115726874137, 0.2417059273327229, 0.23754663981410984, 0.23346159925295507, 0.22945174520000197, 0.22551794144805656, 0.22162240673969685, 0.21784788921116796, 0.2141704734175157, 0.21054632777959875, 0.20700114551372695, 0.2035740530344749, 0.20018351651058278, 0.19685629516809566, 0.19363346523109556, 0.19049226835706537, 0.1873925659900715, 0.1844202620351286, 0.18158038388097822, 0.17876148622395974, 0.1760261031578418, 0.17336530717508966, 0.17079756648366493, 0.16833336646681976, 0.1659278347164326, 0.16360569544455528, 0.16129821756251816, 0.15915045180958076, 0.1571425397312377, 0.15514416832379863, 0.15322800874097206, 0.15133748903027716, 0.14959144388645576, 0.1479002481337838, 0.14631232800216762, 0.14480061795372223, 0.1434001924672971, 0.14203640888299499, 0.14072077601412925, 0.1395161690043194, 0.13838680036539708, 0.13735863925541975, 0.13637536962666402, 0.13550446646380065, 0.13466692436496566, 0.1339055529583775, 0.13318598875460128, 0.13257803572907556, 0.13203601605725337, 0.13157036898171107, 0.13117410172434854, 0.13083944486648727, 0.13058052547186963, 0.13036544102678216, 0.13024187318610542, 0.13018204659521443, 0.13020282490070587, 0.1302662016856252, 0.1304201924870212, 0.13060418490694659, 0.1308503702337413, 0.13113822930517693, 0.13150754731470662, 0.13196059408993405, 0.13244037957459284, 0.1329769229035185, 0.133523326895186, 0.13417522848089738, 0.13485287960490414, 0.13560755765816634, 0.13640927435898742, 0.13727826907108812, 0.13816894166161142, 0.13906142587293746, 0.1400477981721015, 0.14107506629023867, 0.14214941703001527, 0.14325504643583323, 0.14442209317474408, 0.14560103159627885, 0.14681771923810918, 0.14806382673858323, 0.1493529422135175, 0.15064913856163112, 0.15200705729188727, 0.1533943003933953, 0.15479925149604878, 0.15624314868512892, 0.15773693443720962, 0.1592273047856697, 0.1607421459564732, 0.16228710182712508, 0.16384588746078302, 0.16535704402928844, 0.16696454883546696, 0.16858611766192658, 0.17028751454686383, 0.1719261397068331, 0.1735780554040399, 0.17524543410136909, 0.1769264262986209, 0.17861581378853317, 0.1803142029411133, 0.18201487470363317, 0.18372757832344225, 0.18549377368594766, 0.18720771778888487, 0.1889261338408732, 0.19057542402, 0.19230680501220362, 0.1940634873106967, 0.1957811365562461, 0.1974940288634602, 0.1991816493696268, 0.20088379813760215, 0.20257647185468536, 0.20425864611333086, 0.20592929353979306, 0.20754355223503398, 0.20919360325732092, 0.21084587201037827, 0.21245867692858805, 0.21405411761324275, 0.21562077815650907, 0.2171801244199938, 0.2187556262180857, 0.2202681602448516, 0.22176043010573934, 0.2232383077970279, 0.22468577125400363, 0.22605217733851704, 0.22745945987077135, 0.22883813117352697, 0.23018762758487313, 0.23150736253462342, 0.2328195244888628, 0.23407502577345868, 0.23530019167940008, 0.2364643963725327, 0.2376302220504814, 0.23878268060729121, 0.23987651204116248, 0.24093606934740866, 0.2419325969728373, 0.24292506558940954, 0.2439094440194054, 0.24482193328009946, 0.2456973582069268, 0.2465648595213174, 0.24736041893023875, 0.24804854461677678, 0.24877755415941608, 0.24946375263658874, 0.2501508349215507, 0.2507454365579527, 0.2513342917530018, 0.2518423042511989, 0.25231045210014974, 0.252662607071159, 0.2530584251330057, 0.2534116590822474, 0.2537149241910986, 0.2539724230146673, 0.25421397740350005, 0.2543762150880764, 0.2545119251424337, 0.254583592311782, 0.2546117517416537, 0.25456278185922937, 0.25450726186204575, 0.2544669501112283, 0.254311452621395, 0.25411344682749026, 0.25383223072030475, 0.2535532539466603, 0.2531935260663756, 0.252827766383346, 0.25241467701732545, 0.2519564821835207, 0.2514499078532966, 0.25089571526652266, 0.2502980497479743, 0.24965524931004618, 0.24899929646695526, 0.24826350066785138, 0.24751190321452826, 0.24668874647815622, 0.2458253346653627, 0.24487435273416636, 0.24393654970945305, 0.24301043434582315, 0.24198099668504855, 0.24091308246553975, 0.23974019948875974, 0.23860421718594985, 0.2374581503518893, 0.2362357181148071, 0.23497505098694318, 0.2336591533017426, 0.23232586315286888, 0.23093573041935095, 0.22953049459974273, 0.22808807343382276, 0.22658129298904717, 0.22507066730038383, 0.22353613891048071, 0.22195266501985203, 0.22033577596377574, 0.21869512167604344, 0.21701292582258505, 0.21534248619137375, 0.2135950901163167, 0.2118212666587842, 0.2100319647510657, 0.20820528646410266, 0.20635593808160518, 0.20448065632963497, 0.2025820246614952, 0.20062025350288218, 0.19868167172796117, 0.19672446324212398, 0.19473841256987606, 0.19273069925670458, 0.19073203791617746, 0.18867995160240833, 0.1865877979880976, 0.1845047070206855, 0.1824044134499194, 0.18026151490972797, 0.17813283436995717, 0.17598816777463952, 0.1738286233207059, 0.17165528229006344, 0.169506021525872, 0.16730357999069487, 0.16510654052259374, 0.1628857761396543, 0.1606585940333596, 0.158378278864454, 0.1561461505810434, 0.15389989378401955, 0.15165550577479456, 0.14940574960996758, 0.14720782008356254, 0.14494346755019022, 0.14268883829838136, 0.14042584399942679, 0.138165437479333, 0.13590991584091794, 0.1336561282881423, 0.13141902890731696, 0.1291731383996479, 0.12693361421257934, 0.12462387509545085, 0.12240856397429599, 0.12021635737650746, 0.11800750535110893, 0.11580601856444392, 0.11361113691887154, 0.11142755038371714, 0.10926814394003895, 0.10710400822606764, 0.1049526195561686, 0.10284628714746953, 0.10071863811031638, 0.09859544661413114, 0.09650327161794392, 0.09442807914588679, 0.09234942409208956, 0.09031264273112276, 0.08827942267257077, 0.0862803531937468, 0.08429958486942156, 0.08232216468318193, 0.08038243787779431, 0.07847477202446491, 0.07657391735832211, 0.07469518946531029, 0.07286379405674749, 0.07102816428887047, 0.06920741088286991, 0.06742428343277669, 0.06566672040825451, 0.06393869030414119, 0.062233184774170676, 0.060642452470673, 0.05898046899488264, 0.057351289403728876, 0.05571074947061258, 0.05415180422501805, 0.05265574550865417, 0.05115196069973043, 0.04968007970945315, 0.04825936242641518, 0.04684880703178917, 0.045455482801003706, 0.0441128581072916, 0.04280222645011954, 0.04152545743144208, 0.04027895282504741, 0.03907018656902194, 0.03788810720615347, 0.03683726174901784, 0.035708963525051825, 0.034619432465368104, 0.03355571841772211, 0.03254334275452441, 0.03155327559195697, 0.030615030368664857, 0.02971176133862845, 0.028888957019020705, 0.02804960831674033, 0.027273874107763482, 0.026505429593371786, 0.02577503534602878, 0.025087449821702683, 0.024431055933911414, 0.02383449572958238, 0.02324893879874915, 0.022701027754161753, 0.02225167690983507, 0.021770000131050418, 0.02133874452082313, 0.020934747466227727, 0.02056975511204232, 0.020257101323933324, 0.019966352168047475, 0.019717069530114435, 0.019501216787856143, 0.019322430926571193, 0.019245108058279215, 0.0191308774020287, 0.0190403019905231, 0.019006082704965753, 0.019008803250433904, 0.01908298850893617, 0.01915358962321361, 0.019340545500375613, 0.01947541310200255, 0.01965090262907932, 0.01991143656431421, 0.020159047378552987, 0.020432706015967538, 0.02076106648133262, 0.021126506244818953, 0.02154225146224152, 0.02197776821329732, 0.022424471867906484, 0.022933892494725158, 0.023476410684272735