0.04359255879369082, 0.04313376305167433, 0.042598574683103047, 0.04222314893980615, 0.04186856470577698, 0.04167769205604408, 0.04133738719575896, 0.04090443885926416, 0.04061717449211897, 0.04033863644686477, 0.04008693679185499, 0.039819581275772925, 0.039607377932078365, 0.03934600899919865, 0.0390923832108302, 0.03881319637799524, 0.03857677437582032, 0.038269642425895284, 0.03805039828345125, 0.03783082327685791, 0.03763109172858402, 0.03741051631670175, 0.03713766198395768, 0.03693034109787616, 0.03672386803166866, 0.036574377430741774, 0.03636551163630374, 0.03612767293124908, 0.03593711967325692, 0.035752023786233635, 0.03552762699723442, 0.03536113856928451, 0.03515725854704664, 0.03500659157127261, 0.034860102404965586, 0.03486489353275166, 0.03471151504393926, 0.03443725323831279, 0.034331497953344815, 0.0342328124564438, 0.03412258434013052, 0.034042975900735226, 0.03400085896361269, 0.0339349235642521, 0.0338803975237139, 0.033792250399433545, 0.03376741990219876, 0.03390824271562032, 0.03388423148526501, 0.033880132887865656, 0.03386602400136955, 0.033903371797008336, 0.0339279172987444, 0.034001539027061496, 0.034089544085631085, 0.03407200723154166, 0.03420431244424218, 0.034416016089862216, 0.034556453189076686, 0.034711028871066224, 0.03483789327832927, 0.035027040120264856, 0.03521590875044567, 0.03543271278322773, 0.03566267024865403, 0.03587071443262686, 0.03613329834137747, 0.03650930971867452, 0.03678564316247044, 0.037013788450662694, 0.037338433338705485, 0.037678862091680115, 0.03800307068764619, 0.03838045470062259, 0.038795736554934145, 0.03920123801697838, 0.03962437488606791, 0.04002654361834694, 0.04049083854151824, 0.04099422053568955, 0.041488984778857874, 0.042002522566557204, 0.042525406686297534, 0.043078620588726316, 0.04374501055793387, 0.04432484403056148, 0.044929695893527716, 0.04557208141477039, 0.04622402039123873, 0.04686161281090627, 0.04756728993327777, 0.04829472752374546, 0.04910890378011535, 0.04987195115767283, 0.0506574837480051, 0.05147201927351662, 0.05231141704555103, 0.05318520108381559, 0.05407252414528814, 0.0548355576046421, 0.05579151718670892, 0.05676383511383362, 0.05789966529040213, 0.0588896061819588, 0.05983587599549237, 0.060889929115857694, 0.061967099538508895, 0.06300611142695922, 0.06413838544774325, 0.06529134466495258, 0.06646578088398429, 0.0676624029727437, 0.06901810601579964, 0.07024370146326495, 0.07135158860906526, 0.07265846301975858, 0.07398727046727026, 0.07550417561315345, 0.07685795734639735, 0.07825456243817384, 0.07967244267436058, 0.08112235938005974, 0.08244460579573368, 0.08397658412198841, 0.0855362282208603, 0.08711052998030258, 0.08870785782754476, 0.09032227940353073, 0.09196807559973644, 0.09378722876161777, 0.09546279822845859, 0.0971716136155981, 0.09875054716710277, 0.10054372782834174, 0.1024851257396088, 0.10430633812323505, 0.10615755355430649, 0.10794090092344658, 0.10986285384535419, 0.11191817182277611, 0.11387266441197094, 0.11585708438107943, 0.11774426569492423, 0.1198026834665977, 0.12199897473358152, 0.1240853103934176, 0.12620025172148375, 0.1282199385594987, 0.1304059956386344, 0.1326770238667394, 0.13489557570116506, 0.13713881950576756, 0.13933520860852097, 0.14163633290172656, 0.1440841173124284, 0.14640986849909213, 0.14876349404687417, 0.15100791876340608, 0.15343213887247745, 0.15589053242309445, 0.15834903934936942, 0.16082718077802963, 0.16346458321756854, 0.16596465225796198, 0.16845343005501365, 0.17101252938247527, 0.17359482897116293, 0.17610555658554458, 0.17874412775114243, 0.1814440802720587, 0.18410899212963489, 0.1867926678559193, 0.18946232664808682, 0.1921866061435838, 0.19503383933397458, 0.1977762484659825, 0.20054028330933066, 0.20317564545940506, 0.20599869368436835, 0.2088839260545412, 0.21172128875373797, 0.2145723963060687, 0.2173623497310359, 0.22024951263776615, 0.22323290079766434, 0.22612647908302122, 0.22903397195516342, 0.23192227848786853, 0.2348597361237447, 0.23782679898439826, 0.24078169370934874, 0.24374703166200262, 0.24680657522884195, 0.24978035994807524, 0.2525761247847195, 0.2555996239962031, 0.2586232983339507, 0.261618360162906, 0.26464718396288284, 0.26776300689771804, 0.27077985985202213, 0.27380150878153797, 0.2767299857678145, 0.27977160593472505, 0.2829436260905946, 0.28596330269562426, 0.28898794184666804, 0.2918898554861069, 0.294936987820327, 0.29805326200061244, 0.30107999201895413, 0.30410531803991764, 0.307086281018003, 0.3101117852269404, 0.31317659634615885, 0.31618369262940066, 0.31918630983691587, 0.32224521355895597, 0.32522846311083725, 0.32815944087240567, 0.33114029916136806, 0.33411223170926496, 0.33703550752376593, 0.33999212613848595, 0.3430293581393168, 0.3459466840205375, 0.34885488442239104, 0.35161318950394904, 0.3545170574035962, 0.35738091770303265, 0.36024621202211093, 0.3630898813325032, 0.3659703615121137, 0.3687634200143646, 0.37149256069777287, 0.37425369045384715, 0.37699241187039817, 0.37967271134856684, 0.3823701002128774, 0.3850451989692006, 0.3876909348132439, 0.3903108998185196, 0.39290476053959106, 0.39547213108717677, 0.3979963576734651, 0.40051146197967896, 0.40299775291386003, 0.4056202836173616, 0.4080267622569791, 0.4103669503903031, 0.41273558665277255, 0.4150772520817052, 0.417322601678877, 0.41961536865660726, 0.421951770340391, 0.424165763926419, 0.4263489459005579, 0.4285456188244952, 0.43065815026457205, 0.43260300661175805, 0.4346686496502628, 0.4366927495148002, 0.4387564076779727, 0.4406870916330682, 0.442476789202113, 0.4443454604724805, 0.4461695726942868, 0.4479914149969598, 0.4497213478107658, 0.4513119030495115, 0.4529696404882188, 0.45462771529758683, 0.4561830120090233, 0.45769334865703265, 0.4591422933438103, 0.4605641008342684, 0.46195878962638365, 0.46328481179081044, 0.464564999306978, 0.46571462723245677, 0.46691268964610977, 0.4681758521236955, 0.4692560553516825, 0.4702916359933849, 0.47127206935502974, 0.4722173145410275, 0.4730794876913417, 0.47393391656829714, 0.4747378745323614, 0.47557226748588377, 0.47626441906315187, 0.4767867552875901, 0.4774005782886505, 0.47795932583476325, 0.47847627303984097, 0.4789240711598951, 0.47926311517504716, 0.47961074512216956, 0.47990177750751256, 0.48028591771775636, 0.4804462164092121, 0.48054652073370074, 0.48061351632260324, 0.4806310524349011, 0.4804525314950198, 0.4803878768680563, 0.4804359360189618, 0.48023185419011066, 0.4799796737902572, 0.4795715777446708, 0.47923458116069795, 0.4787961051855375, 0.4783531343556284, 0.477852331991016, 0.4774436579800284, 0.4768104228801436, 0.47612971551395006, 0.4754008939473701, 0.4746234246237833, 0.4736735888720833, 0.4728132010595869, 0.47198705230201693, 0.4710027834749844, 0.46996857716659235, 0.46874166403228157, 0.46762562575128525, 0.4665555476914886, 0.4653119343280568, 0.46401872361549334, 0.4626761564499136, 0.461284496547453, 0.4598342967178441, 0.458346560777075, 0.45681010681531364, 0.4551085648594936, 0.45349072951764074, 0.45181892725822526, 0.45009455095153517, 0.4483188866682047, 0.4465515233003777, 0.44466938762030545, 0.44267119504656605, 0.44070921704791094, 0.43869954467753935, 0.43673409169048977, 0.43462069487845817, 0.4324060834082687, 0.4302215005838128, 0.4279942615259011, 0.4258581338984148, 0.42353099419393697, 0.42118059101180816, 0.418785860705499, 0.41635806957878807, 0.41385158844066394, 0.4113629063524774, 0.40882858614983064, 0.4062697924592006, 0.40367552426759507, 0.4010366731055109, 0.3983745847636946, 0.3957205977049148, 0.3929857979286806, 0.3902208425839312, 0.38740996141823636, 0.38458815093714455, 0.3815972696837837, 0.3787346885581564, 0.3758361732510687, 0.3730560875830951, 0.3700719427741297, 0.3669845994025754, 0.36396685226740794, 0.3609231715707718, 0.3578254525592548, 0.35473684982229464, 0.3516108946540847, 0.34847643145482193, 0.34531931206109967, 0.34212132747255114, 0.3389250739428656, 0.33585468158917414, 0.33260096966618014, 0.329337796930178, 0.3258867112005957, 0.3226272357705073, 0.3194004414290374, 0.3160976370810505, 0.31278179494092073, 0.3094345237009404, 0.3060982577275535, 0.30288400619415673, 0.2995100565085103, 0.29613480807454134, 0.2926771430722235, 0.2893096217533091, 0.2859300170855977, 0.28255303554632766, 0.27917190352350235, 0.27581676317608883, 0.2724264532030665, 0.2689390878597688, 0.2655623000889952, 0.26218167470929565, 0.25882789047909566, 0.25544025240267515, 0.2521032725840358, 0.24871448060639476, 0.24533240364072162, 0.24198679584452623, 0.2386161422073774, 0.23509983619948668, 0.23176939540763042, 0.22844107539489525, 0.22529826029048367, 0.22195619215809534, 0.21847546064293646, 0.2151871167013836, 0.21190699642241345, 0.20866237894334264, 0.20539931315580914, 0.20225671772259396, 0.19900781387572986, 0.19578005591721992, 0.19262205965363605, 0.18943036790602394, 0.186210713680335, 0.18307324075703102, 0.17995642674816403, 0.17684442122950275, 0.17377211841384171, 0.17070129332913922, 0.16767391389518588, 0.16466753545056925, 0.16166991064802508, 0.15870934235941225, 0.15569654945446385, 0.1527909730145935, 0.14990510293212528, 0.14704997049061705, 0.14420607086448203, 0.14140871815565217, 0.13861054607293086, 0.13583926387340625, 0.13310520792434768, 0.1303882459096883, 0.12783992220186288, 0.1251640020510888, 0.12252585556566369, 0.11990527132299805, 0.11734301749574898, 0.11477662499812968, 0.11228861524343604, 0.10983274948783758, 0.10734431211555386, 0.10496146270419726, 0.10268876759847283, 0.10035447243376179, 0.09805514849053766, 0.09569341218652544, 0.09347620290408223, 0.09131437243469061, 0.08915352593997161, 0.08702506998180416, 0.0848969898005028, 0.08283865765413019, 0.08082502590413196, 0.07882906113449956, 0.07686660196790124, 0.07507747829014566, 0.07316531614146767, 0.07125314853672167, 0.06942973492208776, 0.06764437587977837, 0.06599725302126966, 0.06427414848723094, 0.06250932655836221, 0.06088106131064412, 0.05939893755418223, 0.057828213705300384, 0.05629917077309288, 0.0549048569923412, 0.05344428808978875, 0.05191436423053144, 0.05055507425524242, 0.049230842044418514, 0.047941443252147734, 0.046686680066815964, 0.04570970149072732, 0.04449293402763049, 0.043323979781713755, 0.042041777113733345, 0.04098253096860838, 0.03996311900128803, 0.03896960279584288, 0.0380095325634631, 0.037154121406471244, 0.0362514472471983, 0.03557070713711318, 0.03471796445736089, 0.03391128171222847, 0.03306426199947653, 0.032354473856100394, 0.0317519547523094, 0.031104214311226116, 0.030495029880245512, 0.030040071439851046, 0.029489990639318973, 0.029053413133069146, 0.028576864007681026, 0.028143259259487016, 0.027753967021567502, 0.027400449260709277, 0.027098091644380255, 0.026818031393750715, 0.026574516300597484, 0.02634702598106164, 0.02617604262485509, 0.02601829511152931, 0.02591465725395777, 0.025841665640080027, 0.02593535988053863, 0.025905800949883165, 0.025784195936141046, 0.02584526984185602, 0.02593448144721422, 0.026051932462682628, 0.02619771425106219, 0.026556833199385673, 0.02673612002932564, 0.02695431435162123, 0.0271969906312913, 0.027490465785356768, 0.027879908766612012, 0.028233353774617106, 0.02862291686344715, 0.028920889136634795, 0.029395291957037797, 0.02988585882792026, 0.03041351228160399, 0.030966943455324303, 0.03173457873709932, 0.03231650593292043, 0.03295815079011068, 0.03360987206319348, 0.03429733816040698, 0.03499012458352931, 0.03574924835219677, 0.036399737413720414, 0.03723766363260306, 0.038097552462967366, 0.03915204543629, 0.040036118097220984, 0.04083361656564806, 0.04179889881507226, 0.04278922274594714, 0.04398006163422485, 0.04499912790775487, 0.04602138162848778, 0.04711460664193845, 0.04823938595931419, 0.04925880637361627, 0.05046206178959916, 0.05178162454797331, 0.05301812193654156, 0.05428344170385019, 0.05564552240585893, 0.056959333110093525, 0.05824043562232722, 0.059626170181524725, 0.06103926313341162, 0.06235974061763933, 0.0638429401269641, 0.065522191680606, 0.0670260224700919, 0.06856256604968004, 0.070111805650715, 0.07171466946410222, 0.07318553370679162, 0.07486918096588435, 0.07657366324146579, 0.078446201789003, 0.08017744810858139, 0.08179179791102353, 0.08360631095396308, 0.0854442682448187, 0.08733263822117951, 0.08921713960341893, 0.09109683814013171, 0.09304124623400459, 0.0950124723424278, 0.09702418575330295, 0.0990494123670401, 0.10114947811042165, 0.10322819803636801, 0.10533964836014134, 0.10755192790106415, 0.10972014727661915, 0.11179510741034472, 0.11405223846893567, 0.11633763589771277, 0.11866171313578704, 0.12100439511220261, 0.12339398229717563, 0.12579642424548768, 0.1282313160578498, 0.13067944524272104, 0.1331824499291946, 0.1358148783708306, 0.13837015342106496, 0.14096373897941228, 0.14338431552863629, 0.14607994989751524, 0.14886261526219385, 0.15160270267109338, 0.15437442463944753, 0.1571265549935907, 0.15997009535480872, 0.16294479682065127, 0.1658377230678649, 0.168768640271349, 0.17162393154765557, 0.17464501312127773, 0.17767811223390706, 0.18076552673800558, 0.18388504377786408, 0.18709269200891596, 0.19027196661045068, 0.19354393060346603, 0.19679146675844172, 0.20007994428379583, 0.20344473959992593, 0.20680969604158206, 0.21009998942607178, 0.2135634955166074, 0.21706167868823856, 0.2205788977184961, 0.22415016367356433, 0.22770808673288864, 0.23135668489717046, 0.23503887834485046, 0.23892741765561346, 0.24265736095697135, 0.24630288058875344, 0.25013906959490595, 0.25401169588338157, 0.25793409696775055, 0.26187898379467306, 0.26593009095852216, 0.2699426498002429, 0.27399730828342084, 0.2780805939316512, 0.2822196501800013, 0.2863370740640962, 0.2905636672273102, 0.2948262725527665, 0.2990050960108518, 0.3033555898728841, 0.30794358213957956, 0.31232861027236797, 0.3167571212811874, 0.3210530085078536, 0.32558797071839307, 0.3302676063004346, 0.33485114361908774, 0.339473428271419, 0.3440496446865133, 0.34875870904393125, 0.35350366537314587, 0.35827784852688666, 0.36308524683317306, 0.36788373388822815, 0.37276297820960186, 0.3777735997647962, 0.38270193745416264, 0.38766703585002427, 0.39264539937823856, 0.39768455609644177, 0.4026725509035737, 0.40778820561079177, 0.41292471993498747, 0.41809599872044323, 0.42329438003515896, 0.42847117421849595, 0.4337297521073759, 0.4389896613880062, 0.44429931847024984, 0.4496318746840636, 0.4550036353902962, 0.4603800701801106, 0.4659002576972788, 0.4713085660757107, 0.4767465033953258, 0.4821152617590257, 0.48762038862244317, 0.4931259537778601, 0.4986728140485086, 0.5042373579351619, 0.5098969632966528, 0.5154855051770707, 0.5211009388188406, 0.5267281735802748, 0.5323736173214477, 0.5379354022652059, 0.5436261271978527, 0.5493775238393216, 0.5550787965280588, 0.5607908345656467, 0.5663828747916011, 0.572129863980036, 0.5780362844788529, 0.5837640930077804, 0.5895011403292829, 0.5951939645102848, 0.6009514340632149, 0.6067204176248402, 0.6124791882557178, 0.6182382010666633, 0.623924924916826, 0.6296899673908503, 0.6354444996240268, 0.641194804095319, 0.6469363459059957, 0.6526618895662594, 0.6583844148509983, 0.6640499451610727, 0.6697541752702998, 0.6754424432355074, 0.6812276624348202, 0.6868676403196418, 0.6924666429786873, 0.6980849553392979, 0.7036862882493601, 0.7092951129740049, 0.7148547641009497, 0.7202614507565737, 0.725796359496679, 0.7313005548021143, 0.7368773202086835, 0.742305251670952, 0.747647988199062, 0.7530280554864233, 0.7583747680123325, 0.7637291707522342, 0.7690004128951596, 0.7740976683778464, 0.779316027138724, 0.7844889717183638, 0.7895868987742114, 0.7946713710709785, 0.7998045521620922, 0.8047789758543185, 0.8097091245904011, 0.8146324291463427, 0.8194646079668227, 0.8240652855839086, 0.8288259049569328, 0.8335260340626569, 0.8383341647219884, 0.8428912006146828, 0.8472469254084396, 0.8517167383729211, 0.8561222758108679, 0.8605634973467973, 0.8648258358697194, 0.8690242035824588, 0.8731638460854226, 0.8772393166090517, 0.8811549869726693, 0.8851094186955407, 0.8890807214053325, 0.8928750482022184, 0.896599086408859, 0.9001442538348694, 0.9037367409040847, 0.9073361091007629, 0.9107555657895821, 0.9140981118507324, 0.9172877801326919, 0.9204819369383324, 0.9236364918660325, 0.9266542295525949, 0.9295881942663873, 0.9325281634870397, 0.9352799260913298, 0.9378201133694792, 0.9404229523247739, 0.9429333647371033, 0.9453671078369535, 0.9476891921510289, 0.9499150364322254, 0.9520508696632543, 0.9540921869331892, 0.9560935043656865, 0.9579369079471647, 0.9595993970310942, 0.9612661812760193, 0.9628326790293492, 0.9642467554295778, 0.9656185398711724, 0.9668896169846908, 0.9680532152085531, 0.9691132355184724, 0.9700923731583709, 0.970942279630977, 0.9717383864142448, 0.9723769119254333, 0.9729151099934482, 0.9732939029101043, 0.9736368493128147, 0.9739359685121174, 0.9740601430562537, 0.9740822258105614, 0.9740276336786927, 0.973840703953699, 0.9735063007498286, 0.9731204527817473, 0.972628976947749, 0.9719539841162302, 0.971261052639014, 0.9706073798004512, 0.9696763121323834, 0.9686449835818465, 0.9674738753628475, 0.9662453063076676, 0.9648804373369052, 0.9634483176292836, 0.961910699844759, 0.9603913043900307, 0.9586284318332245, 0.9567456440997971, 0.95479074759911, 0.9527365485828948, 0.9505019207737784, 0.948259421844619, 0.9458354545979505, 0.943396515304463, 0.9408514505946949, 0.9383315893979037, 0.9355624615223966, 0.9327411313574562, 0.9297782417574159, 0.9267240822736978, 0.9235625860167747, 0.9203285195795575, 0.9169381942308695, 0.9135301994797586, 0.910028492224403, 0.9064927531994681, 0.9028000881413792, 0.8990111132234985, 0.8951473522903686, 0.8911981891202794, 0.887044617203999, 0.882942976661003, 0.8787978605925243, 0.8745148196541803, 0.8701496221667726, 0.8657460656232135, 0.8612160705788251, 0.85665977245849, 0.8519749357063529, 0.8472203943488493, 0.8423613903264392, 0.8374748239715262, 0.8323930531463326, 0.8273865812313862, 0.8223072575755049, 0.817293867184335, 0.8120590819950868, 0.8066366035484982, 0.8013035509515782, 0.7959076912761917, 0.7905097598715121, 0.7849878432330317, 0.7793872492008002, 0.7737648477153595, 0.7680916349329097, 0.7622851664450357, 0.7565267061055871, 0.7507183827981353, 0.7448627454918701, 0.7389622513253841, 0.7331393163093738, 0.7271409859953631, 0.7209751933627956, 0.7149329102135025, 0.7089548627081369, 0.7028296358506755, 0.6966785389414363, 0.6904219620384965, 0.6842339155307898, 0.6779876164165191, 0.67175431510402, 0.6654978574823448, 0.6594218209394942, 0.6531008329830986, 0.6466842162584306, 0.6403657592522297, 0.634038806395009, 0.6276822824732902, 0.6213461462211941, 0.6150733671918363, 0.6087209716461857, 0.6023714306171228, 0.5959255230144067, 0.5895985327751634, 0.583279490576246, 0.5769569352712005, 0.5706408210630461, 0.5642230173410455, 0.5579402198913762, 0.5516932766832634, 0.5454230401540042, 0.5391668357940214, 0.5329692673625314, 0.52674298369236, 0.5204817111446439, 0.514311459703857, 0.5081649697130906, 0.5020866569408033, 0.4959889892868191, 0.48986551846549514, 0.4838420853803426, 0.47785126618752033, 0.47191136201596845, 0.4659898753177126, 0.46024092750017276, 0.45438338501323366, 0.4485762206489266, 0.4427031952146543, 0.43701331433387997, 0.431424338635308, 0.42582072021712813, 0.42026935793193126, 0.4147097888085689, 0.40927427443058256, 0.4039819441584276, 0.3986413067395963, 0.393361398452122, 0.38799704236439647, 0.3828595362301336, 0.37785821364327765, 0.37282266804621916, 0.36785074815438534, 0.36293387992007986, 0.358093885906144, 0.3533171048616451, 0.3486115737349582, 0.34397455111861935, 0.3394849804262534, 0.33497832402681604, 0.3305249425645752, 0.3261734523777195, 0.3218973577066127, 0.31768749805429464, 0.3135651429493744, 0.3094998861758527, 0.3055337621033462, 0.3016443726198888, 0.2977902978382659, 0.2940619366337522, 0.2904003508357295, 0.28682720432323316, 0.2833318701023216, 0.27994118386594474, 0.2766007499729288, 0.2732770888543547, 0.27010860647338997, 0.2670189517646025, 0.2640381802795464, 0.2611049488763832, 0.258209010455965, 0.2554472624600124, 0.25276624460813546, 0.2501600274553749, 0.2476428670169412, 0.24523016450921614, 0.242873956208269, 0.2406013381776636, 0.23839606322556206, 0.2362925454401042, 0.23431689021206167, 0.23237246220929939, 0.23051285977578734, 0.22862074792241124, 0.2269439357093662, 0.2255319135526926, 0.22398490956294168, 0.22252567935421066, 0.22095816182534334, 0.2196949641890433, 0.21860520517214252, 0.21747538321976287, 0.21642465222330823, 0.21549122158961234, 0.21459156019644668, 0.21365090012551216, 0.21292339709796468, 0.21226600980902433, 0.21176947006791222, 0.21124038913797868, 0.21086048949770375, 0.21046995063809112, 0.21015587233035912, 0.20984838339534706, 0.20969069425311065, 0.20946761737791356, 0.20946100935616097, 0.20951255222815446, 0.20977476222076527, 0.2099232725388019, 0.21000837118811566, 0.2103043997131029, 0.21065631486001193, 0.2110603664575593, 0.21152284346074401, 0.2120229821609366, 0.2125945099712431, 0.21321739338900556, 0.21393301242064064, 0.21465079966720244, 0.2153937163367282, 0.21621558330988927, 0.21708431519122565, 0.21807008313847748, 0.21901986361943437, 0.21997135317861052, 0.22101923790682468, 0.2221079457170047, 0.22323277284125356, 0.22439914505280817, 0.2257055592244825, 0.2269297818840578, 0.22819310280821706, 0.22950617231829057, 0.2308391623014547, 0.23225069304510088, 0.23364200715575556, 0.2350647277213213, 0.2363250598886642, 0.23782777080211304, 0.23933784679711648, 0.24086855059395623, 0.2424115648652796, 0.24403432983844667, 0.24559118276169767, 0.24707422275836563, 0.24866822120330745, 0.2502680895492605, 0.2520320036264983, 0.25362103560086796, 0.25519950914292694, 0.25681341037143174, 0.2584336756089552, 0.26004214902659534, 0.26167145156756355, 0.26318703115116004, 0.26482871301724065, 0.2664606120342589, 0.2682021075942404, 0.26979719598188245, 0.2712215504267939, 0.27282516156488595, 0.2744105715439369, 0.27617528163947225, 0.2776979470096058, 0.2790984380142009, 0.28061592690971404, 0.2821139660148183, 0.2836984778880564, 0.28514065098314406, 0.2864426550034396, 0.2878646303206656, 0.2892588759943712, 0.29064403866599875, 0.29197787496880656, 0.29323386400446816, 0.29451443623212115, 0.29576099322092686, 0.2971253666325869, 0.2982826176755109, 0.29921443789226143, 0.30033968051509674, 0.30142246439951087, 0.30248536352286487, 0.3034798638788357, 0.30443252545543353, 0.3053428052573594, 0.3061744404957633, 0.3070027178741151, 0.30778481386125095, 0.3086144659001978, 0.30929121384322855, 0.3098707363882286, 0.3104690993827532, 0.31101993664639216, 0.31169132164113, 0.312123892418127, 0.3124127277063694, 0.31277664529974003, 0.3130911143233935, 0.3132807626559493, 0.3135035671188864, 0.31365117521957586, 0.3137649862607285, 0.31382196087658104, 0.31381572682605796, 0.3137601634607553, 0.3136573838032533, 0.3134867742229469, 0.31325990408243815, 0.3130059358547987, 0.3126627402491691, 0.31234916103011967, 0.3118855590858988, 0.31137145496434526, 0.31086113009318217, 0.3102365528539754, 0.3094325345222446, 0.3087240537569604, 0.3079568223751723, 0.30708902389205744, 0.30621070315434673, 0.3052691012674468, 0.30427182150115495, 0.3032156954502513, 0.3020786766680004, 0.30090969279109364, 0.299744142338082, 0.298451723649031, 0.2971060729736737, 0.2956879393030159, 0.294238967824838, 0.2927915806924312, 0.2912289772531765, 0.2896168754999012, 0.2878612583347687, 0.28616233361878135, 0.2844836672416571, 0.28266761274027924, 0.2808034054061073, 0.2788784323317407, 0.2769207038184703, 0.27493155755372883, 0.27287711108282003, 0.2707771891449871, 0.26861611006948294, 0.2664289520570678, 0.26413227034516107, 0.2618648362399477, 0.25955073126465444, 0.25737623743625987, 0.2549494289896795, 0.25233777982866756, 0.2498652867171015, 0.24735153325841447, 0.24484645557964252, 0.24224781817200478, 0.2396857729544503, 0.23700936390135388, 0.2343038499060956, 0.23141381429130306, 0.22867081439905323, 0.22611505460959005, 0.22327235085628142, 0.2204091883960533, 0.21749301240143962, 0.21459285967215896, 0.2115440274604816, 0.20861615500217015, 0.2056602822885638, 0.2028014551057446, 0.19977921974763327, 0.19667288725909016, 0.193627945482969, 0.1905645159141785, 0.18751310631396423, 0.1844129309769845, 0.18139066023340633, 0.17825418582861277, 0.17511201755900585, 0.17191586627957234, 0.1687697000451603, 0.16559708624252042, 0.16244047887143911, 0.15927794776299115, 0.1561724058947006, 0.15299404693721297, 0.14987543698649333, 0.1466931722867673, 0.14351714709841168, 0.14040942187966693, 0.13723944039845196, 0.1341683104806392, 0.13100996473217705, 0.12786832818127683, 0.1246101346935757, 0.12151818199168471, 0.11860074535790832, 0.11550731943942981, 0.112434910955209, 0.10941597189857107, 0.10638168366537883, 0.10330583858859833, 0.10032659171548135, 0.0973675305608253, 0.09447504194349285, 0.09155355211544938, 0.0886935080415606, 0.08581973274666999, 0.08297520731437424, 0.08029025419732935, 0.07748955188761264, 0.07468185006710651, 0.07196345721851004, 0.06928056619667891, 0.06660765247363493, 0.06400043174372158, 0.06160401120805846, 0.05904673616866555, 0.05653670113021589, 0.05409939565872279, 0.05167935761730656, 0.049274736404841236, 0.046954361912518436, 0.04467986589358, 0.04251328626143365, 0.04032402664361953, 0.038192026979552325, 0.03610361113325322, 0.03406668610461369, 0.03202313185022216, 0.030097494407589392, 0.02842554925692018, 0.026573641928944094, 0.024784448169436417, 0.022908045138445646, 0.0212612875913392, 0.019651143198479146, 0.018113125239900826, 0.016629047325051504, 0.015368717056091304, 0.013974452487740503, 0.012594864505516286, 0.011339952123917217, 0.010148071736041165, 0.008980559759401206, 0.007920513512334979, 0.006964415034895125, 0.006023263901679203, 0.00514760250873843, 0.004366936739275987, 0.003619503500968591, 0.0030050602541671595, 0.0023857459494973222, 0.0018384439524789535, 0.0013109024496290186, 0.0009132474843007318, 0.0005222696898269713, 0.00026934750597984106, 8.18874542185683e-05, 6.774895828744362e-05, 0.0, 5.458233632495923e-05, 0.0001277618844803905, 0.0002768877701988712, 0.00046248012331369604, 0.000766862539639586, 0.001085208721453202, 0.0015416861558696108, 0.0020672393992009247, 0.002785637685428247, 0.003435158156836749, 0.004187933186576203, 0.004988121651204915, 0.005865845851753605, 0.006716577302457724, 0.007760456006145405, 0.008864428361637295, 0.010049541457156114, 0.011304588280814902, 0.012574750344001767, 0.013977589719302208, 0.015636285656302578, 0.017151329494475856, 0.018745770790318486, 0.02027253570485916, 0.022041096886944153, 0.023981739499408135, 0.025874067554777426, 0.027867100460097074, 0.029905036541147047, 0.03201799731108633, 0.03417928196110016, 0.036443390102560445, 0.03869787670595372, 0.04111481931889077, 0.04359791739181466, 0.04623504100899474, 0.048840116909170415, 0.0513416645667638, 0.05411157730671939, 0.05694205765782491, 0.05997666574776053, 0.06291250429872695, 0.0659383610313489, 0.06901207655462205, 0.07215592915960885, 0.07524575787826004, 0.07854288140072521, 0.08196883433434166, 0.0853789556380654, 0.08885393222725728, 0.09230240433149388, 0.09591700867313804, 0.09951515579930308, 0.10325569269243434, 0.10705044727361371, 0.11088701830912699, 0.11479341769701894, 0.11885514529874366, 0.12285858212403529, 0.1269227789727561, 0.1310112382964515, 0.13519903272105346, 0.1393717650771947, 0.14368067494106213, 0.14804078293731254, 0.1525007198181738, 0.15695686686617272, 0.1614470806211955, 0.16601205489335322, 0.1706280461476404, 0.17539179591187232, 0.18009571218795825, 0.1848542347850807, 0.18966589413466406, 0.19452929279421802, 0.1994495879850013, 0.204411710804949, 0.2092988333576209, 0.21437189350860908, 0.2194839316245555, 0.22466401526773538, 0.2298498415333391, 0.23516000582843394, 0.24041454962331332, 0.2457126064133811, 0.2510268976232915, 0.2564113498524739, 0.2617821503053935, 0.2672487274837939, 0.2727487598340273, 0.27817468139168927, 0.2837536135820214, 0.28939730367905203, 0.2950232172774497, 0.30067750983280206, 0.30640852664989265, 0.3121123930456685, 0.317820247298601, 0.3235863749005774, 0.32937917398909106, 0.3352466066807779, 0.341084459451071, 0.3468197531385821, 0.35272727435310525, 0.3586524191386541, 0.36470218076589556, 0.37064872190898157, 0.3766767802442951, 0.3826609628601075, 0.3886691473184166, 0.3945634500204088, 0.4006320870216898, 0.4066832620658024, 0.41277877052863726, 0.4188837155507724, 0.4249654552948829, 0.43109269138930467, 0.4373142879518066, 0.44344379814583307, 0.4495845371310159, 0.4556445998132881, 0.4618161008568291, 0.4679905710557371, 0.4741677060152583, 0.48034711992061324, 0.4865445757757067, 0.49272505558081364, 0.49893311569120063, 0.5051128022601407, 0.5112940164252217, 0.5174303120281575, 0.5236172519447381, 0.5298293060355205, 0.5360037383433788, 0.5421743927810746, 0.5483922237419291, 0.5545458933128301, 0.560702320195327, 0.5668463348318438, 0.572984292497711, 0.5790402528291027, 0.5851716208213459, 0.5913311088520229, 0.5974284527309737, 0.6035129146143523, 0.6095737774541488, 0.6156307680788549, 0.6216357324125659, 0.6276636919126867, 0.6336715792740873, 0.639688017544511, 0.6456503072731625, 0.6514722977575422, 0.6574083453043863, 0.6633155978021101, 0.6691843940208835, 0.6750353867123149, 0.6809769585996331, 0.6867536889289982, 0.6925072772031149, 0.6982396650062686, 0.7039426969457581, 0.7095378875721983, 0.7151965083525944, 0.7208214833098112, 0.726512914899852, 0.7320564196098851, 0.7373822010894368, 0.7428889882517652, 0.7483529190744761, 0.7537872063057003, 0.7591643581640078, 0.7644802403838934, 0.7697760209294565, 0.7750283727754438, 0.7802662710751929, 0.7854273181393515, 0.7906300140415922, 0.795694306017206, 0.8007192359065295, 0.8055801071840145, 0.8105377292394711, 0.8154417780501501, 0.8202989100636513, 0.8251049742302624, 0.8299893920025578, 0.8346757978059617, 0.8391841761879373, 0.8437958301610426, 0.8483519978322679, 0.8529561893315687, 0.8573872762425392, 0.8616053996739654, 0.865954211347003, 0.8702406541616043, 0.8746076169554556, 0.87875158225979, 0.88273423722032, 0.8867819529703284, 0.8907668982096975, 0.8947601494756666, 0.898609585261417, 0.902321359271069, 0.906060046868682, 0.9097326118985791, 0.9134101360807774, 0.916940508976763, 0.9204953620636855, 0.9238874507615805, 0.9272194343781983, 0.9303826596034975, 0.9336033266089574, 0.9366496624296426, 0.9397420516652837, 0.9427573333514031, 0.9456829670442113, 0.9485468749560497, 0.9514539794184962, 0.9541492677847677, 0.9567748504189363, 0.9592130424407368, 0.9617113636970215, 0.9640595273678171, 0.9664094971829128, 0.9686769801643162, 0.9710767218706766, 0.973153887344065, 0.975077716768268, 0.977026135128033, 0.9788980696897107, 0.9806281062485506, 0.9823537167648401, 0.9841826128402562, 0.9857216200576612, 0.9871278026324377, 0.9885307368195758, 0.9898561793729781, 0.9911228862490937, 0.9922888231172761, 0.9932142157378714, 0.994243332917978, 0.9951837431590623, 0.9961205705099864, 0.9968751171661416, 0.9974244355797066, 0.9980305121154719, 0.998547400022094, 0.9990538145720507, 0.9993849274209343, 0.9995588477521422, 0.9997341905478143, 0.9998226592300168, 1.0, 0.9998941607312123, 0.9996121749073189, 0.999366881779873, 0.9990384543970289, 0.998600978125175, 0.9981096976830922, 0.9975826537044139, 0.9969166561220989, 0.9961695380134465, 0.9953541636092453, 0.9944428700864986, 0.9934412473371891, 0.9923699059910421, 0.9912173032934231, 0.9898894488717588, 0.9885865425840628, 0.9873661964361281, 0.985870628674299, 0.9843002427307471, 0.9824663583518629, 0.9807687238031124, 0.97912404840098, 0.9772370238917518, 0.9752738762655987, 0.9732022115021968, 0.9710911355819523, 0.9688083771557527, 0.9665545034334103, 0.9642187748199345, 0.9619484868042858, 0.9594344188203907, 0.9567984748842182, 0.954150974289826, 0.9514305666675106, 0.9486897048644177, 0.9458185828366683, 0.9427623973041444, 0.9397697268327829, 0.936702752516238, 0.9335952295554788, 0.9303794329201149, 0.927182547622997, 0.9238192293606405, 0.9203939938118185, 0.9168616468330738, 0.9133190914309249, 0.9098135934196403, 0.9061321358709601, 0.9023945296176175, 0.8985197601564484, 0.894680518530959, 0.890696870282504, 0.886749275564672, 0.8827390856100584, 0.8787167597146821, 0.8745805375869359, 0.8703442066862008, 0.8661055620757402, 0.8618121000988922, 0.8574005072624591, 0.8530102889310982, 0.8487543725260491, 0.8442345993006538, 0.8396753747210203, 0.8349893876783478, 0.8303633072379843, 0.8257621795470159, 0.8210424316727405, 0.8162859360438125, 0.81128581201191, 0.8064844130338977, 0.801838233301159, 0.7969221586163799, 0.7919765210765363, 0.786820344693779, 0.7818407487685812, 0.7768496891334437, 0.7717943496081643, 0.7667076739315043, 0.7616402578320045, 0.7564904748760019, 0.7511943798803371, 0.7460154695883078, 0.7408092876732251, 0.7356008669337479, 0.7303441123246683, 0.7251750278506133, 0.7198677526179691, 0.7145506300274981, 0.7092666520358587, 0.7039270038066329, 0.6985240844976424, 0.6931827025787904, 0.6878345126222224, 0.682425620997255, 0.6770745799813012, 0.6717596253018405, 0.6663928061735829, 0.661025686523283, 0.6556920164414237, 0.6503241178700747, 0.6449519379838461, 0.6395972294438971, 0.6342495729728299, 0.6287933718409379, 0.6234782015334418, 0.6181898846220955, 0.6128823099983292, 0.6075844081108196, 0.6022460635320445, 0.5969793853562114, 0.5917116762000579, 0.5864725580898588, 0.5812486073358372, 0.5760579780387657, 0.5708680090460917, 0.5656704272046865, 0.5605288522926313, 0.555410225703308, 0.5503681085070015, 0.5452936921898203, 0.5401752448984, 0.5351724600882329, 0.5301981070229879, 0.5253056982760295, 0.5203863728566369, 0.5154478086431102, 0.5106082459991526, 0.5058034105854747, 0.5010573928856307, 0.49632321478068986, 0.49163871873953513, 0.48698422279544035, 0.4823722224382306, 0.47794310438046317, 0.473401082057921, 0.4687173194806193, 0.4643054616687824, 0.4599351478666934, 0.4556792638901748, 0.4513874481934904, 0.44713245303464183, 0.4429425413604433, 0.43880302847448394, 0.4346368091461031, 0.43061019320238975, 0.42677456769744265, 0.42282770170221884, 0.41893962651611705, 0.4149773054604477, 0.411223630172835, 0.4075051646910043, 0.4038576010949411, 0.40026285633413866, 0.3967480245739432, 0.3932589535276845, 0.3899375888576941, 0.3865500194922396, 0.38322728687478874, 0.3799268737589563, 0.3767381865021193, 0.37369547675338866, 0.37061953447456375, 0.3676102700578683, 0.364579562336124, 0.36171323388659654, 0.35892029345868237, 0.3561735272144895, 0.3534886248501327, 0.3507262808720527, 0.34818332261162116, 0.34577927840106404, 0.3433360226599103, 0.34095438651319243, 0.3387449258809454, 0.3364732717198996, 0.33422134359094696, 0.3320918274600732, 0.33002643940293663, 0.3278756502630011, 0.3259565153815593, 0.3242447362050808, 0.32241696029965067, 0.32065424544111853, 0.3189559581835925, 0.317321484287982, 0.31559449650783417, 0.3141055523807571, 0.3127283116186682, 0.3113392699000579, 0.31000800805937645, 0.30880256867006967, 0.307577916283924, 0.3062781328579743, 0.3051921370024414, 0.30415796755311936, 0.3032894561451579, 0.3023452922920004, 0.301307304772374, 0.3004987495366155, 0.2997383278116939, 0.29924366863431173, 0.2985526635560608, 0.29771795861814976, 0.2971723027574026, 0.29667221794920157, 0.2962598494273405, 0.29584536399897843, 0.29554975887574453, 0.2952205692832663, 0.29494146561416346, 0.2947370523094853, 0.29455082172379976, 0.29435053768626995, 0.29426580986874196, 0.2942223229417106, 0.29417377578964604, 0.2942158493565512, 0.2944269242920813, 0.294523568074629, 0.29466243985682505, 0.2948417709708795, 0.29505987322455707, 0.2952437553670004, 0.29554364131277966, 0.2958736320161898, 0.2962133930129126, 0.2966034234491137, 0.29707818372389083, 0.29751271064270396, 0.29797523994296415, 0.2984709312343084, 0.2989846828392426, 0.2994936874548855, 0.30005872115242865, 0.3006439647964688, 0.301300294476669, 0.3019162853833409, 0.3023673443346085, 0.30304522888926444, 0.30372981724919906, 0.30456395082050935, 0.30524402111050436, 0.3059224250624063, 0.3066321963948988, 0.30735272533451163, 0.307946484793432, 0.3087019747260148, 0.309664454200623, 0.3103922624942005, 0.31113068637395547, 0.3117641380701129, 0.31253215022944325, 0.31314612852573204, 0.3139294932539484, 0.3147010654098902, 0.31563637915195625, 0.3163630602706751, 0.3171239817387576, 0.3178417163383848, 0.31855697800469895, 0.3191220439590897, 0.31984571624745817, 0.32057972936517043, 0.3212685625235, 0.32194249752040344, 0.3227468382820226, 0.32337040840248515, 0.32380017080748547, 0.32442740432551176, 0.32503158960404976, 0.3257617349294259, 0.32630018300057656, 0.3266705566398963, 0.32719546555498613, 0.32769304851998504, 0.3282766325134164, 0.3287044641659945, 0.3290066541294298, 0.3294026500913105, 0.32976843351341434, 0.330213964658338, 0.33050429310609997, 0.3306266890282375, 0.33088336257090384, 0.33110424831347646, 0.33134447306424025, 0.33148666179243325, 0.3315472193699737, 0.33162898282915876, 0.33167376930821313, 0.33173974840869075, 0.33170247921821244, 0.33158206778357646, 0.33148121844340644, 0.33134164515131, 0.3311825090738147, 0.33096210347435806, 0.3306285098071942, 0.33033992523010386, 0.3300076512344811, 0.32982975728253233, 0.3293855259934006, 0.3288247087226412, 0.32832511999517416, 0.3277856197154749, 0.32721862995870005, 0.3265960585920263, 0.3259620100853154, 0.32525390223576345, 0.3245058355290172, 0.32357121057871213, 0.3227599568383642, 0.3220449805368053, 0.3211166381358951, 0.32014830574660225, 0.31907458393243526, 0.31803302375954123, 0.3168946372712085, 0.31577005571880434, 0.3145981465659364, 0.3134769158764684, 0.3122000288913054, 0.31078909128387555, 0.30944394800551206, 0.30805318420259026, 0.30668235443622727, 0.3051941158912864, 0.30353927818704457, 0.3019869582321929, 0.300387633937687, 0.2987586923208646, 0.29706671841030224, 0.2953318988881021, 0.293555040545932, 0.2917369084728369, 0.2900209832652569, 0.2881044154725867, 0.28601069814389224, 0.2840497907005123, 0.2820486827292368, 0.2800991433365543, 0.27800889427149583, 0.275915418013809, 0.2737567261959407, 0.2715675184672946, 0.2693218395786461, 0.26707496863116087, 0.26470878542741055, 0.262410012708681, 0.2600755579320176, 0.2578364345012516, 0.2554178776869534, 0.25292258886789115, 0.2504610143789442, 0.2479719283937672, 0.24537813141332335, 0.24284588854030467, 0.2403584585985854, 0.23775853527137591, 0.23513567307205216, 0.23251973430248937, 0.22984932305849753, 0.22715320253288213, 0.22444568436220852, 0.22171966257293466, 0.2189595834988498, 0.21620064716859774, 0.21356391698821448, 0.21075364367336605, 0.20793571659187676, 0.20494123544339268, 0.20212889558130404, 0.19935119067016055, 0.1964993038026832, 0.1936361259361908, 0.19074322398011856, 0.1878630253605051, 0.1850643865152352, 0.18215533035747483, 0.17924445349670468, 0.176478173921864, 0.17354653938133677, 0.17060329497556448, 0.16768928342261355, 0.16467731426770332, 0.16178813369177908, 0.15889909208556033, 0.15605669116568838, 0.15316543488714493, 0.1503352822204861, 0.14744968226894622, 0.14457463291298756, 0.1418856998689939, 0.1390108051608016, 0.1361836208808938, 0.13334815793613625, 0.13053454697678527, 0.12779089312701328, 0.12501336756414355, 0.12217176726477742, 0.11945198412441678, 0.1167502493615927, 0.11405103976509752, 0.11138961446213891, 0.10878978734908301, 0.10616287059277024, 0.10355975948223883, 0.10105901420862932, 0.09849581080368776, 0.09590462282052385, 0.0934098326489894, 0.09094269004350247, 0.08872792468914233, 0.08629040727705516, 0.08394119445578394, 0.08158282425419663, 0.07926836233525683, 0.07683478484519743, 0.07462645431737688, 0.07248360233954669, 0.07033833926415116, 0.06823012311619288, 0.06633821257808938, 0.0642840087833894, 0.06225991153817898, 0.06030673960745282, 0.05840107992721433, 0.056510411851218294, 0.0547037673507505, 0.05294292816226647, 0.05122839309986374, 0.049560705695862274, 0.04796315590100258, 0.046388059610224776, 0.04495374412007596, 0.04346750394232999, 0.04203726034604797, 0.04055249791528381, 0.03924768025761087, 0.038083201454067704, 0.03686686009640714, 0.03570700937181957, 0.034668694980394564, 0.03361415075456232, 0.032581432075042736, 0.031653095150146845, 0.03078296441172587, 0.030036184998811954, 0.02927506978355417, 0.028463114971686247, 0.027841594376384195, 0.027276118470311528, 0.02686813412974099, 0.026404593876243856, 0.02596302112109005, 0.02563300672934767, 0.025364631817094325, 0.025171213658999478, 0.0250254915195933, 0.02500153734020111, 0.024975385613862398, 0.0250163119990943, 0.02500077862406556, 0.02519074455385807, 0.025579774228867865, 0.02587209731867579, 0.02623348102286988, 0.026657026122801145, 0.02715618279721958, 0.027742451214327325, 0.028374245366116695, 0.02907442670994477, 0.029794044584883453, 0.03063633978286273, 0.03165386531675604, 0.03261227729315763, 0.0336422164513754, 0.03453208816301771, 0.03572969345351619, 0.03698834752152865, 0.03830236382837688, 0.03967663857890274, 0.04110882055794323, 0.0426065760491788, 0.04420889688195669, 0.04582667030405382, 0.047510244971419084, 0.049233708484453596, 0.051052252555081216, 0.05287025979979466, 0.0548258426100257, 0.05684234445732423, 0.05893328567977549, 0.061071499339795506, 0.06334078760967062, 0.06559640059746875, 0.06791896153274801, 0.0704019978456031, 0.07284489363506282, 0.07523833045067488, 0.07783627799694443, 0.08049559348797825, 0.08316423471773084, 0.08595241196433026, 0.08875635554287858, 0.09166592729587686, 0.09463134526052477, 0.09783140600650472, 0.10088692026955062, 0.10397660818078136, 0.10716808449499465, 0.1104217064225795, 0.11361001680336814, 0.11700118980225964, 0.12054208708101902, 0.12402595619279572, 0.1275680160710284, 0.13102801358448857, 0.13470187284119514, 0.13861856928975486, 0.14236459727956718, 0.14617045489225616, 0.14994392365233367, 0.15387688578623945, 0.15778933624710512, 0.16183264887971852, 0.16592199138781472, 0.17011264061812673, 0.17428734569052412, 0.1784431430407326, 0.18272433325519258, 0.1870497563022339, 0.19152317321346465, 0.19592368171143243, 0.20038033073580608, 0.20487821078907534, 0.2094239274508403, 0.2139612470702573, 0.2186064127283731, 0.22334511160699888, 0.22806643956716072, 0.23283123588930726, 0.23744709843882256, 0.2423201045509359, 0.24737544856182778, 0.2522895171032647, 0.25724309518489297, 0.2622320236163727, 0.26726229987777483, 0.27229026610525725, 0.2773978564472507, 0.2825381856880429, 0.2877756134273854, 0.2929716017056109, 0.2979784326291451, 0.30327098726376794, 0.3085834367814438, 0.31393922292486043, 0.31929059259987447, 0.3247945406839477, 0.33017513855887215, 0.33558575903008786, 0.34087267750687705, 0.34635893410154234, 0.3518662768206303, 0.35738788589129195, 0.36292755160740175, 0.36844291241546967, 0.37402337034029853, 0.37964463297832185, 0.38525139896658656, 0.39087413910037977, 0.39661938611292546, 0.40225888459254966, 0.40786344166435695, 0.41354878204587975, 0.419248192022561, 0.4250709911731533, 0.4307816311016501, 0.4363603325860411, 0.4421225749327975, 0.44789011829623276