0.10015864945678327, 0.09977916518213939, 0.09940904981134574, 0.0990426872234234, 0.09868800641784363, 0.09836353270658292, 0.09801610443892866, 0.09767408916979316, 0.09726393184711493, 0.09693960877055534, 0.09665730124389971, 0.09632611743472656, 0.09599676112545297, 0.0956326356551982, 0.09531090086999924, 0.09498948616101661, 0.0946663166534584, 0.09434285486164118, 0.09406849177292345, 0.09373877877437005, 0.09339389881890771, 0.09307229989930467, 0.0927523018428481, 0.09240610233527811, 0.09209286642705804, 0.09181290431487299, 0.09149597744384924, 0.09118155535668614, 0.09082040499053767, 0.0905171466899807, 0.09021359539057419, 0.08991016162384742, 0.08960721711930317, 0.08932435216957767, 0.08902092743243709, 0.08873068257055754, 0.0884309633460655, 0.08813450560970833, 0.08779851743944156, 0.08751398385504612, 0.0872784482369458, 0.08698990828565319, 0.08670560337681052, 0.08638585019076268, 0.08611472033645101, 0.08582929167528838, 0.08556394130104658, 0.08529992573481993, 0.08505148608068432, 0.0847893498002649, 0.08453343347790764, 0.0842770340715723, 0.08402405375362837, 0.08376600478896708, 0.08352114651804517, 0.08327513699277411, 0.08303719461920411, 0.08280236669831635, 0.08262426743567824, 0.08238928329370879, 0.08213509432082322, 0.08191595511355032, 0.08170121520893446, 0.08147371497601896, 0.08126981435353939, 0.08110882873226742, 0.08090672167088844, 0.0806965063762081, 0.08050754298071629, 0.0803232105014636, 0.08011031416103524, 0.07993934501633593, 0.0797860552280217, 0.0796188679461516, 0.0794557366872916, 0.07926146457193027, 0.07911121146470015, 0.07901253297203728, 0.07886117160265228, 0.0787156511266805, 0.07853522941584216, 0.07840626461227283, 0.07831378770955941, 0.07818756666456521, 0.07806706834217857, 0.07794904568871454, 0.07784029524401657, 0.07769528712240807, 0.07760274754047987, 0.07751336438956621, 0.07747349420289323, 0.0773856514814254, 0.07724782428931064, 0.07718045330366886, 0.07711640013427531, 0.07706566755929878, 0.07700811745195751, 0.07699393779324235, 0.07694142608547316, 0.07689628249150221, 0.07683694647294147, 0.07680876418582229, 0.07675528910244372, 0.0767425470315201, 0.07673391072029498, 0.0767328895770515, 0.07673292424603344, 0.07677441061610442, 0.07678018922470149, 0.07679342246463418, 0.07679469693212851, 0.07682481379622658, 0.0768523206813916, 0.07689545776129422, 0.07694414247085246, 0.0770337743531892, 0.0770893781521227, 0.07709821808224503, 0.07717607793957865, 0.07725824891797813, 0.07735569252639767, 0.07744589308956165, 0.07753207216235555, 0.0776347858975852, 0.07774271936936615, 0.07785600595343564, 0.07797475700305424, 0.07815254789884463, 0.07827572232981682, 0.07840758592572385, 0.07849533807445928, 0.07865008809901035, 0.07884377308142831, 0.07900375017894351, 0.07917061968378869, 0.07929500227259602, 0.07948137054193549, 0.0796852966768544, 0.07987747260620069, 0.0800745659212792, 0.08031837041173229, 0.08052023518828724, 0.08068140038045298, 0.08090391518045374, 0.08113057670251296, 0.08136365645843018, 0.08159871188880406, 0.08183621692291256, 0.0820807657257917, 0.08232985615757712, 0.0825803084833001, 0.08283895938657682, 0.08312233584942459, 0.08338723074332163, 0.08365767312644598, 0.08392706252838232, 0.08420887178757813, 0.08448357678906533, 0.08477608788337752, 0.08507237927087903, 0.08543126556407998, 0.08572761355514605, 0.08598816724386132, 0.08630338593346237, 0.08662219582513224, 0.08692739470280833, 0.08725528586208897, 0.08759409416273702, 0.0879256641858679, 0.08826013701957267, 0.08858568058692878, 0.08892724164115909, 0.08932644747616215, 0.08966502515996508, 0.09000874078393876, 0.09034535290429384, 0.09069944781485434, 0.09106313140293133, 0.09142248595062126, 0.09178484893199532, 0.09212105102828115, 0.09249223875268012, 0.09291321379361077, 0.09327934307077398, 0.09364879859369866, 0.09395376567195111, 0.0943371554852136, 0.09472854658020195, 0.09510768168668184, 0.09548611789399998, 0.09587567870170483, 0.09625137544184793, 0.0966581523343635, 0.0970299396475018, 0.09740330767673856, 0.09773723932786403, 0.09811782486860546, 0.09851164910924955, 0.09888689194526475, 0.09926126438063915, 0.0996816928940078, 0.10004795209633913, 0.10037276671039463, 0.10074659312222065, 0.10111834946704215, 0.10152002609758347, 0.10188327821018345, 0.10221064207289604, 0.10257680265548869, 0.10293966608221562, 0.10327351728312094, 0.10363288991007918, 0.10399163412216385, 0.10434077650606424, 0.10468546554400272, 0.10501181678396847, 0.10534939588727876, 0.10572986683200089, 0.10605093680961826, 0.10636956100541244, 0.1066543352948035, 0.10697086188929064, 0.10731527626764759, 0.10761699313554235, 0.10791513981902388, 0.10821256046197021, 0.1085020888642578, 0.10880324330340987, 0.10908157618389809, 0.10935575387183742, 0.10961894019644043, 0.10988439785026505, 0.1101249280835731, 0.11038119770273695, 0.11063017968744791, 0.11087178742462837, 0.11110592993721255, 0.11132074582432352, 0.11154115713502126, 0.11175314753248307, 0.11192568616281805, 0.11212471178984447, 0.11236912629296517, 0.11254085068489313, 0.11270582193467736, 0.11280274372442885, 0.11296096590317861, 0.11316372723489716, 0.11329297544090401, 0.11341467181245525, 0.11351460815540632, 0.11362207260835379, 0.11373640337043991, 0.11382334839002879, 0.11390175151999754, 0.11393177785107807, 0.11399734937709854, 0.11403753570808162, 0.11408201916637085, 0.11411444267131644, 0.11416493387511797, 0.11416994689949543, 0.11417998894043246, 0.11416306121375822, 0.1141367251645633, 0.1140493742635957, 0.11400994835702985, 0.11399815574599628, 0.11392777084651909, 0.11385238530023893, 0.11376044380524089, 0.1136581023747877, 0.11354837108166001, 0.11342424461159553, 0.11329470100850524, 0.11314819150378334, 0.11299088257022223, 0.11281938010179512, 0.11264034323811546, 0.11243699513071198, 0.11223652825623212, 0.11202367316768357, 0.1118123607280126, 0.1115730444354582, 0.11125694034828056, 0.11100270819814659, 0.11073310776214951, 0.1104582246921739, 0.11015799215003025, 0.10983666307638433, 0.1095103949258771, 0.10917053904697067, 0.10887402880444447, 0.10850052082649972, 0.10807980317956148, 0.10769119214582075, 0.10729015580172141, 0.10689388496388098, 0.10646605563815158, 0.10602162326234738, 0.10557188383478774, 0.10511044967999587, 0.10462447810674673, 0.10414126503233215, 0.10367452012655216, 0.10316294726266022, 0.10264081253383532, 0.10208338875711932, 0.10154289214361109, 0.10097945533882088, 0.10041596670576657, 0.09983991401904876, 0.09926328289115863, 0.09866125786341343, 0.09805650380120653, 0.09743091166607082, 0.09679469151375089, 0.09610935935684581, 0.09545683658925437, 0.09479484017147234, 0.09411691206832341, 0.0934271837827182, 0.09275161247553058, 0.0920358728570024, 0.09129666580008572, 0.09056358722852569, 0.0898202310862916, 0.08909884944024271, 0.08833136316291312, 0.08751309060557572, 0.08673491304547096, 0.08594616037784518, 0.08519312911551331, 0.08437829517202307, 0.08354241495968123, 0.08271494479956369, 0.08187936133606186, 0.0810603315938164, 0.08020561922247223, 0.07933799347056693, 0.07847101024664778, 0.07759702433134698, 0.07672034340127051, 0.07583192139934078, 0.07495293684699396, 0.07404932906715342, 0.07314015235141925, 0.07227779146036273, 0.07135079530725835, 0.07042866941982831, 0.06949513283084964, 0.06855875857272399, 0.06762248330867499, 0.06667928080553305, 0.06574671211483263, 0.06479509829363388, 0.06384082814639376, 0.06289233942586207, 0.061931371984143696, 0.06105146728361675, 0.060075169589550045, 0.059101157159045584, 0.05809458445776113, 0.057127744099865506, 0.05623357930839731, 0.05525512916059261, 0.054279714963865605, 0.05332501391260051, 0.052351965027418616, 0.05139568790614438, 0.05042626722026089, 0.04945990089995917, 0.04851129411107951, 0.04754842387655518, 0.046580344822233444, 0.04562510766524237, 0.044672524493736224, 0.043791123775725284, 0.04283545195459447, 0.041871656715536054, 0.04093123713624024, 0.039996240172856024, 0.03907946875615905, 0.03815365911943291, 0.03726723878393865, 0.03634972937096072, 0.03544043440577679, 0.03454992251186688, 0.03365539465300583, 0.03283262454858092, 0.03194739619143903, 0.031074389091914376, 0.030178967361172846, 0.029333621882927027, 0.02858004043883318, 0.02774324161899399, 0.02692083223119552, 0.02609955574659229, 0.025306400225593835, 0.02452384017161872, 0.023756410168638022, 0.02300163122604771, 0.02231204298169529, 0.021576363291813505, 0.020843953586551826, 0.020141938048668363, 0.019455048733554563, 0.018843275154591166, 0.018179378629671845, 0.0175001506840035, 0.016878119290756086, 0.016272639373009, 0.015735246221786594, 0.015156988177374278, 0.014577451751671923, 0.01404200648187053, 0.013525305584842493, 0.013036096690177898, 0.012556409728314788, 0.01210517983232351, 0.011664426145765691, 0.011244515294701532, 0.010882021033420345, 0.010499842735047256, 0.010174411454423587, 0.009835207658488252, 0.00952149373391373, 0.009193522738131446, 0.008935361814706, 0.008776128716895152, 0.008554678316084042, 0.008361186907131344, 0.008194349049563867, 0.00805628725163088, 0.007937101265357219, 0.007854984220621227, 0.007799869479318958, 0.007786904019092725, 0.007784449775758145, 0.00782328859995984, 0.007876266855570318, 0.007958742181801731, 0.008066542432860778, 0.008208912403939594, 0.008414133208760183, 0.008611937370942572, 0.008841804960636213, 0.009089847857784944, 0.00938570124832145, 0.009704470276879505, 0.010064606623726961, 0.0104562627669089, 0.010927929285316164, 0.011377607210914088, 0.011885042309083509, 0.012402440665406403, 0.012956385948846235, 0.013531782827906194, 0.014160414099337404, 0.014793539310642364, 0.015497276579032467, 0.016235120822038845, 0.01703961051083706, 0.017842941641017063, 0.01870166731540745, 0.01957726723778279, 0.02049141163344652, 0.021450553454415218, 0.02244111050941213, 0.023465415885835828, 0.024534905227903445, 0.025626226930384518, 0.026775927153442132, 0.027963931883537407, 0.029234410953606717, 0.030494409726303844, 0.03178431953577526, 0.03312909331681321, 0.03451478258068064, 0.03593505908985148, 0.03740367367308125, 0.03894951972842111, 0.04049543517413687, 0.04208460311033774, 0.04374364680591805, 0.045415616882586614, 0.047095713648637544, 0.048861029619430896, 0.050668360801319326, 0.05257346973452016, 0.05445821734640305, 0.05636070935456831, 0.058339775994106155, 0.06036227135322714, 0.06245388010159594, 0.0645600365998956, 0.06669722849518518, 0.06889486105000982, 0.07113635597710534, 0.07338748767788059, 0.0757210555912672, 0.0781586404408061, 0.08056861238940334, 0.08302460385957931, 0.08550709655944258, 0.08805680219327043, 0.09067856050088297, 0.09331320832068762, 0.09599361241239446, 0.09869171536608058, 0.10146643710819594, 0.10430715443670081, 0.10716614527344769, 0.11007000583522057, 0.11301001761509627, 0.11600422583287955, 0.11901883345686223, 0.12210381092590591, 0.12523125284036327, 0.12842586810689346, 0.13163541657982786, 0.13493289577529993, 0.13822486880214305, 0.14156301942282384, 0.1449018869867772, 0.14833651097363212, 0.15185288286578605, 0.15536677586154105, 0.1589249085270593, 0.16251937243912856, 0.16616569129184858, 0.16983323706663067, 0.17356719776417345, 0.1773419754855576, 0.1811649345425694, 0.18502000970384577, 0.18895119304868885, 0.19288318232795124, 0.1968574705098294, 0.20086495553862024, 0.2049233143097948, 0.20905080978908025, 0.21318561595538685, 0.2173614815168427, 0.22152001141774738, 0.22578343337157458, 0.2301331412412173, 0.234462143256637, 0.23882976925308166, 0.2432450839443485, 0.24768707071941085, 0.25214198073180116, 0.2566615332461738, 0.26121605661945474, 0.2657966293331551, 0.27042107254269304, 0.27506818243092096, 0.2797603745064285, 0.28448464819333613, 0.2892482064859677, 0.29403481284037897, 0.2988882792332197, 0.30373311562874844, 0.30861062053908306, 0.3135211188269133, 0.31846161096022113, 0.32339842436884486, 0.3284036443049115, 0.33343610336060603, 0.33849967749895515, 0.34358484036421405, 0.34872080275021405, 0.3538547406569925, 0.3590152233633436, 0.364181188820641, 0.36939512581727485, 0.3746247916615702, 0.37988555743545505, 0.38516800196487133, 0.39047374367632154, 0.3957976910366941, 0.40114502064958457, 0.406508310471384, 0.4118907417757846, 0.4173226814493239, 0.42273750210083183, 0.4281348447650447, 0.43359111358486724, 0.43906238979343254, 0.44458123493135426, 0.45007651884272476, 0.4555397541188373, 0.4610701048796119, 0.46661101235333324, 0.47215662120327195, 0.47771776403120375, 0.483312147605993, 0.4888869000961531, 0.4944705286372296, 0.5000622205554343, 0.5056611621975814, 0.5112847234525303, 0.516893420542315, 0.5225079412592187, 0.5280984407632132, 0.5337253868721293, 0.539354764381347, 0.54498361347945, 0.5506124973571372, 0.5562406905631763, 0.5618674549920274, 0.5675102256037338, 0.5731295743260657, 0.5787462363207772, 0.5843528700005151, 0.5899622101999834, 0.5955475796790073, 0.6011468041351721, 0.606737538474344, 0.6123126715336744, 0.6178851411904809, 0.6234220304421164, 0.6289749685809852, 0.6345141566936068, 0.64005511638459, 0.6455631660670148, 0.6510074773883391, 0.656491924192319, 0.6619575487952802, 0.6674638687465041, 0.6728830644561935, 0.6782437628011956, 0.683633652827197, 0.6890024001051726, 0.6943215453716136, 0.6996495561522789, 0.7049699650285881, 0.7102458901696677, 0.7154970392659442, 0.7206863358234709, 0.7258903922149871, 0.7310815070661096, 0.7362251041469753, 0.741339655054944, 0.7464234184479632, 0.7514779784153526, 0.7564767611374872, 0.7614713717508229, 0.7664319940514618, 0.7714008816562932, 0.7762864858597935, 0.7810703540877416, 0.7858971025108612, 0.7906848389633238, 0.7954182256763961, 0.8001286981046826, 0.8047788428639354, 0.8094092378119875, 0.8139967032128772, 0.8185462920724911, 0.8230462826519083, 0.8274897683538198, 0.8319035658710024, 0.8362719879651536, 0.8406213474756319, 0.84489431734073, 0.8491177529663702, 0.8533000249785827, 0.8574353536645539, 0.8615209233377183, 0.8655606128858098, 0.8694988152052295, 0.8734463483251258, 0.877340599194439, 0.8812091788720181, 0.884992704338319, 0.8887088087288602, 0.8923888012678539, 0.8959866270030663, 0.8995610149506691, 0.9030786552631461, 0.9065564578674103, 0.9099577917143857, 0.9132684015211842, 0.916560649125423, 0.9197936288301309, 0.922925471594839, 0.9260447032535211, 0.9291049889309262, 0.9320996070655073, 0.9350323948831345, 0.9379140137005609, 0.9407216404328013, 0.9434442792614326, 0.9461317431747627, 0.9487559609173735, 0.9513254264980855, 0.9538218492074824, 0.9562359753441598, 0.9586085392526532, 0.9609165555378612, 0.9631674458813186, 0.9653452009653353, 0.9674414568157195, 0.9694924302101248, 0.971477703178115, 0.9733533783839539, 0.9752126594521691, 0.9770164533919439, 0.9787377439319153, 0.9803919410464955, 0.9819780608452807, 0.9834984412566297, 0.9849753956074875, 0.986358922827883, 0.987676880921585, 0.9888863147828353, 0.990078059023875, 0.9912345449929402, 0.9922854929959317, 0.9932703266856796, 0.9941697167522504, 0.9950245492416472, 0.9957842051487178, 0.9965079593990862, 0.9971630580441441, 0.9977808817628333, 0.998295802828434, 0.9987148696221999, 0.9991018209732885, 0.9994213062064607, 0.9996447710281872, 0.9998339449343104, 0.9999453533912029, 1.0, 0.9999869995511578, 0.9999486184259184, 0.9997966633391716, 0.999549935317902, 0.999274527599607, 0.9989339086976888, 0.9985359900491915, 0.9980652640028914, 0.9974978332597914, 0.9969045540011247, 0.9962465613868017, 0.9955362435991959, 0.9947491761285784, 0.9939404958956864, 0.9930242305683652, 0.9920489086034532, 0.9909462035130338, 0.9898618641299626, 0.9887151465610281, 0.9875068509079684, 0.9862377433359212, 0.984927814868802, 0.9835368344069316, 0.9820711467247466, 0.9805676631739969, 0.9790066665742638, 0.9774294697354233, 0.9757502921482927, 0.9739900365214442, 0.972208155503484, 0.9703721094109227, 0.9684728777351916, 0.9665315424539923, 0.9645512400187316, 0.9625030985553011, 0.9604042566696204, 0.9582424582224938, 0.9560455910382992, 0.953763781151929, 0.9514728102520577, 0.9491316532531866, 0.9467659144387985, 0.9443242448432037, 0.9418473714177684, 0.9393132597273008, 0.9367352720256938, 0.9340798071389318, 0.9314202937719309, 0.9287468582062062, 0.9259967526218598, 0.9232063141586017, 0.9203483889741401, 0.9174827869354183, 0.9145847889855228, 0.9116393897266221, 0.9086563435380806, 0.9055765728662857, 0.9025282738063183, 0.8994777912604026, 0.8963490795543375, 0.8931863748863343, 0.88998841668549, 0.886760618537878, 0.8834574455302621, 0.8801730141940466, 0.8768563074002177, 0.87350423466235, 0.8701270298274997, 0.8667699264095574, 0.8633293731723616, 0.8598645967016257, 0.8563526699355596, 0.8528442558020595, 0.8493196495051183, 0.8457637682507605, 0.8421862954454455, 0.838543063692738, 0.834930364283975, 0.8313354044139382, 0.827675141738407, 0.8239974524094851, 0.8202848658821578, 0.8165767671094207, 0.812837395610999, 0.8090994634541349, 0.80534611270973, 0.8015676036685868, 0.7977876109790486, 0.7940168511427461, 0.790208522965858, 0.7863901240664389, 0.7825441939685732, 0.7787101210067887, 0.7748318178991533, 0.7709852052071388, 0.767129376226819, 0.7633039398671219, 0.7594280574774779, 0.7555482658705651, 0.7516652098115711, 0.7477795324254912, 0.7438469486171723, 0.7399636309792769, 0.7361134575629767, 0.7322200879254264, 0.728327479320986, 0.7243998759912975, 0.7205152244234745, 0.7166439589134089, 0.7127596797252886, 0.7088784218540136, 0.7049923435960264, 0.7011203366470277, 0.6972219362030251, 0.6933638318041593, 0.6895100402655031, 0.6856711148617358, 0.6818274574423498, 0.6780362040368303, 0.674202525005216, 0.6703802215977949, 0.6665417661999978, 0.6627466014630244, 0.6589300678481651, 0.6551609608960048, 0.6514018739128045, 0.6476407558938245, 0.6439056410080737, 0.6402291121468067, 0.6365118477235103, 0.6328102181828137, 0.6291159558096302, 0.6254475534021776, 0.6217459871612873, 0.6181162622773921, 0.6145005583688163, 0.610941349848447, 0.6073506290169363, 0.6037762409463623, 0.6002230042972053, 0.5966886577074801, 0.5931702764499412, 0.5896749645370761, 0.5861756699738081, 0.5827227307517621, 0.5793206966463176, 0.5759017990824356, 0.572504424612965, 0.5690709612152772, 0.5657243924391435, 0.56240298703397, 0.5590937220264082, 0.5558047551466154, 0.5525151571863197, 0.5492708430072449, 0.5460351315766768, 0.5428335646296101, 0.539652694766702, 0.5364994523099099, 0.5333606449487236, 0.5302902619613706, 0.5271908001704715, 0.5241169208851181, 0.5210267719035988, 0.5180089433030077, 0.5150471560447648, 0.5120711390547835, 0.5091203164042629, 0.5061453982312767, 0.5032509381607447, 0.5004236022323431, 0.4975681849394626, 0.494738096902857, 0.49189684904744607, 0.4891216646409529, 0.48635017350188886, 0.4836235078607755, 0.480919055209541, 0.47823388786795146, 0.4755750640726845, 0.47291865663079213, 0.47030806108711926, 0.46771938237380584, 0.46517214157762654, 0.46262561015875164, 0.46007491223284863, 0.4575791558226623, 0.4551054003428088, 0.4526719838765541, 0.4502403475340498, 0.44782350749240457, 0.4454395476248878, 0.44307822090055937, 0.4407597796448084, 0.43844091480319625, 0.4361113211463229, 0.4338434965032177, 0.43159667841861915, 0.4293804903159537, 0.42717442759482044, 0.4250026511949259, 0.42283770480514665, 0.4206945949073618, 0.41856554696344783, 0.41646619967512416, 0.4143809998290272, 0.412323377561514, 0.41028552076438235, 0.4082640452113042, 0.40626558914064514, 0.40425835110346, 0.40230129298771633, 0.4003613372160031, 0.39849306232131837, 0.39658045220460186, 0.39467299994463834, 0.3928020378438057, 0.3909493724165703, 0.38911038671774745, 0.3872938491489129, 0.3854687051169143, 0.3836892636936357, 0.3819248864303348, 0.3801583869837987, 0.3784260633189074, 0.37668402572116033, 0.3749823156818182, 0.3732930695281686, 0.3716388735985726, 0.36997203279174734, 0.36832127575605256, 0.3666818564999248, 0.36505609354227025, 0.36343518815266107, 0.36183708694144506, 0.3602407157305155, 0.358668625195821, 0.3571079566434464, 0.35559922276726047, 0.354055832928037, 0.3525107060522324, 0.3509951701540494, 0.3494910263644408, 0.34796584011836196, 0.346487513197599, 0.3450626948693739, 0.34359578892072634, 0.34213983596885195, 0.34064943919450774, 0.339219687073521, 0.33777777603062714, 0.33636461039601534, 0.3349573575672715, 0.3335774803706557, 0.3321795174042049, 0.3307630917166045, 0.3293825873578571, 0.3280074332611899, 0.32668361528706474, 0.3253132864470691, 0.32391547598281795, 0.3225647892635347, 0.3212190527615055, 0.31991879269842743, 0.31857744068237825, 0.3172108310229805, 0.3158867228345772, 0.3145667220527172, 0.31321965149533165, 0.311911314497563, 0.310624118763346, 0.3093172062352416, 0.3080133989154639, 0.3067339601631581, 0.30543326221041445, 0.3041300460843748, 0.3028376442565592, 0.3015481710624153, 0.30022930983339136, 0.29894908266885406, 0.29766719555465654, 0.2963882591838903, 0.295109782284854, 0.29385747290370556, 0.2925767568339458, 0.29130761936557087, 0.2900293673962814, 0.28875317699959147, 0.28742956963908023, 0.2861629250462879, 0.2849301226625481, 0.28365628291019646, 0.2823833000140985, 0.2810682258026079, 0.27980189360531205, 0.2785934663933643, 0.2773157794517406, 0.27603985008910376, 0.2747557201775926, 0.27348356399849916, 0.27219782527225767, 0.2709279141140975, 0.2696572433109593, 0.26840505182893243, 0.26713038252690147, 0.26584850383686304, 0.26457517177776285, 0.26330138656087926, 0.2619875046166305, 0.26071763099874595, 0.2594299412168058, 0.258156561014326, 0.25688003108046725, 0.2556563172051368, 0.25436744308581166, 0.25302917920229145, 0.2517482207750659, 0.2504649312642206, 0.24917420802011875, 0.24788764288477302, 0.2466279873792418, 0.24533404431579495, 0.24404016085839667, 0.24274841676438175, 0.24145421385209562, 0.24014292838566353, 0.2388509076810358, 0.23755787753637464, 0.23628534496820044, 0.23498792464307336, 0.23363860244663553, 0.23234875795423227, 0.23105634969326586, 0.22975961688609356, 0.2284634497193569, 0.22719985535409076, 0.22589634128508077, 0.22459365222391245, 0.2232949628671674, 0.2219934268780939, 0.22070887298045436, 0.21940715575231728, 0.21810723648711572, 0.2167940101773218, 0.21549921935021923, 0.2142136354455698, 0.21291912856537007, 0.21162375210737158, 0.21033206537105462, 0.20904156245070143, 0.20770844039151162, 0.20642602087001632, 0.20513288488282172, 0.20384993502272888, 0.2025661807271553, 0.20130880179844596, 0.2000213312651043, 0.1987229191044256, 0.19744097553854514, 0.19616043381906553, 0.19491894676327967, 0.19363710335155027, 0.19231443809861085, 0.19104635965466618, 0.18977964265940028, 0.18852527269467215, 0.1872607703909555, 0.18600331075014978, 0.18474393827540056, 0.18348785039362453, 0.18221589144794906, 0.1809691029137565, 0.17976546223961234, 0.1785187887069057, 0.17727738614207367, 0.1760186833816277, 0.17479036461326494, 0.17357757290162287, 0.17235542982717042, 0.17113798862634594, 0.1699210115572577, 0.16871364679966272, 0.1675098225128693, 0.1663119123772084, 0.16511875248001573, 0.16389194564538057, 0.16271348879564468, 0.161531536526133, 0.16036015658660235, 0.1591921403157028, 0.15804927844297742, 0.15688643758493606, 0.15572924063073698, 0.1545778078831939, 0.1534322525425182, 0.1523172840661627, 0.15118068792265338, 0.15000244920347283, 0.1488870934415766, 0.14777634682553112, 0.14670476701424193, 0.1455998622507982, 0.1444799139650936, 0.14339265307357388, 0.14231148983605535, 0.14127295730014713, 0.1401998689744002, 0.1391064893040203, 0.13805406587361463, 0.1370083040119933, 0.13593615817752927, 0.13490824737632914, 0.13389508393048735, 0.13287655487163405, 0.13186436373478502, 0.13086834335382386, 0.1298682052511008, 0.12890758672211275, 0.12791831625581074, 0.1269384020731999, 0.12592913110554238, 0.12497221057024338, 0.12401338985140158, 0.12307104172384124, 0.12213520311188814, 0.12124565981216844, 0.12031843485141765, 0.11940370179134323, 0.1184944598962921, 0.11759434854245014, 0.11669892709408895, 0.11581715265147105, 0.11495133036164568, 0.11408546625509274, 0.11322835383994066, 0.11233281520975161, 0.11149883616306847, 0.11064821229859025, 0.10982901720603049, 0.10901495703099356, 0.10820965798185926, 0.10740666034879054, 0.10661007488439864, 0.1058201479592738, 0.10503708955317506, 0.10432311814311528, 0.10354645466399229, 0.10272603439758164, 0.10197746088457138, 0.10123586069244328, 0.10048851210716496, 0.09976280340376695, 0.09905539532037286, 0.09834142677819734, 0.09763494336332927, 0.09694986176509891, 0.09625661180569743, 0.09555130364630159, 0.09487702356647838, 0.09420961212365613, 0.09356622766645165, 0.09291050486914337, 0.09230441519311372, 0.09165911441362172, 0.09102380753925637, 0.09034883181969766, 0.08973840834315701, 0.08915109590755495, 0.08855056670410173, 0.08795711134179077, 0.0873620729091091, 0.08678355368791633, 0.08619529866943389, 0.08563140917264868, 0.08507288780353327, 0.0845572742419631, 0.08400503792671175, 0.08347335040143844, 0.08293466077554917, 0.0824039151177468, 0.08183694013876794, 0.08132670871628485, 0.08082109947657455, 0.08032023146545107, 0.07982420207986718, 0.07934699475517584, 0.07885909930446644, 0.07841979058144088, 0.07793800143858925, 0.07746424769249197, 0.07697457072338704, 0.07651862922102118, 0.07604364794062801, 0.07560182316738541, 0.07516394923409711, 0.07471193451333018, 0.07428452142988488, 0.07391481643672962, 0.07348700276859733, 0.07306574897692689, 0.07265502208745453, 0.07224544028023021, 0.07176692800507511, 0.07137843774679213, 0.07099117758924953, 0.07065687099735342, 0.07026666131635548, 0.06989758631743061, 0.06951534439989501, 0.06913873836835682, 0.06870757582956742, 0.06834896900412225, 0.06798969811611745, 0.06763457128642611, 0.06728127608526457, 0.06694070651367115, 0.06659027789855078, 0.06623207206018153, 0.06588884903900923, 0.06554795796283411, 0.06522337572630371, 0.06488558099929324, 0.06459918218997018, 0.0642617214523518, 0.06393001956781777, 0.06354047550845589, 0.06322684810395053, 0.06291410541020875, 0.06260239428952744, 0.062291834159581894, 0.06199642560289615, 0.06168667153952602, 0.06142613535845372, 0.0611146587410736, 0.06080782258291784, 0.06046452282503839, 0.06017078440362734, 0.05990491321992665, 0.0596100416347322, 0.05931778524326981, 0.05899154667953008, 0.05870845612300676, 0.05845740915058597, 0.058170292007529836, 0.057885157887301274, 0.05761039300114599, 0.05732764537464061, 0.05703084890023571, 0.05675392640332168, 0.0564777278088077, 0.05616585572442518, 0.055895618699379465, 0.055656071009597734, 0.0553792397183325, 0.055087257420301836, 0.054814181690800864, 0.054540979342047845, 0.05426986226249515, 0.05399634004168271, 0.05374652200380807, 0.053470385336842965, 0.05319576996830034, 0.052880773556537544, 0.05261393812749975, 0.05240675060030327, 0.05212975736708903, 0.05185523152587981, 0.05156571360281811, 0.051297290822288046, 0.051001640554301834, 0.050737799616292455, 0.05047278758231592, 0.0501778652113895, 0.04991457001789442, 0.049662760256835636, 0.049393189141108074, 0.04912258147178902, 0.048884227459460264, 0.048607724132446774, 0.04835056106719553, 0.0480738788272107, 0.047799009328225166, 0.04752458179685913, 0.04725260389341394, 0.046934508932973296, 0.046670180083621525, 0.04640378427423972, 0.04611736216646934, 0.04584977988641295, 0.045594681883987145, 0.04532052085223402, 0.04504526509776626, 0.04475618263800675, 0.04448065680997955, 0.04424422978352202, 0.04396063128763798, 0.0436780704614702, 0.04335141373693429, 0.043076008813513686, 0.04283172175944676, 0.04254825344166481, 0.04226500287279804, 0.041962609502247776, 0.04168192029676472, 0.041425752210965165, 0.04113959259304064, 0.04085386744455524, 0.040540616361966424, 0.040258847337456306, 0.03994132577768486, 0.03966096047351164, 0.0393773793690422, 0.03911234416574694, 0.03882068477378049, 0.03853225935803219, 0.03823804053775347, 0.0379431470206633, 0.03765187135029983, 0.037355123913772735, 0.037070805238895575, 0.03677158683673122, 0.03647261637540724, 0.036124555264601926, 0.035831916039982606, 0.035589888634402586, 0.03528504471411807, 0.03498089597915274, 0.034698636078715935, 0.03439259612479433, 0.034075083337400384, 0.03377308445935753, 0.03347115043399905, 0.03313705969898683, 0.03283893793858267, 0.03254301979684529, 0.03224038463058843, 0.03193625163084709, 0.03165854068379849, 0.03134820960310553, 0.030976193491786867, 0.030674274035869656, 0.03036895788823665, 0.0300724015675778, 0.0297599281629843, 0.029443614542405773, 0.02912817906049943, 0.02881123840635995, 0.028540001969465413, 0.0282145107584425, 0.027847741196078923, 0.027530388319953105, 0.02721159736325597, 0.02689255487342703, 0.026571087177480246, 0.026318074984906247, 0.0259857348425138, 0.025656344568530793, 0.025283396053131017, 0.024964246635027585, 0.024667641244182376, 0.024343563828079996, 0.02401986815103091, 0.02373596743489439, 0.02340755971710636, 0.023096303032569543, 0.02276993288690734, 0.022445795016626715, 0.022076390346847614, 0.021761428435002297, 0.02151446157735687, 0.0211877490465382, 0.02086361801653195, 0.02053198411830395, 0.02021292724433812, 0.019892590826797844, 0.019575321478030372, 0.01925842400422227, 0.018982431146561184, 0.018660820239853174, 0.018333038277332212, 0.01801691234352913, 0.01770201179119409, 0.017450188134033127, 0.017129363008149042, 0.01683417987739455, 0.016518560569538376, 0.016207306398240716, 0.015904105380671493, 0.015599360347531632, 0.01530413254159103, 0.015004396488980816, 0.014707433327998771, 0.014432198517658727, 0.014137511272735504, 0.013899440505960479, 0.01360396478820996, 0.01331410159338652, 0.013043150524702759, 0.012761036541129388, 0.012498764353648434, 0.012224042636656862, 0.011954218711062581, 0.011739160311313413, 0.01147163577323782, 0.011242935419812436, 0.010984228333140991, 0.010732976992715205, 0.01046713858618404, 0.010231671949010679, 0.010005126661378438, 0.009778237722412365, 0.009555957837415427, 0.009389542007794708, 0.009169769471390372, 0.008977685281332828, 0.008769700074525766, 0.008569559556039661, 0.008356561855610685, 0.008173631682822145, 0.008041444068185959, 0.007864478497552214, 0.007695914209097515, 0.0075804007893047615, 0.007422201504938617, 0.007256121368830436, 0.007120385974947872, 0.0069931433521472335, 0.006901018168578911, 0.006787084697632117, 0.006670119615421183, 0.006577235391268934, 0.006493134107416194, 0.006430693271467667, 0.006362696018487906, 0.006337592236275155, 0.006284904266615296, 0.006243917363331271, 0.006201632375036972, 0.006185242169055156, 0.006251187083497474, 0.006247171091671488, 0.00625807776747691, 0.00626530348883955, 0.006307190776710392, 0.006345947842454878, 0.006415671615178237, 0.006497413316919772, 0.006606344844171103, 0.006710838907593862, 0.0068908810304306525, 0.007014673996099778, 0.007155742692920623, 0.007327675989648573, 0.007500670172163761, 0.007656780232664438, 0.007868587847702106, 0.00809976001272086, 0.008341404718389935, 0.008598811124198988, 0.008889308670428253, 0.009176739362016115, 0.009514756185165885, 0.009832978109352835, 0.01017078058483483, 0.01053236406618469, 0.010908608045324763, 0.011328133074117156, 0.011740935667411181, 0.012174926042255684, 0.0126161287668115, 0.013094101179547853, 0.013595646068347443, 0.01411413435282055, 0.014653581172638819, 0.015248432788809978, 0.015826140811077166, 0.016414605710696292, 0.01704112191452833, 0.017690557094514055, 0.018404821397736318, 0.01909542276881611, 0.019826908766585015, 0.020567356916356565, 0.021334455935201724, 0.02213453378484804, 0.02295391273720378, 0.023791648128945585, 0.02466595508619435, 0.02556677986681204, 0.02646327824463257, 0.027421617888713962, 0.028472732901877365, 0.029473821419512387, 0.030505060152702407, 0.031538566914219156, 0.032633464675157466, 0.03378042841273176, 0.034929713244452126, 0.036109453456888645, 0.037324050721047615, 0.03856455808449708, 0.03981267844007064, 0.04111861546782251, 0.042454724447522574, 0.043869532895458176, 0.04526106800689679, 0.04670802248483878, 0.04816488518672808, 0.04965697554738936, 0.051163852604217054, 0.05272866807012413, 0.05433057632797918, 0.055962936056704306, 0.057629738827682554, 0.059348281947358715, 0.061082366645720414, 0.06284494922087588, 0.06465202669126777, 0.0664948418337911, 0.06839603473109375, 0.0703080242529367, 0.07224793938611845, 0.07423626756671567, 0.07626166544279177, 0.07834566671144726, 0.08044292807558634, 0.0825564405706688, 0.08473395842024722, 0.0869489291048212, 0.08919621661290279, 0.09148740082525746, 0.09384951752428428, 0.09621229066051669, 0.09861515756048352, 0.10102704177105357, 0.10351387091921471, 0.10604108157598911, 0.10860436860978281, 0.111206486180088, 0.11386901567523793, 0.11654663645889382, 0.11923699129173408, 0.1219991872264183, 0.12480030856522611, 0.12764483466717336, 0.13052384237734765, 0.13348639945412205, 0.13643934122292195, 0.1394346074813151, 0.14247832366373617, 0.14555657714613207, 0.14863606872997917, 0.15180296074767094, 0.1550089357971441, 0.15826371850292514, 0.16154691110443228, 0.1649063180607099, 0.16826455458777698, 0.17166456958912707, 0.17507604877463612, 0.17856234234115279, 0.1821230133224362, 0.1856829409119521, 0.18928379467486411, 0.19292306268034848, 0.1966049420259178, 0.2002955471721456, 0.20406053776683813, 0.2078629353407177, 0.2117326521860379, 0.21560593455184202, 0.21950848405822337, 0.22346041720697993, 0.22745000118611158, 0.2314930150456588, 0.23555506699368092, 0.239632387965177, 0.24377232732400092, 0.2479479110020107, 0.252157845050357, 0.25640416065529453, 0.26072490888718575, 0.2650356580078287, 0.26938292127688357, 0.2737200762018477, 0.2781443259765035, 0.28264026923732566, 0.2871235444649227, 0.2916407204612381, 0.2961901434964396, 0.3007735140085028, 0.3053718857146032, 0.3100210999705146, 0.3147003679320075, 0.3194285329945459, 0.32416422431271597, 0.3289372540321244, 0.3337310840411654, 0.33855395640742, 0.34338701558410156, 0.348268266614134, 0.3531680602008278, 0.3581018114855731, 0.3630601430329976, 0.36804899499722415, 0.3730542193854492, 0.37806149055205773, 0.38311570658861954, 0.3881909612400288, 0.39331247867690267, 0.39842518648957365, 0.40350223713896666, 0.408663434991001, 0.41384098585199186, 0.4190837964351093, 0.4242868770896574, 0.42948767944451655, 0.4347285630971255, 0.4399846395566308, 0.4452830321903022, 0.4505638949259466, 0.4558133971247465, 0.4611283838938981, 0.46645351233100824, 0.4717775167928944, 0.4771225381896345, 0.48250844872418713, 0.4878641532923784, 0.4932282448618923, 0.4985933834532732, 0.5039722963047164, 0.5093136874087921, 0.5147076740271231, 0.5201027852270124, 0.5254963473257911, 0.5308923273339864, 0.5363303569537112, 0.5417188048536243, 0.5471075847735326, 0.5524688928967322, 0.5578585449582142, 0.5632331825398794, 0.5686147394403279, 0.5739897369360223, 0.5793413715074114, 0.5847029795908161, 0.5900408767586764, 0.595383938121894, 0.6007149913061377, 0.6060665505015242, 0.6113674171433291, 0.6166143657573199, 0.621895085725306, 0.627159228561444, 0.6324018406563067, 0.6376313090161967, 0.6428771294996357, 0.6480635026595122, 0.653231405432483, 0.6583615776244885, 0.6634916249574628, 0.6685936450924327, 0.6736781199300265, 0.6787057371661026, 0.6837438758714112, 0.6887537195830763, 0.6937399997264331, 0.6986906888066022, 0.7035729157017295, 0.7084678065966792, 0.7133290437783061, 0.7181957187363514, 0.7229831323246636, 0.7276754616177646, 0.7324036898474884, 0.7370935100708279, 0.741738068462225, 0.7463505208979376, 0.7509548271138035, 0.755482217036348, 0.759970063921229, 0.7643779187994647, 0.7687890707321855, 0.7731398014332298, 0.7774636812423467, 0.7817411520334283, 0.7859888438651094, 0.7901698371204595, 0.7943155762292143, 0.7984003117841126, 0.8024372215851489, 0.8063655671963417, 0.8103118986570056, 0.8142248846259739, 0.8180609824440012, 0.821843853159941, 0.8255194350576917, 0.8292008651035131, 0.8328713564837842, 0.8364306433937111, 0.8399341417587007, 0.8433437414497369, 0.8467383851120538, 0.8500849023078377, 0.8533579166605393, 0.8565709579199638, 0.8596636207491749, 0.8627627714860961, 0.8658173801702262, 0.8687841923309703, 0.8716871455937916, 0.8745227195817473, 0.8772974029182766, 0.8799856528706993, 0.8826326180395934, 0.8852126416491394, 0.8877351547060278, 0.8901794614901115, 0.892507494064745, 0.8948235408494616, 0.8970690659774279, 0.8992622998584517, 0.9013645720805021, 0.9033716715016408, 0.9053379647712774, 0.9072328587274113, 0.9090445522020419, 0.9107980018746018, 0.9124663693396504, 0.9140769376776658, 0.915614489039273, 0.917080136822422, 0.9184716209635639, 0.9197698733606043, 0.9210180748423025, 0.9221921413805806, 0.9233146404111955, 0.9243378836070159, 0.9252649597095044, 0.926145770875685, 0.926952359536245, 0.9276783803877379, 0.9283375438831702, 0.928922316729709, 0.9294328037164082, 0.9298691028301114, 0.9302248903430552, 0.9305139073667456, 0.930722241289129, 0.9308636904128814, 0.9309308152145106, 0.9309013561386295, 0.9308232810138382, 0.9306852024914177, 0.9304556602677154, 0.9301527297765932, 0.9297627367783448, 0.9293154870169098, 0.9288386349628689, 0.9282392837632083, 0.9275696539045895, 0.9267741249521755, 0.9259710228440158, 0.9251320969105531, 0.9241783111587086, 0.9231544963171603, 0.9220309434835025, 0.9208716097180405, 0.9196242549736547, 0.9183258316682846, 0.9169566531541832, 0.9155559141038743, 0.9140423962419316, 0.9124152240328097, 0.9107748097449082, 0.9090658537604808, 0.9073190712375179, 0.9054715169652294, 0.9035454304455993, 0.901570853344017, 0.8995318318380104, 0.8973851298665063, 0.8952246307557342, 0.8930033795576384, 0.8907132655825218, 0.8883602990121298, 0.8859902898634983, 0.8835085649136951, 0.8809455595771073, 0.8783517775527301, 0.8756998834696682, 0.873004495482993, 0.8702367606503217, 0.8673903126505605, 0.8645158089743373, 0.861586057126927, 0.8586125989549251, 0.8555735285959642, 0.8524662871051873, 0.8493257419263766, 0.8461336766712407, 0.8428471308748857, 0.8395602526470042, 0.8362723376796466, 0.8328777122498715, 0.8294370152573047, 0.8258975033414548, 0.8223736604837038, 0.8187880300959336, 0.8151736653122393, 0.8115140236589455, 0.8078050068160834, 0.8040591898916983, 0.8003259611535668, 0.7964904808079579, 0.7926183879961274, 0.788696430858761, 0.7847548576744047, 0.7807533227546596, 0.7767449762441895, 0.7727015642967376, 0.7686123640444199, 0.7645034206531633, 0.7603372246791229, 0.7561671791488727, 0.7519652522097877, 0.7477872349954194, 0.7435183161907426, 0.7391589118829488, 0.7348484522144106, 0.730510476713534, 0.7261761831252644, 0.7217830830492699, 0.7173677539928155, 0.7129310764772955, 0.7084739272227356, 0.7040003887209986, 0.6995045078093006, 0.6950091320697348, 0.6904764335614227, 0.6859287581052248, 0.6813293634417158, 0.6767585758896089, 0.6721557391201807, 0.6675582943104573, 0.6629470251737086, 0.6583198605739238, 0.6536847241517132, 0.6490795338151484, 0.644418913774923, 0.6397519591514982, 0.6350162294220996, 0.6303466096620441, 0.6257066011598855, 0.6210178049103887, 0.6163256517337432, 0.6116052757685676, 0.6069120653098315, 0.6021971967152767, 0.5975026003621692, 0.5928064607816884, 0.5881012977555874, 0.5834063370721725, 0.5787274192939894, 0.5740337129102657, 0.5693578002146783, 0.5646709162032837, 0.5599902866374846, 0.5553186986869789, 0.5506522446319124, 0.5459587901414598, 0.5413140084605941, 0.5366767629369166, 0.5320318941380384, 0.5274143663113373, 0.5228295458374673, 0.5182282937204784, 0.5136392932470563, 0.5090802803065364, 0.5045154653436192, 0.49997209377684, 0.49543695335642685, 0.4909180718581194, 0.48639979221587654, 0.4819166285639263, 0.47742647417580786, 0.4729799036081133, 0.4685496075825669, 0.4641074003242847, 0.4597153548373293, 0.4553410114262271, 0.45098291995526596, 0.4466431109680027, 0.44230838141253914, 0.43800895492406966, 0.43373006542834264, 0.4294701171048833, 0.42523100133738934, 0.4210004517058055, 0.416806289926654, 0.4126381019645981, 0.408487342682002, 0.4043595785977839, 0.4002509605752732, 0.396170981623624, 0.3921320591972817, 0.3880981669214948, 0.38408987980474607, 0.38009239146332785, 0.3761377056538424, 0.37218366030747785, 0.368282832293039, 0.36440636471009824, 0.36060708435555655, 0.3567739032633997, 0.35295736402089506, 0.3491823542903853, 0.34543484415646786, 0.3417298036250319, 0.3380353843843999, 0.3343136694154401, 0.33068281423303936, 0.3270769313041855, 0.3234963696290023, 0.31994143246893725, 0.31641879897970243, 0.3129150437690227, 0.30943794293266574, 0.3060271762982302, 0.30259866145310377, 0.29916716707804786, 0.2958006480348386, 0.2924608926543611, 0.28915219223091415, 0.28586544425103266, 0.28258108607616395, 0.2793513642900349, 0.2761471057214686, 0.27299516127988666, 0.26983874115997214, 0.2666998863357791, 0.2635988688483524, 0.2605241050614126, 0.25749472737871626, 0.25446966105056446, 0.2514490704999804, 0.2484804168257142, 0.2455368408310715, 0.2425733103413896, 0.23968523782556264, 0.23680545431992794, 0.23396374229096434, 0.23114381246335886, 0.228398293632749, 0.2256158836263641, 0.222819084908904, 0.22009168369298607, 0.21738650920511185, 0.2146971000350703, 0.21203702627068535, 0.20938040519085604, 0.20676582011849007, 0.2041716502059285, 0.2016577984914929, 0.1990968448919081, 0.19655954553404273, 0.19404530267021972, 0.19155354719061116, 0.18905164586377016, 0.186607317698309, 0.1841575141268265, 0.1817543312929545, 0.17936844137347616, 0.1770158407544027, 0.17466232580063998, 0.17230429077168147, 0.1699892275045219, 0.1676902871945511, 0.16543837765538685, 0.16316739279935316, 0.16093738010254588, 0.15869785643326736, 0.1564762192219954, 0.15425902139527362, 0.15207297999838743, 0.1498563712052929, 0.14770658506895523, 0.14556882270757304, 0.1434869159609779, 0.14136754578714814, 0.1392218354758244, 0.13713574673899664, 0.1350607564690307, 0.13296680251790283, 0.1309174374936886, 0.12893270738758786, 0.12689439565892877, 0.1248682957507551, 0.122820774380766, 0.1208218890221017, 0.11884803301635394, 0.11686493165452265, 0.11489138552538194, 0.11289498580233148, 0.11094365425786959, 0.10904191569642704, 0.10709873349848463, 0.10516462481470518, 0.10319635239420272, 0.10128447064557762, 0.09942503673398512, 0.09751791986568083, 0.09561870419528963, 0.09367984921894766, 0.09180098987436905, 0.08990037344112133, 0.08803256943013359, 0.08616717247518846, 0.08431073804660778, 0.08244971058944396, 0.0806387974618637, 0.07877788098593598, 0.0769225592828055, 0.07502851586797951, 0.07318857803179799, 0.07134833831330278, 0.06951231820043868, 0.06767793939342845, 0.06587403412220977, 0.06403912171031612, 0.06215699978013128, 0.060334248352422536, 0.0585111063308233, 0.05670801066966655, 0.054881823230416446, 0.05308978781805366, 0.05126125229149541, 0.049435288746873945, 0.047560143658879415, 0.045744621887369, 0.04396509895136977, 0.042142059819988864, 0.0403198494255657, 0.03845222072259041, 0.03663674923136928, 0.034871241277400204, 0.03304441307107175, 0.031218389140745238, 0.029347937020944785, 0.02752831298975147, 0.02573181112850697, 0.023903977150220933, 0.022075284635149257, 0.020219950793948248, 0.01839246470923595, 0.016589116990944255, 0.014753165375400203, 0.012916339542113965, 0.011066749165542128, 0.009229304996378392, 0.007394274670802748, 0.005552570451161379, 0.0037092631232695217, 0.0018440062008937641, 0.0