0.03150345632141411, 0.031208104918901296, 0.03094331664454872, 0.03058395401177793, 0.030383020641957983, 0.030190872277865086, 0.030013049276402887, 0.02984378948219286, 0.029736011876592312, 0.029573214140174425, 0.02940988965416251, 0.02926346695336831, 0.029122625278844485, 0.028948142582391173, 0.02882134535527762, 0.028745285661426617, 0.028615757323002592, 0.028490794960343176, 0.028312377556666726, 0.028203169029941428, 0.02804577392650535, 0.027944865862535122, 0.027842948607907664, 0.027847648633293566, 0.027732726134750134, 0.02750792464647536, 0.027422466955023112, 0.027337578456359275, 0.027303172683043345, 0.02721586522482048, 0.02707661679709917, 0.027008563096774182, 0.026943697695419218, 0.026970293287628306, 0.026902936953514398, 0.026738978151491382, 0.026705325959033976, 0.02667561799095405, 0.026696154169384208, 0.026670874119995698, 0.026643733660192122, 0.026637275049632335, 0.026639275999094984, 0.026618499888165052, 0.026642191766688472, 0.02664531774828454, 0.026687896387861967, 0.02673722925833287, 0.02686568447667273, 0.02692119834683963, 0.026948859770579557, 0.027034128225934286, 0.027129275151164818, 0.027271284969274296, 0.02738220511699841, 0.027552958189833884, 0.02768293740751927, 0.027827944353519138, 0.02785451150483921, 0.02804514148740051, 0.028231713044706095, 0.028437378212759427, 0.02865045728290886, 0.028924212766467595, 0.029147660900486465, 0.02946227408189056, 0.029700689367714788, 0.029956179241393353, 0.030089959889821084, 0.03039564377528217, 0.03079162077799619, 0.03110377804722033, 0.03143014424900383, 0.03172172120444804, 0.032082755588168956, 0.032509598539504636, 0.03288732451284116, 0.03328052294989679, 0.033710153937014674, 0.03413153582162211, 0.034436487160051106, 0.03490774065183288, 0.035387883791063834, 0.03593393281540121, 0.03642768790835078, 0.036981709072728845, 0.037499506075339126, 0.03803516060860309, 0.03854829718072816, 0.039124435820184454, 0.039705408425478456, 0.04031383748074687, 0.04093757641531436, 0.041487698135637574, 0.04215434076947157, 0.042868988748840195, 0.043554467344028625, 0.04425512320912271, 0.04492418161580703, 0.04566256921958627, 0.046469044458023995, 0.04722894650952593, 0.04800707817972299, 0.048833318230733544, 0.049644499885977474, 0.050400640110716315, 0.05126162820922895, 0.05213831994952598, 0.05309596172671835, 0.053997262751135755, 0.05490167582397154, 0.05584622237816314, 0.056810025699756864, 0.05773180524973868, 0.05874181287723852, 0.05974307771756291, 0.06078817977846578, 0.06184854986783868, 0.06299125115132521, 0.06407532110711348, 0.06514131372041443, 0.06627092258778612, 0.0674184296161156, 0.068617230081265, 0.06979671435168619, 0.07105580426804402, 0.07226774158799974, 0.07340993560298219, 0.07467898632587819, 0.07596459035223534, 0.07725120219259568, 0.07857248969312679, 0.07988720389948413, 0.08124396010036607, 0.08261603326463499, 0.084042256139158, 0.08544100871259966, 0.08686854009622784, 0.08830236792780816, 0.08975475429490407, 0.09117118984541601, 0.09266681270807263, 0.09421922345235945, 0.09573929126433992, 0.09727683910367568, 0.09889989123104456, 0.10046304845968312, 0.10196977943012174, 0.10358306090782834, 0.10521109168845323, 0.10691508678051453, 0.10856470462440784, 0.11012552696350945, 0.11182399055943468, 0.11353326695140123, 0.11538321259250019, 0.11709865492362087, 0.11873668630332189, 0.12050110464681797, 0.12227722568802049, 0.12416831962758171, 0.12595474960594233, 0.1277655689444838, 0.129584956308104, 0.13142033230342254, 0.13312906934701926, 0.13501186765894782, 0.1369476004608851, 0.13883623982033697, 0.1407340436801481, 0.1426584189280468, 0.14457201593986435, 0.14656188741422832, 0.14848626852538074, 0.15042347901442543, 0.15234288410093608, 0.15430693798031817, 0.15619566760458142, 0.15818724737462375, 0.16018185103883076, 0.16217619105834735, 0.16417784814339592, 0.1662090045738061, 0.1682138612164945, 0.17022343600664044, 0.17222342847971114, 0.17424329229104013, 0.17630988201432893, 0.1783298941644723, 0.1803547905216557, 0.18246792145441548, 0.1844899810145932, 0.18643742429256827, 0.18848389170445612, 0.19053090027654915, 0.19265501609974314, 0.19469201760293958, 0.19671151989023025, 0.1987571088895869, 0.20080294126563064, 0.2027362246850183, 0.2047944365194723, 0.20694942672797595, 0.20897810689897797, 0.2110048184445153, 0.21292726703539352, 0.21496059009547536, 0.21708029423202468, 0.21908180317998455, 0.22107901933706453, 0.2230799095235703, 0.22506511210668417, 0.22699524522820108, 0.22897376063054692, 0.2309419695044883, 0.23288206013459084, 0.23483092216718196, 0.2366869893118384, 0.2386212450410284, 0.24053821002836964, 0.24243298465987986, 0.24431697754736711, 0.24616661973763954, 0.24801922934689277, 0.2498541206070316, 0.2516888750291408, 0.25348626523047324, 0.2552581551822994, 0.2570228634717955, 0.25876970670532795, 0.26048963248215057, 0.2622009093476464, 0.26400658390582615, 0.26566438832394496, 0.2673084948621869, 0.2688045617312432, 0.27043423543666895, 0.2721755858842724, 0.2737382943467729, 0.27528374777542935, 0.2766584467673385, 0.27818507431855055, 0.27968949723310504, 0.2811570698362285, 0.2825962281563763, 0.28400174446070175, 0.2853847466350383, 0.2868334516333401, 0.28814677272180084, 0.28943633975050626, 0.2907379653255018, 0.29197260156178173, 0.2930533595087562, 0.2942545930992755, 0.29542213824665786, 0.29663488676431043, 0.2977254149651041, 0.29873787318641876, 0.29977581363290845, 0.30078065296184114, 0.30171368645917873, 0.30265658563937103, 0.30365985618408603, 0.3045188600390587, 0.30534746773472327, 0.3061518924184427, 0.30691651838721323, 0.3076559552077455, 0.30835463921750583, 0.30902022970979076, 0.30956808409556597, 0.31017628739611397, 0.3107222075877194, 0.3112544290500938, 0.31174619909281753, 0.3122660830860194, 0.312669168631, 0.3129716158576541, 0.31331074473417825, 0.31360960457846077, 0.3138683797902373, 0.31408721699778785, 0.3142889845470354, 0.31442538161530015, 0.3145233780442211, 0.31468785316667447, 0.3146953503809404, 0.31453340748552244, 0.3144913771423285, 0.3144069559846386, 0.3143505077262775, 0.3141734601871587, 0.31391337263914526, 0.31366669624748367, 0.31337933544426705, 0.31316344079547787, 0.31278092394376, 0.3123136136644942, 0.3118686605984144, 0.3113853602024973, 0.31085829281945565, 0.310298497679168, 0.30975918923635626, 0.3091138096437772, 0.30843275489254396, 0.30760532079025266, 0.30686564683674106, 0.3061740774954355, 0.3053377542904247, 0.3044649527975651, 0.3035677947008075, 0.3026201504542143, 0.30154721662751177, 0.30053873936911096, 0.2994891320098481, 0.2983973897199389, 0.2972679367061407, 0.2961081184591945, 0.2948999684340419, 0.29365444784584493, 0.2923895738013333, 0.2910686242996894, 0.28976879503790476, 0.2883713159605699, 0.2869427676824563, 0.2854760523186071, 0.2839860273627005, 0.28235417082633874, 0.2808151112217752, 0.2793243976930967, 0.27770076348544875, 0.27604667301427516, 0.2742836456525661, 0.2725794850836534, 0.27090439752152773, 0.2691253865967102, 0.26731790916832854, 0.26552960968312067, 0.26366039809549674, 0.2616510611994167, 0.2597473126537833, 0.25781266348828996, 0.2558779806269474, 0.2538810387859491, 0.251847517817345, 0.24980045521691496, 0.24772812306566025, 0.24567154371765373, 0.24354585500384993, 0.2413748866594332, 0.2392111358289463, 0.2370260407359107, 0.23479748649289825, 0.23257449878230024, 0.2304428317394507, 0.22816510096520817, 0.2258745842027828, 0.22347314800766205, 0.22116920797812772, 0.21887842648296327, 0.21653474472188577, 0.21417633263250296, 0.21180732646697153, 0.20942092854844574, 0.20695367104313353, 0.2045513494194166, 0.2021338858839379, 0.19980575848430368, 0.1973485168979954, 0.1949098859794674, 0.1924379762206052, 0.18996204547660472, 0.18736320677127788, 0.18489476790402498, 0.182533526635451, 0.18003140132724527, 0.17752830359830973, 0.17488093119644713, 0.17239477895972039, 0.16991971477734746, 0.16741634547984785, 0.16490889014073912, 0.16240205494750665, 0.15988953867600386, 0.15748858970035085, 0.15496200534356017, 0.1524432223566667, 0.1498937570128895, 0.14739559407993968, 0.1448858614050152, 0.1424023193778441, 0.139924825944108, 0.13752235702836302, 0.13505046127945927, 0.13255555986190956, 0.13011224146100522, 0.12767931905507163, 0.12525033915871747, 0.12284075216209268, 0.12044810382083636, 0.11806186835610238, 0.11568889640337539, 0.11333503723479486, 0.11098972661325941, 0.1087122888322443, 0.10639162611128516, 0.10409040304927583, 0.10171775011056385, 0.0994674148124511, 0.09719700516600749, 0.09498198358070047, 0.09278191862390527, 0.09072753269700992, 0.08854451006779832, 0.08627328748397683, 0.08415572224487745, 0.08205726182244852, 0.08007513804427853, 0.078005539524006, 0.07590188969450616, 0.0738944732304697, 0.07191090418371589, 0.07008480317814023, 0.06813386571500622, 0.06621419880488333, 0.06432897827911836, 0.062475699601525554, 0.06060853254826892, 0.058824015221552256, 0.05706642230766839, 0.055339751426348116, 0.05364222196946594, 0.05193914055152322, 0.050305266698911257, 0.048766038153775795, 0.04718062276834729, 0.04562824512070415, 0.044103653727072215, 0.04261804770353808, 0.04127905209408498, 0.03984486417283551, 0.038450170784750895, 0.036989191746650475, 0.035684611263358916, 0.03456398810694632, 0.033303919019050325, 0.03208487748868156, 0.03083599797084722, 0.029705441305894, 0.02861856016879909, 0.027556806864141286, 0.026530613854500274, 0.025645031217518245, 0.024676787935952696, 0.023634620999896442, 0.02276341828404015, 0.02192591465829537, 0.021234509202527087, 0.02045134198630984, 0.019728462362360064, 0.019024323179816536, 0.018361173718712903, 0.017773421720295873, 0.0171861122822984, 0.016596444122788406, 0.016096810458162712, 0.015634897343977293, 0.015187814620451427, 0.01480383819882474, 0.014571492805567885, 0.014245234345126109, 0.013961774527914214, 0.013652007783666742, 0.013460353111353832, 0.01334744336681834, 0.013223928115727847, 0.013139463748037632, 0.013203962481023028, 0.013182615981193083, 0.013191536677005851, 0.013259354077566836, 0.013368495555967964, 0.013448164165049232, 0.0136465481099631, 0.013913495022325247, 0.014178305277966196, 0.014480315898085867, 0.014903274612321788, 0.01526827668035058, 0.015735709012574622, 0.01617440932249013, 0.016656027080722488, 0.017217864783544614, 0.01777696807966604, 0.01839717906088417, 0.019036403474185695, 0.01971639113216373, 0.020443087731522785, 0.02120067316337909, 0.022003605833028978, 0.022836215324690008, 0.02370609063746837, 0.02463181929026358, 0.025571870013912295, 0.026564243196973213, 0.027574822835883115, 0.02862168988764096, 0.0297077310163395, 0.030824956371601955, 0.032029530002826156, 0.03320932856070576, 0.03442603416793624, 0.03558783284408564, 0.03688756120581511, 0.03829921987965221, 0.03964804175640155, 0.04103144794192132, 0.0423526130914557, 0.043815744595029044, 0.045443067975844964, 0.04694462193709279, 0.04848215323559889, 0.05003029793204615, 0.051640389262766734, 0.05330375282109431, 0.05497528793286923, 0.05667943166623501, 0.05842089501395747, 0.06018801935970738, 0.06188154239280063, 0.06372432865988621, 0.06559176502322343, 0.06761383509315787, 0.06951549128887023, 0.07145371932381864, 0.07342028414588897, 0.0753328394118714, 0.07737308183162395, 0.07943896602423632, 0.08165664185325945, 0.08375821309726379, 0.08581750386728107, 0.08799357546796531, 0.09019653607675494, 0.09238768596140688, 0.0946487229493794, 0.09694968059294128, 0.09925719232912733, 0.1015899838907858, 0.10405301516009054, 0.10642289152176976, 0.1088499778087375, 0.1112775063173291, 0.11373568504471941, 0.11613778308624817, 0.11866532129702947, 0.12124061713032934, 0.12381157517605956, 0.12640717880711372, 0.12903773056952966, 0.13168071634092376, 0.13439564884762784, 0.13708179734278947, 0.1397948361396747, 0.142534193646114, 0.14529936446320693, 0.14803039076605362, 0.15085342882107836, 0.15369775780581996, 0.15660381282032404, 0.15948614363342875, 0.16246425955685223, 0.16538535439023808, 0.16833411502691484, 0.17125204629873578, 0.17426133261886034, 0.17724234717167225, 0.18030300639543206, 0.18338326961643658, 0.18646953522014015, 0.18959193556811393, 0.19276923368655977, 0.1959273794644691, 0.1991081130295959, 0.20236221205462682, 0.20558175125963754, 0.20886002395389397, 0.21212591040993237, 0.2154183853417017, 0.2187386220999202, 0.22208239430053398, 0.22535156270135165, 0.22875788782224807, 0.23218304533375203, 0.23569230850022974, 0.23914841682901367, 0.2426476134999913, 0.24614879260652756, 0.2496745818328219, 0.25322645580617376, 0.25680045402181934, 0.26041069376761755, 0.264030931666829, 0.2676754961401581, 0.2712723884764383, 0.27497401139473826, 0.2786498201497345, 0.28239702057358507, 0.28616218019973544, 0.28999151426221137, 0.29378887016475985, 0.29768387208534386, 0.30151657848759106, 0.3053760815766279, 0.3091323199285643, 0.3130602468329011, 0.3170115182525908, 0.3209756339800285, 0.3249593828059947, 0.3289579716809333, 0.3329829582348587, 0.33701271083363227, 0.34108104629676017, 0.34516959932533897, 0.34925245522760057, 0.3533857240533345, 0.3576611071477689, 0.3618184502920594, 0.366002962989057, 0.37011589417664786, 0.3743650106650639, 0.37871255710116003, 0.3829912769817529, 0.3872945004656759, 0.39152021385534097, 0.3958838384886835, 0.4003436643496594, 0.4047326248930822, 0.40914421534616885, 0.41357283394918976, 0.41802931326165044, 0.4224511138657558, 0.42695707710471026, 0.4314807089751397, 0.4359539430134616, 0.44052208243441837, 0.4451955158455026, 0.44978129894343405, 0.45438755829551547, 0.45893518964827285, 0.463591346353706, 0.4683185574019111, 0.47299801429002053, 0.47769617067212516, 0.4823567100181653, 0.48709842188124697, 0.4917532245129334, 0.4965371109841106, 0.50133007809791, 0.5062222010182038, 0.5110243084914559, 0.5157427056326875, 0.5205892125959313, 0.5254454837095339, 0.5302891802502611, 0.535168982483362, 0.5400739187774056, 0.5449707581432108, 0.5498782842757445, 0.5547771698005894, 0.5597082076715391, 0.564718425969315, 0.5696588207262778, 0.5746119908835507, 0.5795736101395565, 0.5845503077166365, 0.5895336385279218, 0.5945302797566937, 0.5995353301985281, 0.6045375595043266, 0.6095585726491175, 0.6145327133621517, 0.6195710007489987, 0.6246106861590425, 0.629695289081379, 0.634731458420426, 0.6397355780945756, 0.6447813296197366, 0.649826553788392, 0.6547657467218149, 0.6598217087071827, 0.6648976959599218, 0.6699344125831727, 0.6749650991454176, 0.6800210376824907, 0.6850349256853181, 0.6899893800748724, 0.6949990829483346, 0.6999991380752196, 0.7049314641969683, 0.7099184903590047, 0.7148616860033769, 0.7198242580424999, 0.7247708358612492, 0.7297153754289744, 0.7346279308700377, 0.7395072775928168, 0.74439014383554, 0.7492552638731133, 0.7541108966839226, 0.7589378626425033, 0.7637808805229386, 0.7685647414185637, 0.7733300300227278, 0.77809486655854, 0.7828171760839311, 0.7874345796252505, 0.7921244510130123, 0.7967861747296971, 0.8014997031409672, 0.806093196090117, 0.8106419311437515, 0.8151854696239411, 0.8196996980072664, 0.8240819393652169, 0.8285469259095248, 0.833071490018376, 0.8374468923791051, 0.8417886504341773, 0.8459677227585053, 0.8502545760833512, 0.8546019122866533, 0.8587862427227972, 0.8629314871705686, 0.867055686365959, 0.8711167050106907, 0.8750258656785943, 0.879016344772391, 0.8829844703067793, 0.8868703360262676, 0.8907066278430092, 0.8945241247709257, 0.8982550692054484, 0.9018274064506367, 0.9054708316879907, 0.9090559507954062, 0.9126841057625926, 0.916139143266948, 0.9194759909402318, 0.9228311071994466, 0.9261266830834974, 0.9293865532626072, 0.9325579053568349, 0.9355744657137198, 0.9386362686171963, 0.9416305890021968, 0.9445904980180956, 0.9474450043225969, 0.9501788248423286, 0.9529066569811437, 0.9555636230119192, 0.9581686809639927, 0.9606805220684437, 0.9631197368271674, 0.9654894116083573, 0.9677868149767164, 0.9699815227647373, 0.9721361233860232, 0.9743074984297408, 0.9762979125621755, 0.9782165673959484, 0.9799501635374306, 0.9817357030569129, 0.9835200878269211, 0.98513192696137, 0.9866662052110735, 0.9881044969159275, 0.9894831430607476, 0.9907491007322257, 0.9919687096235306, 0.9931040766208751, 0.9941408393105003, 0.9951084054572156, 0.9959583357871857, 0.9967573631353578, 0.997467952511981, 0.9981338298020715, 0.9986618746560236, 0.9991632462092332, 0.9995109196297991, 0.999774820042979, 0.999861274541551, 0.9999667310876571, 1.0, 0.9999202205642369, 0.9997502209696689, 0.9994758856142021, 0.9991268840789669, 0.9987758272208419, 0.9982329174842267, 0.9976037436485758, 0.9968928652699477, 0.9960885185583481, 0.9951894016932592, 0.994209932416904, 0.9931414427934326, 0.9919539213034505, 0.9907104513024095, 0.9892916971408597, 0.9878764810018145, 0.9863656367626554, 0.9847530504393258, 0.9830544367950261, 0.9812535384280836, 0.9793697502648089, 0.9773934620923311, 0.9753184434497524, 0.9731603123279289, 0.9710322593718891, 0.968678189920419, 0.9662416225961395, 0.9636224893999812, 0.961032750126262, 0.9584540915647703, 0.9556751510774539, 0.9528146895301781, 0.9498411641849848, 0.9468216270426922, 0.9437434665443615, 0.9405550495669065, 0.9372858733586535, 0.9339135468041084, 0.930486884015456, 0.9269182021283529, 0.9233384991609286, 0.9196760863072362, 0.9160232611757465, 0.9121877255954501, 0.9081558086084426, 0.9041885159575982, 0.9001414912730131, 0.8961370970862945, 0.891920042874628, 0.8875453602757546, 0.8832033333865599, 0.8787889406517998, 0.8743420265601504, 0.8697820251525386, 0.8650875140257405, 0.8604046344197684, 0.8556536726755689, 0.8509132340698897, 0.8460210994478659, 0.8410926141373696, 0.8360802592548444, 0.8310118634445145, 0.8258392033336432, 0.8206673509345631, 0.8154515211060948, 0.8101670323540517, 0.8048297525619523, 0.7993657031801068, 0.7939362366979005, 0.7885026816030453, 0.7829627681792725, 0.7773763422511276, 0.7716905861940365, 0.7660223291652503, 0.7603001031744997, 0.7545444094346021, 0.7487467403817615, 0.7429142157725738, 0.7370374911090916, 0.7311753163695828, 0.7252214545363267, 0.7192376075849224, 0.713212767195117, 0.7071742626407131, 0.7011456662590984, 0.695050245525421, 0.6889329112143697, 0.6827090558874791, 0.6765622664027778, 0.6703766163949767, 0.6641875846333255, 0.6579784728185077, 0.6518230578613771, 0.6455706933193426, 0.6392241334495207, 0.6329633177775283, 0.6266902039670311, 0.6203735501368774, 0.6140860296085524, 0.6078969867381496, 0.6015814976708938, 0.5952678678429218, 0.5889397073261486, 0.5826353930639454, 0.5762181477810964, 0.5699387168595517, 0.5636598001745705, 0.557511509882739, 0.551224367414911, 0.5448413334769658, 0.538597909202069, 0.5323647509858834, 0.5261053376654767, 0.5199034657217572, 0.5137381957663009, 0.5075632320373711, 0.5014074775437599, 0.49533041778099374, 0.4892108928195606, 0.4830488091658211, 0.47699414885954833, 0.470965230261665, 0.46505826015169865, 0.4590738763189561, 0.45306941234687736, 0.44716473162972936, 0.44129440245383117, 0.4354422167422564, 0.42964666914492156, 0.42385155708581845, 0.4181364169222943, 0.41245911701503835, 0.4069402772106952, 0.4013283256159132, 0.3956814579356988, 0.3901787730001199, 0.38472141947679833, 0.3793316343708323, 0.3739659489962622, 0.3685733460867099, 0.36331855015674774, 0.3581114284953665, 0.35293427465657046, 0.34782948601301356, 0.34288418517971986, 0.337869051951851, 0.3328402566521108, 0.3279545168537106, 0.32312531764442776, 0.3183887006978288, 0.31367120550664385, 0.30905016517642986, 0.3044517371892009, 0.2999179057746279, 0.2954227078443404, 0.2910222868606392, 0.28661065869888214, 0.2823484225364697, 0.2781471069863793, 0.27398857776009683, 0.26991480100887133, 0.265891690031554, 0.26194630478700576, 0.2580650644365595, 0.2542436341949449, 0.25049399974732633, 0.24689294808651965, 0.24326623368522435, 0.23971174866093667, 0.23615759783410176, 0.23275626398860613, 0.22942451939452949, 0.22615911109684897, 0.22296250834817752, 0.21994355331719373, 0.21687174229087874, 0.21387036395469206, 0.2109498665579013, 0.20810338215740232, 0.20533034649132906, 0.20263023468323038, 0.19994304299723234, 0.19739485566293022, 0.19491485394640448, 0.19245408114748447, 0.19011676017718346, 0.18790790813880626, 0.18569384459549565, 0.18354930752844625, 0.18145467410273358, 0.1794505019350145, 0.1775136211665246, 0.17564376840127952, 0.17384064327010926, 0.17216692261730185, 0.1704882438709253, 0.16879120269997772, 0.16726095858624998, 0.16579310715852585, 0.164450481727847, 0.16309884517747097, 0.16183866386327608, 0.16061323925302937, 0.15945276150824006, 0.1583334140398438, 0.15730255210153926, 0.15629900553944417, 0.15539269251021515, 0.1545434798464285, 0.15382608867060882, 0.15307988775266004, 0.15225673214864335, 0.15164567470573537, 0.15108403922205588, 0.15067150363475337, 0.1501957145863224, 0.14981286833187737, 0.14943989411966926, 0.14912116156626912, 0.14881320015817842, 0.14860392774325676, 0.14839679245362208, 0.14828757901001885, 0.14822147526890098, 0.14817158920408627, 0.14819306087280232, 0.14833111799460075, 0.14842141834388892, 0.14855439635879306, 0.1487444838170823, 0.14895688222456396, 0.14912142125879624, 0.14942280978543232, 0.1497561910611437, 0.1501611915169472, 0.1505515097544336, 0.15096349884785462, 0.15141836297163971, 0.15190254810549086, 0.15247976131832142, 0.1530112166890744, 0.1535689149961807, 0.15415868346577022, 0.15477482012095697, 0.15532657256445676, 0.15600232088191687, 0.15669159466763855, 0.15740118479130039, 0.1581262405376972, 0.1588467733386774, 0.1596029407546737, 0.160388648335351, 0.16116596211027712, 0.16195481332170752, 0.16274374374123612, 0.16355410484596744, 0.16439873107727185, 0.16522085765821534, 0.16605057372910023, 0.16686393345937903, 0.16770814065213205, 0.16864263164489185, 0.16948032645066322, 0.17032372952061878, 0.17106786773430868, 0.17193071900134022, 0.1728866332794165, 0.17372653136208063, 0.17456564283700715, 0.1753411998499305, 0.17618203699472018, 0.1770773491691699, 0.1778923247605283, 0.1787006558900097, 0.17944674792753382, 0.18024471134997186, 0.18099240707833864, 0.18176727179240926, 0.18252510726461826, 0.1832654757047114, 0.18398790165892287, 0.18480039943299578, 0.1854716694034998, 0.18612948833767398, 0.18666913825593964, 0.1873088648444707, 0.187991791190135, 0.18857612472471197, 0.18914013729432524, 0.18971789365452327, 0.19023405839546298, 0.19070642455988795, 0.1911822892199431, 0.1916337299029339, 0.1920599856890342, 0.19246033811494426, 0.19280960392766147, 0.19315925110570586, 0.19347969698223252, 0.19368655166032886, 0.19395810702795502, 0.19424366196047438, 0.19443932911088585, 0.19460332165515978, 0.1947249355801234, 0.19482629416725475, 0.19497878228500895, 0.19500361376834227, 0.1950000053525285, 0.1949653875598259, 0.19490274455644346, 0.19478133876733492, 0.19466014527755035, 0.19450553292930428, 0.19434527995920764, 0.19411963534507692, 0.19384054234579393, 0.1935522964231924, 0.1932297445329134, 0.19289729731856547, 0.192502779457078, 0.19195785496099543, 0.19151168637718638, 0.19102542685132165, 0.19059442005327865, 0.19001842791259177, 0.18933114482073643, 0.18869993082059042, 0.18803155455662904, 0.18731085213482104, 0.18657187241745626, 0.18575624581656314, 0.18495019482657177, 0.1841066886990229, 0.18334561864872018, 0.18241468688481455, 0.18140812719237495, 0.18042616681521545, 0.1794127263796795, 0.17829454865940578, 0.17722823400374937, 0.17623216201152656, 0.17508391534723203, 0.173908537194746, 0.1727024851918694, 0.17147322609115745, 0.17019569869936244, 0.16891473431080134, 0.16760571013620998, 0.1661745373727077, 0.1648226565317226, 0.16350002768713495, 0.16207763180706958, 0.16067635126452298, 0.15919630918414002, 0.15769401277297954, 0.15618195829299197, 0.1546343871897204, 0.15294885841212463, 0.15137503593199103, 0.14977457818380938, 0.14817857346659366, 0.14652500702642524, 0.1448555125819901, 0.14315982122505846, 0.14144501771317858, 0.13969091146049062, 0.13794296890928417, 0.13625065891901367, 0.13445861068854817, 0.13265468669552746, 0.13085670279415104, 0.12902780386742083, 0.1271680979647723, 0.1253225660150953, 0.12346674359910387, 0.12162048003711015, 0.11974345496626487, 0.11790284182701588, 0.11600610282771955, 0.1141055366671986, 0.1121856244513752, 0.11028017324534196, 0.10825365588553762, 0.10635600893155754, 0.10444914747532391, 0.10260290816214376, 0.10067361628290318, 0.09874690114410441, 0.09681609838025997, 0.09488612760859187, 0.0928999781117827, 0.09098122924623035, 0.08905007542612645, 0.08713378804502153, 0.08521903605026937, 0.08336128283837485, 0.0814462862917706, 0.07949028679968977, 0.07759809595785312, 0.07571235788352537, 0.07395834775219297, 0.07207275756352671, 0.07016670655198973, 0.06831823438425007, 0.06648383959387077, 0.0646323571904033, 0.06283115901335459, 0.061146663197478475, 0.05935995538808702, 0.0575938350581487, 0.05575186876248792, 0.05403869622451894, 0.0524122488075401, 0.050720781582320136, 0.04904998613065226, 0.0474280865668684, 0.04579579132173857, 0.044127003701018214, 0.042548374922371124, 0.040989684781963305, 0.03948137022564734, 0.03796081827771886, 0.03646035785756321, 0.0349878150616666, 0.03353944146714072, 0.03216467284433273, 0.030759718838733525, 0.029344452978636377, 0.02800078603311846, 0.02668324986155805, 0.02538700928505855, 0.024123638816212895, 0.022988848963297878, 0.02176719477417057, 0.020579146125509106, 0.019363023904355455, 0.01824876597641936, 0.017228430168968044, 0.0161645999528919, 0.015134154603028038, 0.01421212528584559, 0.013238287797760593, 0.012324273821855105, 0.011421005908984726, 0.010554812393968013, 0.00967251720632272, 0.008885223706837123, 0.008104117573100526, 0.007385071820097318, 0.0066971001839489265, 0.006156013908796402, 0.005516432214724984, 0.0048207045491488396, 0.004269128494292423, 0.003749334281885162, 0.0032720722619080573, 0.0028152372826681714, 0.002408957207613413, 0.0020161098822105796, 0.0016574798455934795, 0.0013487515016067857, 0.0010563606830829857, 0.0008023713699352646, 0.0005791451042486328, 0.00039063897832675295, 0.00028215991755652743, 0.00015674251090734835, 0.00012052827851335152, 6.130877035255719e-05, 4.068039832266191e-05, 0.0, 6.130011403977781e-05, 0.0003218411275984681, 0.0004278474438189409, 0.0005757777040730001, 0.0006398391098726564, 0.0008829411744614419, 0.0012094243656610535, 0.0015075494646536233, 0.001839325846851242, 0.002281249446323773, 0.002669073228880363, 0.0030111629545563736, 0.0034814210058082937, 0.003981631311561011, 0.004635889014893795, 0.005179748222324317, 0.005751232768601353, 0.006367761151995493, 0.0070179093550128855, 0.007630762895454267, 0.008354385148251745, 0.009182251621757776, 0.009950476287714963, 0.010750003565091358, 0.011674588487660712, 0.012522540772944589, 0.01332097149802463, 0.014247179431195158, 0.015200587444035338, 0.016207025132471402, 0.017210260436133263, 0.01831272447174859, 0.01936123829399148, 0.020440131141016313, 0.021581581019384042, 0.022713892462217243, 0.023859753599700786, 0.025051588861433098, 0.0262697997184131, 0.02743837066398455, 0.02871666424923577, 0.030022050195015058, 0.03133966994707406, 0.03267780175383876, 0.034164134715836895, 0.03552685466144303, 0.03687492939315665, 0.0382965160097064, 0.03974087596966997, 0.041142621582632086, 0.04263888924382395, 0.04424182373137837, 0.045761622153211064, 0.047303836990436283, 0.048928971424726665, 0.05050605784740605, 0.052022884442761125, 0.05365702435914733, 0.05530814467886496, 0.05699354142016514, 0.05867578855038744, 0.06038063126629254, 0.06209655858642255, 0.06382945297034812, 0.06564022327385217, 0.0673982650423492, 0.06923172002512215, 0.07102069182475856, 0.0728307014918645, 0.07461514302524247, 0.07646981027164902, 0.07833476301321893, 0.08022075747070638, 0.08212121543990035, 0.08410236122357194, 0.08602249733910501, 0.08791978627489853, 0.08987908716585775, 0.09185213191834034, 0.09376689721634533, 0.0957757569047883, 0.09781989843127079, 0.09984389011787942, 0.101984150205901, 0.10401745028573998, 0.10606806259491335, 0.10814571125363166, 0.11022738017909567, 0.11233014120239561, 0.11444222271778202, 0.11656930954915223, 0.1186163883854016, 0.12078402474940102, 0.12293557961035056, 0.125123618411875, 0.127319576892424, 0.12963780046216367, 0.13183687117169718, 0.13393626859051452, 0.13618114277543095, 0.13843444758977963, 0.14079651246499678, 0.14305568462008328, 0.1453601553017815, 0.14764625406703374, 0.14994883220288496, 0.15218685138208574, 0.1545310811954662, 0.15685092766253125, 0.1592211712837983, 0.16160073251285423, 0.16410046397176833, 0.1664864069762357, 0.16887019297240013, 0.1712923181992393, 0.17372964086217763, 0.17610499352893028, 0.17858203392313488, 0.18113437582307185, 0.1836248835542785, 0.18613067615521642, 0.18867272883151268, 0.19120637584534447, 0.19377748384348265, 0.19634126650577882, 0.19892248247086858, 0.201384393039636, 0.20401715915932725, 0.20671348272296622, 0.2093590155575038, 0.21201886222424174, 0.21463392470366535, 0.21733114015197286, 0.22012276428266345, 0.22283468547084503, 0.22556493400140049, 0.2282750156096632, 0.23104684665180547, 0.23386119353186058, 0.23666259963513805, 0.23948246252527527, 0.24228939173201566, 0.2451505054882506, 0.24803217365683883, 0.25092733742758205, 0.253840494473317, 0.25671593821022576, 0.2596730584363732, 0.2626441354431161, 0.2656335922105508, 0.26863998866077204, 0.2716393991023638, 0.2746844505889614, 0.2777466285477975, 0.2808265441724468, 0.2839247391342599, 0.2871712186234373, 0.29029097616616745, 0.2934235534833225, 0.2965980124686274, 0.2997971680659497, 0.30289281076390073, 0.3061562715410282, 0.3095411443996056, 0.31282485656126335, 0.31613226357946894, 0.3194228461676554, 0.3227819823478365, 0.3261601146765446, 0.32956111452410053, 0.33298304309184157, 0.3363682662818906, 0.33983971939793733, 0.3433939496581055, 0.34689378014137534, 0.3504162605108929, 0.35394026144272595, 0.357510324166597, 0.3610857346619724, 0.3647000375359085, 0.3683346278580914, 0.37191086899625037, 0.3755963444870004, 0.37937848389195267, 0.3830867342250456, 0.38681686205844223, 0.3904741533361569, 0.39425939152102063, 0.39807808976566217, 0.40189356101612633, 0.40572693244928004, 0.4096116525937084, 0.4134771251176678, 0.4173014737222921, 0.42121470110652465, 0.42514407238983115, 0.42915628560202645, 0.43311000958828366, 0.43709268560942605, 0.44108513681297773, 0.4450971524781535, 0.4489933299708141, 0.4530596515304519, 0.45725340616113735, 0.46132570799467304, 0.46541560198317133, 0.46950138736324853, 0.47362704341324025, 0.4777740577004231, 0.4819270440577197, 0.4860937696331171, 0.49017738229868124, 0.49438200351966155, 0.4986334505194054, 0.5028462865938854, 0.5070681852941454, 0.5113285503934107, 0.5155637093252926, 0.5197313940751767, 0.5239946543477862, 0.5282616891472051, 0.5325148816659109, 0.5367912550954748, 0.5411433521087964, 0.5454146461621393, 0.5496917906256474, 0.5539003243990429, 0.5581956327560559, 0.5625598606720031, 0.5668437899424781, 0.571129809939179, 0.5752926135513747, 0.5795954444830662, 0.5838675767723168, 0.5881573958861321, 0.5924378761667712, 0.5968367540693076, 0.6010821653481955, 0.6053056953989358, 0.6095469006971781, 0.6137816681481125, 0.618014097211446, 0.6222318855841136, 0.6263333490262482, 0.6305443784180602, 0.6347375742802822, 0.6389354282447226, 0.6430891978547028, 0.6472918648420987, 0.6514012936938045, 0.6554953964135466, 0.6594625815637468, 0.6635360470047003, 0.6675911288542703, 0.6716125885148078, 0.6756082679238224, 0.6795635919336651, 0.6835077009548368, 0.6874583505300206, 0.6913404701372091, 0.6951947689161962, 0.6990779865238889, 0.7028662636733761, 0.7066391182624255, 0.7103689844320082, 0.7140688928525883, 0.7176288135082594, 0.721278060603921, 0.7249009050710734, 0.7284670928610351, 0.7319926412461225, 0.7354750883829307, 0.7389174081154662, 0.7423780127375529, 0.7457258379012246, 0.749032510824443, 0.7522319351937545, 0.7554605351278405, 0.7586562270415816, 0.7617848200339253, 0.7648642208271332, 0.7679530671713537, 0.7709239306298442, 0.7737535354222491, 0.7766377846508338, 0.7795111783076615, 0.7822764398179758, 0.7849868409829815, 0.7875661693421583, 0.7901735386546697, 0.7927400291304574, 0.7952206777022611, 0.7976399641345844, 0.7999745534071019, 0.8022722265508107, 0.8045422068017694, 0.8067058729196888, 0.8088061986888303, 0.8108861241028037, 0.8128517925201676, 0.814661390129645, 0.8165110542975672, 0.8182900101671471, 0.8200277448088655, 0.8216606752331266, 0.8231991424145305, 0.8246946451449625, 0.8261176023254039, 0.8274816199923212, 0.8287565113574885, 0.8300634365074423, 0.8311785359127187, 0.8322254766900602, 0.8330681243170011, 0.8339918362594363, 0.834843104585157, 0.8356070994114813, 0.8362921188266882, 0.8369786079898428, 0.8374952625944349, 0.8378391706341557, 0.8382179986198354, 0.8385151381081462, 0.8387867619046856, 0.8389138932936706, 0.838947115859213, 0.8389195553424315, 0.8388122487830354, 0.8387002918926537, 0.8384234899218976, 0.8380707227584984, 0.8376412829864478, 0.8371345621036969, 0.8364117655873636, 0.8357665014882937, 0.8351154124614607, 0.8342881195335295, 0.8333806032144704, 0.8323946724755088, 0.8313266929475097, 0.8301578466828813, 0.8289329286784369, 0.8276272609207131, 0.8261764392834755, 0.8247185452214028, 0.8233051449030879, 0.8216654396321779, 0.8199513888647789, 0.8180752610010207, 0.816223033201814, 0.8143384306920152, 0.8123217015443962, 0.8102294617017172, 0.8080743025419226, 0.8058305494419864, 0.803516611032086, 0.8011254012536654, 0.7986614666199724, 0.7960009567027473, 0.7934086063638681, 0.7908377393129473, 0.7880777579904535, 0.785248120294517, 0.7822776601011318, 0.7793196135365267, 0.7763440431215125, 0.7732368432457162, 0.770063417821196, 0.766808780851238, 0.7635072233669448, 0.76009192453584, 0.7566680703330939, 0.753178681738697, 0.7496759007309, 0.7460531325021694, 0.7422456896556324, 0.7385224326921809, 0.7347352316156878, 0.7308965303712944, 0.7269858385687227, 0.7231258507820199, 0.7190873931853062, 0.7150003331774712, 0.710774264264982, 0.7066034085765599, 0.7023581151673762, 0.6980882969528757, 0.6937685342628424, 0.6895089886377118, 0.6850804847689599, 0.6805236345718398, 0.6760288974918838, 0.6714914213138563, 0.6669529643213049, 0.66232939612262, 0.6576207698463231, 0.6529324163665219, 0.6482075185045506, 0.6434108766854153, 0.6386221847736875, 0.6338554948823604, 0.6289934867850739, 0.624104127866836, 0.6191431417901541, 0.614208547351355, 0.6093598093391588, 0.6043603566718779, 0.5993442676153721, 0.5942124471283649, 0.5891778107139213, 0.5841127100690596, 0.5790411869471421, 0.5739524950354327, 0.5689743841839854, 0.5638405533066644, 0.5585756569787238, 0.5534482814996095, 0.5483100904330473, 0.5432731505990154, 0.5381047207013621, 0.532830133583148, 0.5276772055584719, 0.5225205179988529, 0.5173688394307929, 0.5122089990865728, 0.5071367152140883, 0.5019711816741089, 0.49681536386988934, 0.4915650614985772, 0.4864444734071272, 0.48140034802763304, 0.4762856209538334, 0.4711848379974736, 0.46613938323465826, 0.46106478935604533, 0.4560115639032961, 0.4509768188809587, 0.4459635040344155, 0.440925265222226, 0.4359635378844197, 0.4310514116068279, 0.42613071024851545, 0.4212359017066533, 0.4163190742217601, 0.41148554417495076, 0.406606688953966, 0.40183660066381693, 0.39709184833767763, 0.39237964267908665, 0.3876906562983423, 0.3831220940832131, 0.37848571545902243, 0.37388857802451225, 0.3692438567810312, 0.3647383575304553, 0.3603393138266022, 0.3558992691717718, 0.35150236030208565, 0.3471895464158971, 0.3428759206152964, 0.33852576964566383, 0.33431811766393515, 0.33015401030536656, 0.32610281528942775, 0.3220204172853737, 0.31789575971708595, 0.31392649299216757, 0.31000331301804884, 0.30613788084374416, 0.3023089400320369, 0.29854216050725163, 0.2948123294407223, 0.29113472027292897, 0.28748545992142527, 0.2839172498743279, 0.2804629302716769, 0.27699294843572725, 0.2735804102578654, 0.27014491168570415, 0.26685778694353024, 0.2637499740922134, 0.26055426676189364, 0.2574203975253804, 0.2542219545860011, 0.25122659375268475, 0.24826574823917488, 0.24538113454231025, 0.24255066755635601, 0.23978385317069625, 0.23706273755074486, 0.2344875039056811, 0.23186874099914837, 0.2293456131640383, 0.22684696372208643, 0.22441171205544388, 0.22191493197026013, 0.21962028896491015, 0.2174485326001646, 0.21525499096049247, 0.21312078622213843, 0.21107893871241548, 0.2090584839201339, 0.20707573818198216, 0.20517855138374544, 0.20333949882717578, 0.20147249605749182, 0.1997595941349572, 0.198205800168511, 0.1965844082636802, 0.19502192020638398, 0.19340210095268523, 0.19196991338332495, 0.1906965935771064, 0.18935164638613325, 0.1880635709759238, 0.1867755533099165, 0.1856059148415174, 0.1844386418476716, 0.18337764637732856, 0.1823646205380317, 0.18143457090460383, 0.1805129667964069, 0.17968129138080455, 0.17885340825682874, 0.17807636041808692, 0.17737373242031138, 0.17669250581646126, 0.17594698405358367, 0.17537800522186317, 0.17484996178544343, 0.17442924223460443, 0.17397419303572467, 0.17362093114614713, 0.17324571828276272, 0.17291594614403966, 0.1726232308923048, 0.17238113234063035, 0.17209082287379884, 0.17194094437682697, 0.17182478195469644, 0.17170167163311548, 0.1716567482236109, 0.17166637727582357, 0.17167818729940007, 0.1717208032127156, 0.17183735137058964, 0.17193409927926248, 0.17199905469215565, 0.17216509104394684, 0.1723565800053728, 0.172665691477944, 0.17289450347951488, 0.17310825616772935, 0.17339850374940843, 0.17371205492998615, 0.17412488107951618, 0.17447216973767407, 0.174828200519785, 0.17522481156403966, 0.17564179272313332, 0.1761040168097124, 0.1765543209936941, 0.17701371496651774, 0.17749935243872975, 0.17799949176425778, 0.17839034449118749, 0.17893123181862128, 0.17959335444317315, 0.18012717801333597, 0.18067113726591766, 0.18113644341878318, 0.1817079710466957, 0.18223728112950383, 0.18281697943852296, 0.18339482075044913, 0.18401086964819605, 0.18457924050544985, 0.1852171995422104, 0.18577511942766092, 0.18633502998073065, 0.1868920858288179, 0.18745244343795953, 0.18804748617507405, 0.1885978954116953, 0.18914602587669455, 0.18967475643076778, 0.19021629207797788, 0.190616002138342, 0.19115944722098155, 0.19168625289936136, 0.19227181455687725, 0.1927561180470615, 0.19319835859456827, 0.19366107422845674, 0.19410834759399956, 0.19457470409590763, 0.19498520146490697, 0.19542972934313788, 0.19580325920200325, 0.19616296188585766, 0.19640266131680992, 0.19674459722164128, 0.19718783822621883, 0.1974680166547839, 0.19773194592350615, 0.1979329303307766, 0.1981666470042721, 0.198380018075839, 0.19856875451875322, 0.19873438622918033, 0.19885012994267015, 0.19897131496016704, 0.19900340511674264, 0.1990801540015113, 0.19912680423386586, 0.1992661458520033, 0.19923784211100828, 0.19916943370265813, 0.19909726179849355, 0.19899983153881476, 0.19883455639716252, 0.19869024094723062, 0.19859024970720088, 0.19837817092319893, 0.19814085675842869, 0.19777961802882998, 0.19750229772659128, 0.19717846225045027, 0.19683822676827878, 0.19646533609895098, 0.19616694838923626, 0.19571636807093953, 0.19518766215686623, 0.19469191850230746, 0.19416655026254315, 0.1935975632465234, 0.19301476073153662, 0.19241213121430176, 0.19176751899407893, 0.19109352409130273, 0.1904147532335283, 0.1896792171813367, 0.18881976110008997, 0.18804105183192907, 0.18722924203004668, 0.18638689120803337, 0.18551102661161326, 0.18462016790167332, 0.1836814534010476, 0.18271411043195387, 0.18171507708716061, 0.18069222396780113, 0.1797363478392308, 0.1786468992141597, 0.17753608482336297, 0.17632830749710215, 0.17518337374888868, 0.17400337052400527, 0.1728074347931152, 0.17158574035625423, 0.17033712840494428, 0.16906590306344416, 0.16776181738889268, 0.16644406470603867, 0.1651028731315485, 0.16383865697060437, 0.1624398946592555, 0.16092717528165648, 0.15950874789996558, 0.15806860878367926, 0.15661629410680808, 0.15513395899192292, 0.15364145323121126, 0.15212083058020592, 0.15058310079467777, 0.14914612518385406, 0.14756112387161663, 0.14594287794298336, 0.144343163768578, 0.14273279551956422, 0.1410838702006742, 0.13945612055311726, 0.1378586875718003, 0.13620278235404013, 0.13453865123560937, 0.13277903376332423, 0.13111035280300407, 0.1294172409396464, 0.12772688703982263, 0.12602589493177307, 0.12441693843007792, 0.12268524659782613, 0.1209536866551351, 0.11921874411475217, 0.11744250345104702, 0.11571088801437032, 0.11397666091626611, 0.11225456710323353, 0.11051557479351527, 0.10874023114876757, 0.10700733134597266, 0.10527405330480569, 0.10355360135176417, 0.10182084521051535, 0.10005791490673466, 0.09833630285970366, 0.09661744384656018, 0.09485159640589139, 0.09314767328814114, 0.09156385438294402, 0.08985206797262188, 0.08815221512393855, 0.08640323103095837, 0.08473562972651283, 0.08311225615932069, 0.08145948278147834, 0.07981949106334336, 0.07812449197909, 0.07652012802734251, 0.07499967924999734, 0.07340786648783534, 0.07183260711944653, 0.07028823630600507, 0.06874532984657888, 0.06722781713061415, 0.06572108068386709, 0.06423369661350406, 0.0627256693141795, 0.061282893538162755, 0.05980206062149214, 0.058402927156572686, 0.05701988324370323, 0.055741499288335036, 0.05438264814079678, 0.0529409538560932, 0.051643589509358045, 0.0503644465192921, 0.04922883475218508, 0.04797343769727299, 0.046677820106764724, 0.04548693352930848, 0.04431990072519528, 0.04325243373054846, 0.042124908244857075, 0.040972467997186936, 0.039910267410156734, 0.03887396521365795, 0.03798989584706388, 0.036990370686473636, 0.03597219575250178, 0.035046290063936614, 0.03414992807371105, 0.03323574393180457, 0.032404162181597855, 0.03160975876939653, 0.0308305684214965, 0.030079351637508692, 0.02947886488709082, 0.028768785001516865, 0.028118713709799945, 0.02747574786146411, 0.026868178879166912, 0.02633197587246126, 0.02578829736460041, 0.025274777675642422, 0.024801790187428587, 0.024362443892565425, 0.0239089382037215, 0.023541307187481552, 0.023327548690410867, 0.02300345036542969, 0.022716031151813223, 0.022464350841593515, 0.022247592688494737, 0.02200203598692883, 0.021861060664668162, 0.0217496208406372, 0.021653762449787388, 0.021603309371420507, 0.021678015800099783, 0.021673321113796953, 0.02170319773522968, 0.02173021995628043, 0.021831954819685154, 0.02203266654088629, 0.022187015244415288, 0.022375556431777587, 0.02267284374486238, 0.02291819175498327, 0.023068754256818296, 0.023402557181247036, 0.02376335509032017, 0.024224822694852034, 0.02463075942910053, 0.025132953708729436, 0.025593156650854907, 0.026087461724353767, 0.026551878616417775, 0.02711951715090501, 0.027778074821485248, 0.02839334041522099, 0.029039613659071144, 0.029780934815701366, 0.03047892789601931, 0.03124282846373603, 0.032000837744863085, 0.03279130924028448, 0.03363059887766358, 0.03448045562007697, 0.035269632818368826, 0.03619069907376922, 0.037135141737145445, 0.03808889816599458, 0.03908167013997685, 0.04010906149935732, 0.04114502575502068, 0.04220403023224814, 0.043420703795771114, 0.044508288855112585, 0.04554197454840297, 0.04669914522161779, 0.04787929488913545, 0.0490960595964306, 0.050319310105564924, 0.05165803284579813, 0.052914516831373416, 0.05419804486348567, 0.05550746935055965, 0.05684175255317826, 0.05820170581308303, 0.05958275668616181, 0.060986203989349216, 0.06244984138477259, 0.06389113565220074