0.034526508046551455, 0.033984474862118697, 0.033464415253929285, 0.033015789803134625, 0.032601190581006134, 0.0322023069662002, 0.03184296005998377, 0.031479095926736866, 0.031159973642150927, 0.030853863300244505, 0.030568249176518854, 0.030281368785220912, 0.030006901605776983, 0.029735692475308405, 0.029471378580310396, 0.02916217821408828, 0.028916385464357295, 0.02869409475898314, 0.02845130174101644, 0.028213019348158532, 0.027964371361548546, 0.027737925919916338, 0.027495343207041185, 0.02728150584545923, 0.027072383585952018, 0.026842251590475676, 0.026648271493190174, 0.026452276623194944, 0.02627133630324877, 0.026097405429554257, 0.025944670349051926, 0.0257858165683517, 0.02560136379611836, 0.0254685029700887, 0.025339637603243433, 0.025227746399975926, 0.025126940662553623, 0.025034246939119386, 0.024958471620273738, 0.024837117593826407, 0.02479570297958442, 0.02476541647465737, 0.02477002805259475, 0.024762150818851483, 0.024748676580506838, 0.02477448907274313, 0.02481548328735706, 0.024866630253884393, 0.02494060309642164, 0.024987658778066697, 0.025100958981913415, 0.025229475931489293, 0.02539862307231122, 0.025556757101029066, 0.025714695028679138, 0.025913089582843475, 0.02612989275167604, 0.02632391291688701, 0.026584184777836053, 0.02686940927874879, 0.027164179777947245, 0.02747809017054794, 0.027775670758729748, 0.02813391099229794, 0.028505006985307724, 0.02890172846800372, 0.029317979828090042, 0.02973164644970396, 0.03019161340677205, 0.03068287703666679, 0.031181922972914892, 0.03170277972914936, 0.03222506130833103, 0.032793481318154, 0.03344628676612971, 0.034051102704624234, 0.03468232340215957, 0.03529444072127087, 0.035984087074854613, 0.036714561138870255, 0.03745001513594399, 0.03821098425123572, 0.03897685895082208, 0.039792165263010784, 0.04064385802740276, 0.04150817099695825, 0.04239892168537114, 0.04333153342636494, 0.044274056542694465, 0.045210583961556645, 0.046213749307462346, 0.04724339298991558, 0.04831321248798368, 0.049395432543037465, 0.050481503733441326, 0.05162404808464095, 0.05279421095139435, 0.053979188230154865, 0.055207594200977525, 0.05643194928238283, 0.05772119320847857, 0.05903768914061662, 0.06044649251405261, 0.06181127254199718, 0.0631765212404255, 0.06461067173910359, 0.06607563363053763, 0.06754514812407197, 0.06907583292395239, 0.07065738127642163, 0.07224590281348207, 0.0738664001272315, 0.07551903131080685, 0.07720393779201958, 0.07892124514542531, 0.08067106380072223, 0.08245348965771748, 0.08425534709898035, 0.08610489560886327, 0.08797514885185034, 0.08989041928079665, 0.09183739138058783, 0.09379163345351349, 0.09580565538158062, 0.09787129699728278, 0.09994454804420663, 0.10205028249892706, 0.10417337037634997, 0.1063460275663087, 0.1085881899349412, 0.1108193864866904, 0.11308445111499686, 0.11536793572054595, 0.11770176970604825, 0.12006585851376736, 0.12246407250826226, 0.12489400301261208, 0.1273952569416994, 0.12988308166971008, 0.13236075808901845, 0.13492038985503096, 0.1375099666269296, 0.14015019732919234, 0.1427966337251813, 0.14545669685512308, 0.14816627368205, 0.15090484854703048, 0.15368545662388905, 0.15647966556244075, 0.15926690919440517, 0.16212332303360602, 0.16500596573318532, 0.16794124943394073, 0.17087264768125907, 0.17380671261253144, 0.17679536817992297, 0.17980906048353457, 0.1828589057044588, 0.18592046049548355, 0.1890087474903161, 0.19211931068946364, 0.19525394625240128, 0.19845574156569784, 0.2016315837180062, 0.20479082295561785, 0.2080212029538755, 0.21127262589186996, 0.2145029637343974, 0.21780033876968505, 0.22116990685006424, 0.22449469992819762, 0.22783943630958534, 0.2312242234205534, 0.23460404219582157, 0.23796114988387673, 0.24138327153007155, 0.24482028209907067, 0.2482678972609953, 0.2517336514241172, 0.25522009837942494, 0.2587105957481347, 0.26221354560812765, 0.2656752783425829, 0.2692079058744913, 0.2728048692901522, 0.2763450975308069, 0.2798954650741624, 0.28342673164040444, 0.2869984786609658, 0.29060279991722976, 0.2941827170314847, 0.29776896242225276, 0.3013209023892047, 0.3049222527533591, 0.3085080796405488, 0.3121140952189447, 0.3157195702713446, 0.31932592854356623, 0.32292862352461227, 0.326529331189918, 0.3301274322537622, 0.3337222727898434, 0.33731884936933215, 0.3409043666426813, 0.3444942745694681, 0.3480676295035585, 0.35163480820318044, 0.35518543034467087, 0.35873871984272704, 0.3622977155536913, 0.3658293598760179, 0.36935072115676454, 0.37282672903491276, 0.3763289029650582, 0.3798462663176145, 0.3833136975379328, 0.38676631949440465, 0.3901955764028146, 0.3936166059671324, 0.3970365314217761, 0.40041821230598074, 0.40378091121808873, 0.40704783996620963, 0.410379077807732, 0.4137219190125841, 0.41699544433508695, 0.4202440131937261, 0.42343274135647463, 0.42663331571445, 0.42979513800445607, 0.43293779647213404, 0.4360495039124963, 0.4391524390593675, 0.4421976849870627, 0.44522285658895605, 0.4482029513613609, 0.4511581403196138, 0.4540713776166542, 0.4569506958213509, 0.45975345215492125, 0.46256728960615046, 0.46534957077211964, 0.46808359850699777, 0.47077771905324445, 0.47338767768954115, 0.4760053980994313, 0.47860706405724207, 0.48113189777111376, 0.48361307934415493, 0.48603287898995035, 0.4884268510108247, 0.4907722480472974, 0.49307253552011193, 0.495324894257816, 0.4975306398151245, 0.49968515371739164, 0.5017976505536984, 0.5038513982773979, 0.5058547306069342, 0.5078012798604226, 0.5097024516559288, 0.5115679066754052, 0.513360790878876, 0.5151006602610099, 0.5167848912247899, 0.5184168081494547, 0.5199953885802276, 0.5215159694910595, 0.522980178295293, 0.5243930925087464, 0.525742050823373, 0.5270123842109367, 0.5282478166939272, 0.5294231646804304, 0.5305039862151173, 0.5315624284494187, 0.5325445829723484, 0.533478587310236, 0.5343486860096737, 0.5352173879392145, 0.5359517722010316, 0.536602977991147, 0.5372187684920949, 0.5377717502542441, 0.5382389065740464, 0.5386682959060092, 0.5390365810502408, 0.5393356618350525, 0.5395699703004405, 0.5397545807280417, 0.5398572040748638, 0.5398256201140227, 0.5398086648857844, 0.539723321287953, 0.5395927562235304, 0.5393690370113429, 0.5390812907908257, 0.5387256325725539, 0.5383044404968566, 0.5378367760850724, 0.5372824919504108, 0.5366167681369985, 0.5359402742494034, 0.5351970329924678, 0.5343988309510307, 0.5335219074885987, 0.5325668309853088, 0.5315620775192271, 0.5304922574577334, 0.5294051191526078, 0.5282003741478142, 0.5268927398420554, 0.5255708284167561, 0.5241854277046502, 0.5227331927097054, 0.521222624252602, 0.5196288611485691, 0.5179966925458632, 0.5163019751634361, 0.5145662091344873, 0.5127457479915815, 0.5108658727521138, 0.5089270541058617, 0.5069297799092181, 0.5048328891830922, 0.5027255061585637, 0.5005948838575927, 0.49836539790487605, 0.49608047389840054, 0.49371226649022637, 0.4913217696804823, 0.4889233413104895, 0.4864171522250123, 0.4838600403306364, 0.4812392081440572, 0.4785833510449488, 0.475860291625626, 0.4731069670663774, 0.4703039350983022, 0.46742744911414935, 0.4645307433454063, 0.46159695007049745, 0.45860299399554344, 0.4555633840229876, 0.4524715090277314, 0.4493444418940906, 0.44621017248406275, 0.4429932081791539, 0.43973712435246176, 0.43637825622609233, 0.4330542949926984, 0.42971640024600877, 0.4263095300552478, 0.42286634343209517, 0.41941630704951355, 0.4159000667864712, 0.41236931781205965, 0.4087886405045749, 0.4051790473237698, 0.4014693142502794, 0.39781326625680696, 0.39414745367545845, 0.39042901418258563, 0.3866839822744419, 0.38291544638572944, 0.3791205621523618, 0.3753557720877882, 0.37150946023559694, 0.36764548091583144, 0.36373992523568033, 0.35984590910824193, 0.3559483790007856, 0.3520201861819753, 0.3480780621648668, 0.3440737218966393, 0.3401128543866326, 0.33614390764013913, 0.33215621019709823, 0.32815785709173617, 0.324155828693705, 0.320139318086692, 0.316095464285468, 0.31206975492459316, 0.3080387273277979, 0.30401507367045344, 0.2999759258636444, 0.2959113664575562, 0.29187489671058625, 0.2878385322229774, 0.2838604063112637, 0.27982097737288775, 0.2757489066574774, 0.2717295224965949, 0.2677165733493204, 0.2637130782755176, 0.2597161160117298, 0.2557460595367725, 0.2517677185013878, 0.24780229095293252, 0.24383551524313593, 0.23990050285830877, 0.23594992819784574, 0.2320492451264864, 0.22816361946438726, 0.22434920364898342, 0.2204903884578584, 0.21666462883981852, 0.21284842071620777, 0.20905588003721634, 0.20523647228780317, 0.20149955996511593, 0.19776827087072213, 0.19407992241821753, 0.19041539081558462, 0.18679096157230274, 0.18317549883226844, 0.17962583325037432, 0.17606228649079922, 0.17253049323847514, 0.16902528249246546, 0.1655592598627894, 0.16211677035225164, 0.1587185372523462, 0.15535394808900604, 0.15199714735176598, 0.14870516325085664, 0.14543212024553892, 0.1422110663967739, 0.13902487177926023, 0.13593311760566065, 0.13281177363130445, 0.12968558264068708, 0.1266514485538583, 0.12365588181465485, 0.12073550643388223, 0.11781440583360879, 0.11494517082901198, 0.1121079092557357, 0.10927618903732847, 0.10653072981892628, 0.10382691997542405, 0.10120691825440153, 0.09858258167422636, 0.09594300242125062, 0.09341711260602643, 0.09093331093902345, 0.08847132720425605, 0.08607596893169334, 0.0837571447553519, 0.08144293534796021, 0.07917415994220994, 0.07700401685884434, 0.07481988538624998, 0.07262209757101161, 0.07054322614769219, 0.06850906316457561, 0.06650468652844321, 0.06456250288972604, 0.06271209206163463, 0.06085300499833047, 0.05904141740815007, 0.05726572186286609, 0.055549841528146654, 0.05388199272754575, 0.05225799942592958, 0.05067993912470924, 0.04919875674907212, 0.047705511639366836, 0.04624720222117938, 0.044851380531495726, 0.043501767567584955, 0.042184643817557266, 0.04092775307071369, 0.039697936200424055, 0.038531118108117206, 0.03740681337954224, 0.03629262547911309, 0.03525679250559877, 0.034291290738491124, 0.03333166504667147, 0.032413676125367524, 0.031531272214017844, 0.030696146898480596, 0.0299011748198609, 0.0291459778147987, 0.028430154982188705, 0.027779798714242125, 0.027138083320344016, 0.02653400745089884, 0.025970903569370363, 0.02544584565105361, 0.024935442153128255, 0.02448735963346099, 0.024034290002749883, 0.023660330679939324, 0.02331794892215486, 0.023031564105863475, 0.022748559165143813, 0.022490157101353565, 0.022271901654473434, 0.02208424697216457, 0.022002404097831333, 0.021864708693795774, 0.021680607952687853, 0.021618023704608223, 0.021581719711494144, 0.021592049066349914, 0.021604196955349708, 0.021687708726366592, 0.02174518783347514, 0.021829641085156216, 0.021956998909315458, 0.022089942318344512, 0.022177517697660878, 0.02236759724434521, 0.02257622168748713, 0.02279722404103749, 0.023042169485853116, 0.023301899576172614, 0.023579915792277712, 0.023873423436820234, 0.024181856442686254, 0.024504623296217665, 0.024831640099309615, 0.025182408934386655, 0.025545078995805198, 0.02594557331524975, 0.026326894518286893, 0.026765217441658343, 0.027163021199436248, 0.027573204629708973, 0.027949106104213948, 0.028386230298334737, 0.028852452850634033, 0.029298759681480845, 0.029751339029188622, 0.030254773867835677, 0.030711560242846037, 0.031151896579097962, 0.031622938849946894, 0.03209670351376998, 0.03257611273174479, 0.033052277556789494, 0.03358758395628114, 0.034056376755082225, 0.03452730695042247, 0.03501051440105494, 0.035480695561957785, 0.035944543833359086, 0.03641305696502176, 0.036878506951379744, 0.037370301940768284, 0.037823167101882514, 0.038239954731656284, 0.038688147183579644, 0.03912876127265507, 0.03964075901248445, 0.040054439112213736, 0.040461447006555726, 0.040864668216897104, 0.041260823569543685, 0.04169254220510439, 0.042066347468962234, 0.042429191152030706, 0.04278807330598567, 0.043137565761232385, 0.04348252786200255, 0.04381013840037379, 0.044181376552947946, 0.04447880928259374, 0.04476681443619983, 0.045086105848992974, 0.045347240957240166, 0.045623372844357586, 0.04586116179760896, 0.046088863295468734, 0.046360455460708314, 0.04655832673174446, 0.04672967740179214, 0.04690970996255583, 0.047077371790190205, 0.04732105252043946, 0.04745094691059312, 0.04758704350244602, 0.04769606472320084, 0.04779503365847974, 0.04787171903828239, 0.04794956577309553, 0.048025914125547006, 0.048076226506022834, 0.04811366384071103, 0.048194762019492285, 0.04819850854282008, 0.04820523809675654, 0.04818626104760947, 0.04815687739207456, 0.04811292332690935, 0.04806218798944603, 0.04809282821946356, 0.04800745890511141, 0.047915854134565825, 0.04779274506086965, 0.04768999269787297, 0.04763304927072956, 0.04750508899265723, 0.047371116092855034, 0.04725544165184144, 0.047105525110900166, 0.04693715114377365, 0.04677833951903436, 0.04661335514466351, 0.046461288740277586, 0.046282096804677444, 0.046172338874458714, 0.04597515938457493, 0.0457781902868547, 0.045577401145416876, 0.045380737164802065, 0.045181835117380845, 0.04498486987910274, 0.04478784129996998, 0.044632752697247265, 0.04443141144461944, 0.04423356246269692, 0.04403939931893615, 0.04384920723638481, 0.0436709289997808, 0.04348889538015622, 0.04331067611260848, 0.043140800163893815, 0.04297758805560844, 0.04279325810364711, 0.042648891074893336, 0.04249834370954507, 0.042370778607123634, 0.04225149034113773, 0.04216996662559533, 0.04206686236434124, 0.04200712677501653, 0.04192713283687609, 0.0418635417264172, 0.04180748067205666, 0.041779725574263515, 0.041839830600122155, 0.04183957230222772, 0.04178686966505227, 0.04184307795403171, 0.04191895788150447, 0.04206289090236783, 0.04217522016434399, 0.04227697179210035, 0.04244529547720251, 0.04263830754806408, 0.04286079025965491, 0.043105678141403606, 0.04340684303484198, 0.04370482243233437, 0.04403415642359822, 0.044382301050537094, 0.04477818576553101, 0.045165225924754485, 0.04563290668746752, 0.04613284124417477, 0.046696554154599654, 0.04726078802329904, 0.04783979116047197, 0.04848275187524823, 0.04916365065358582, 0.049862688988260476, 0.05062517401886534, 0.05147290372518875, 0.05231034521458322, 0.05319232916288273, 0.05405892161399019, 0.05503967519797305, 0.056101482088778125, 0.05716496971078724, 0.0582760466707457, 0.059397590513170846, 0.060610890863105546, 0.06191355093183112, 0.06321799171076747, 0.06457445737630813, 0.06598164308865041, 0.06744416277013755, 0.06895278397475614, 0.07052420933136264, 0.07215006568593493, 0.0737912182777695, 0.07553286121919689, 0.07733045817472962, 0.07918088692446046, 0.08108723479626552, 0.08306921973561474, 0.085087298764813, 0.08714182611074844, 0.08928161879687042, 0.09148026794998175, 0.09370620501089491, 0.09602847824068257, 0.09844553956236145, 0.1008816307670487, 0.10337999659628844, 0.10591256452654907, 0.10854005572088898, 0.11123105578932539, 0.11398202851754381, 0.11679565256189385, 0.11965715112014881, 0.1225990727914896, 0.12564924225121055, 0.1287113735130632, 0.13183953535239598, 0.1349995381391427, 0.1382637727198532, 0.1415539415623227, 0.14495075453493206, 0.14840954009846594, 0.15193257896565113, 0.1555161546732095, 0.15918358017550616, 0.16289071379267211, 0.1666622909862353, 0.17050008114033963, 0.1743999005201933, 0.17830698366875786, 0.18234191746193562, 0.18643725137744274, 0.19061588217434672, 0.19482956859939488, 0.19906731763419472, 0.20340943047542803, 0.20781082410660703, 0.21227147160924895, 0.21679126843689123, 0.22139087125526966, 0.22602573624118055, 0.23072019448175463, 0.2354642457353537, 0.24027746290958357, 0.24510449198123246, 0.2500374117176566, 0.2550241213175894, 0.26004351286480076, 0.26513953377055677, 0.2703003794765109, 0.2754975335675054, 0.2807462657168146, 0.28603462135728414, 0.2913861162292795, 0.2967506264255159, 0.302204011783046, 0.3077030019587492, 0.31326795002455804, 0.3188539904908102, 0.32448890493120974, 0.33016375724441505, 0.3358821007974595, 0.3415918018999713, 0.3474005659841496, 0.3533055692867513, 0.3591812821634478, 0.36509637331918354, 0.3709472654659123, 0.37695012110047377, 0.3830470709011422, 0.38910068053916147, 0.395186484167633, 0.4012293863986202, 0.4073851937815494, 0.41357853279859685, 0.4197804995909193, 0.42600596444743977, 0.4322861240281644, 0.4385514490648124, 0.4448369966543426, 0.45114535870436395, 0.457472844249481, 0.4638066393026951, 0.4701694424509129, 0.4765160339195814, 0.48290945092288345, 0.48931243614986336, 0.49574462354053445, 0.5021604647510031, 0.508496183769955, 0.5149355380523539, 0.5213739879357034, 0.5278485842269078, 0.5342778539129167, 0.5407036809584439, 0.5471286925491743, 0.5535492150209186, 0.5598975121493671, 0.5663130628249522, 0.5727614303157724, 0.5791449679263911, 0.5855163520945514, 0.5918664902290429, 0.5982099527894719, 0.604540011474175, 0.6108470995050743, 0.6171341637136488, 0.6233295485525179, 0.6295806738175787, 0.6358390566030155, 0.6420271355195634, 0.6481863479937079, 0.6543000713343312, 0.6603990310215407, 0.6664126623727488, 0.6724482986714645, 0.6784440373446139, 0.6844045173537517, 0.6903165442751796, 0.6961932393629499, 0.7020172210952476, 0.7077961357976588, 0.713471758229843, 0.7191634793474792, 0.7248367540801212, 0.7304180892880303, 0.7359467320610623, 0.7414099208060994, 0.746830406630139, 0.7522009037307652, 0.7575039638944038, 0.7627471921621081, 0.767857194083705, 0.7729855830671519, 0.7781177992006294, 0.7830999675780352, 0.7880162957989543, 0.7928311601249307, 0.7976155449048676, 0.8023390183858761, 0.8069762364353184, 0.8115394502180345, 0.8159686666437208, 0.8203874626581862, 0.8247232576693654, 0.8289793093384775, 0.8331525663667306, 0.837293333670994, 0.8412920126505535, 0.8451759931864372, 0.8490124258972342, 0.8527998391859468, 0.8564567079819912, 0.8600268529593885, 0.8635052175954713, 0.8668986369876657, 0.8701900965002268, 0.8734026653535061, 0.8765218524265953, 0.8795372672857561, 0.8824681545903399, 0.8853119229862486, 0.8880476791806413, 0.8906858855781435, 0.8932200702454793, 0.8956615575156353, 0.8980275244811026, 0.900264969633279, 0.9024023897725827, 0.9043916476855293, 0.9063326901847836, 0.9081745218954919, 0.9099048054822648, 0.9115300049693597, 0.9130289899124414, 0.9144457754697479, 0.9157478780563784, 0.9169513187986353, 0.9180470475793547, 0.9190539735589823, 0.9199317896624005, 0.9207104345417052, 0.921373616397703, 0.9219301370675417, 0.9223476086734331, 0.9226943395809587, 0.9229378161352564, 0.9230661295104087, 0.9230861750141021, 0.9230359681470621, 0.9228351145139867, 0.9224774406552638, 0.9220715674404978, 0.9215569649698009, 0.920960556701283, 0.9202263716894551, 0.9194126981107066, 0.9184633671408289, 0.9174099860249655, 0.9162071768857873, 0.9149517355250085, 0.9136242014091895, 0.9121527075376247, 0.9105782033217519, 0.9089218957108456, 0.9071399064916383, 0.9052516595799448, 0.9032695841154891, 0.9011873730066807, 0.8989487273137005, 0.8966750377129798, 0.8942826893569552, 0.8918090530789836, 0.8892350853035499, 0.8866150587414928, 0.8838374298327784, 0.8809414931264894, 0.8779803695061256, 0.874925753032177, 0.8717749061127901, 0.8685369499656547, 0.8652653069545738, 0.86184029017405, 0.8583302379112946, 0.8546733579188511, 0.85100333250799, 0.8472527834315492, 0.8434110445406598, 0.8394862481774074, 0.8354759737674138, 0.8313896504678269, 0.8272336515197248, 0.822989263258526, 0.8186691136708372, 0.814270776198529, 0.8098036850480435, 0.805232561829533, 0.8006273170851737, 0.7959513363761496, 0.7911798376809979, 0.7863709183375169, 0.7815328013621432, 0.7765868415252057, 0.7715796977109456, 0.7665166876644139, 0.7613912979138511, 0.7561849394712687, 0.7509515014099216, 0.7456634173701299, 0.7402978287890243, 0.7349088433624658, 0.7295050744827559, 0.7240119394647669, 0.7184738994101262, 0.7128849711092337, 0.7072628700930614, 0.7016097268031115, 0.6959070978048796, 0.6901678792593623, 0.6843880157521518, 0.6785812297815738, 0.6726894259756808, 0.6668270804657264, 0.660933198642297, 0.6550534882817095, 0.6490974200436103, 0.6430617438105123, 0.6370689442088661, 0.6310535032497816, 0.6250516472153659, 0.6189929690437346, 0.6128857306424605, 0.6068041459251369, 0.6007096184530293, 0.5946098175047678, 0.5884946103206166, 0.5823214939252237, 0.5762010418115894, 0.5700745942536108, 0.563980335973296, 0.5578438760761495, 0.5516852098633197, 0.5455584056015074, 0.539436041525763, 0.5333578702906677, 0.5272451783035618, 0.521104781267427, 0.5150227075524889, 0.5089533834137334, 0.5028948035501432, 0.49685676736723, 0.4908459745912142, 0.48484399540557177, 0.47886370001120837, 0.47294452980914237, 0.4670074798462554, 0.4610590918476574, 0.4551851352874617, 0.4493397905012353, 0.4434867265613997, 0.43770800877903643, 0.4319944253996346, 0.42627525328860294, 0.4205925110986955, 0.41492294815957564, 0.40932026768594443, 0.40375667969901646, 0.3982336857450975, 0.39275274056797255, 0.3873266180020237, 0.38193252204491523, 0.37657764246211556, 0.3712792857193151, 0.36602966422869543, 0.36082240842091445, 0.3556748003756312, 0.3506055366844544, 0.34555940441524186, 0.3405688899850425, 0.33558373769402994, 0.3307135554247478, 0.32591009400455995, 0.321150445949535, 0.31644924010774667, 0.3118075138751713, 0.30722625724599084, 0.3026969450619506, 0.29824061456845335, 0.29384692574355203, 0.2895300297117263, 0.2852625798816857, 0.28106294565477885, 0.27692774584226093, 0.27285983615933296, 0.26884084827256993, 0.2649115984679833, 0.2610634626996005, 0.2572688893740209, 0.2535441490955488, 0.24989157708587104, 0.24630755719086142, 0.2427322105977772, 0.2392987745949615, 0.2359336473928854, 0.23268874683246796, 0.22945602665776366, 0.22628330761341964, 0.2231988978710455, 0.22018721378753692, 0.21723328145738663, 0.2143694602179078, 0.21153248335288669, 0.20881919819626138, 0.20617599473353462, 0.20369802994818412, 0.20118430853446884, 0.19873573789935076, 0.19637593006758772, 0.19402273568032888, 0.19182071712966522, 0.1896888270283359, 0.18764992118779886, 0.1856557297513206, 0.18369713591068237, 0.18185040540893846, 0.18007269518615354, 0.17842457654748456, 0.17677707198756784, 0.17516001717929208, 0.17366129815298306, 0.1722309311893765, 0.1708458151603811, 0.16955386201573475, 0.1683182703101134, 0.16715886578505748, 0.16606408045320936, 0.16510174750454198, 0.16412647495736865, 0.1632127449670657, 0.16237157493110788, 0.16159520093495958, 0.16082203441526643, 0.16017997412965312, 0.15962478907686925, 0.15909558974403, 0.15862543260488357, 0.15820970800437698, 0.15785562630148536, 0.15760519054558578, 0.1573568619618821, 0.15716575332347368, 0.15696808291991401, 0.15689549595574684, 0.1568861064049998, 0.15691101023637852, 0.15698512601204256, 0.15709996923952904, 0.15727071372999363, 0.1575006977878355, 0.15776080720349892, 0.15806576728522184, 0.15843532495570747, 0.15882408148627394, 0.1592460941587815, 0.1597202118247278, 0.1602339589962508, 0.16077667425600484, 0.161367300851838, 0.16200291490961527, 0.16266225893952174, 0.1633553990069108, 0.16409626756918994, 0.16485142696770025, 0.16562810566215078, 0.16644509885653058, 0.167289881642099, 0.1681441717163099, 0.16904298068198864, 0.16997438932010778, 0.17091716873428742, 0.17188141039823146, 0.1728602365320386, 0.17386453114777353, 0.1748295579685641, 0.17587498170306806, 0.17693245087939985, 0.1780656495786811, 0.17913687908318035, 0.1801892679540657, 0.1812898914083456, 0.182399307741258, 0.18354105069852056, 0.1846616659414586, 0.18579484235852042, 0.1869271840646174, 0.1880641154787716, 0.1892308301858731, 0.19036964857216312, 0.19143300118598294, 0.19258454317907417, 0.19373103061004032, 0.19485845754064757, 0.19599423076272943, 0.19717299306210856, 0.19828527151112504, 0.1993907667310924, 0.20042955493747305, 0.20152529627710855, 0.20265285301893354, 0.20371490391525707, 0.2047645010868213, 0.20583085266436052, 0.20684844805386385, 0.20781987316680445, 0.2088123180028677, 0.20978648527634955, 0.21069789944722844, 0.2116382874724203, 0.21258934064130033, 0.2134780459157631, 0.21434416875391116, 0.21520390913676452, 0.21602019178662502, 0.2168104672497806, 0.21757783072053294, 0.218319145613627, 0.21901273119805917, 0.21970207169013214, 0.2203295480307813, 0.22096303595312647, 0.22156388048977443, 0.22216964832980693, 0.22269946036496924, 0.22318829131132284, 0.2236556115981127, 0.22408958569252213, 0.22449725704431941, 0.2248620031929067, 0.22518281975493865, 0.22547930925867973, 0.22573976761997153, 0.22596568730663663, 0.22615265795511252, 0.22633664604573553, 0.22644480061366315, 0.22651709900927766, 0.2264866654460899, 0.22649392435540988, 0.2264543269095091, 0.2263800600896206, 0.22626449153967865, 0.22614751176325465, 0.22594464887850454, 0.22569166207009964, 0.22541247628250105, 0.2250934486469751, 0.2247193475397479, 0.2243223323113133, 0.22392800802703275, 0.22344385206449077, 0.22292148961667846, 0.22236637344751065, 0.22176624609155077, 0.22105194444670326, 0.22038443802642088, 0.21967406697483186, 0.21897823300595695, 0.21817666998146165, 0.21732573250144155, 0.21644963436740688, 0.2155350269270814, 0.2145480378870981, 0.21356140183815486, 0.21256916207522827, 0.21149939125656053, 0.2103929570508033, 0.20922929752931949, 0.20805301281332647, 0.20683979337824576, 0.20559015997605287, 0.20430463799149198, 0.2030292129166936, 0.20166776736088127, 0.20021210010735865, 0.1987953018253812, 0.19734370665759282, 0.1959035653752338, 0.19437900364872407, 0.19276772472849846, 0.19119094134734627, 0.18958189360324668, 0.18801536682351755, 0.18633519404168175, 0.18462391917593554, 0.1828938915883001, 0.18113871907002976, 0.17933988961172123, 0.17753814838784335, 0.1756907785967199, 0.1738427840393558, 0.17197024746814563, 0.17006838868439975, 0.16815018437004473, 0.1661832894229061, 0.16422501596507685, 0.16224492839237126, 0.16025362091324363, 0.15823204778389732, 0.15617352882528662, 0.15411929486983295, 0.15204789223646134, 0.14997934279080138, 0.14787442592980887, 0.14578876110270783, 0.14365473393060257, 0.14151126695848545, 0.1393419025567529, 0.137183505343754, 0.13500520162252716, 0.13283196485335938, 0.13060950609637806, 0.1284273383839755, 0.12623709387874324, 0.12407409681334869, 0.12186704139225933, 0.11969715706784916, 0.11748069979850191, 0.11526553104427244, 0.11305973356693566, 0.11084774330214771, 0.10858417433392577, 0.10638636738148248, 0.10418995434018423, 0.10195621676148416, 0.09977075361297742, 0.09768222650321916, 0.09549056287729708, 0.09330897715174058, 0.09110379024987585, 0.08894794699814917, 0.08677889570991275, 0.08464575986120491, 0.08252245269632152, 0.08039857583584814, 0.0782992281942169, 0.07625354463973037, 0.07417389521797818, 0.07211048715501993, 0.07010933977072394, 0.06807437204722656, 0.0660277215938842, 0.06403807495644451, 0.062067628630876455, 0.060101803765897806, 0.058173396357734095, 0.056304841725535654, 0.054412269248583986, 0.0525433993811673, 0.050696689665861536, 0.04887654236977475, 0.04712277871021302, 0.04534722339711552, 0.04359958585006037, 0.041900808748967455, 0.04020674795890519, 0.03852519136215785, 0.03689244851460342, 0.03528847568518266, 0.033724929497476755, 0.03217795835340726, 0.030710569871723912, 0.029218301311510597, 0.027759651225769105, 0.026345869436043248, 0.02495273877784406, 0.02364293851293906, 0.022311711056815703, 0.021017290231355984, 0.019825612130616246, 0.018595454200777056, 0.017372816150998643, 0.01622550143215915, 0.015114895766561151, 0.014107112359760523, 0.013061082213736685, 0.012038088251500175, 0.011073827130539143, 0.01014769531013742, 0.009340912010117173, 0.008480143933398602, 0.007672954174943422, 0.006894461246419969, 0.006157503100424292, 0.005450127484076503, 0.00479601033539233, 0.004241918864131005, 0.0036587455917863705, 0.0031179805624521073, 0.0026436229585379235, 0.0021827934380606274, 0.0018380317201204211, 0.0014517087096168838, 0.0011106957993387613, 0.0008045292550193601, 0.0005524901764501234, 0.0003843128684738236, 0.0002108453214741512, 8.089272733366257e-05, 5.2435896292483275e-05, 0.0, 1.5203850215913482e-05, 4.878684470363221e-05, 0.0001268174733196355, 0.00025977852762167737, 0.0004227434782210541, 0.0006379606180722914, 0.0008846322758160088, 0.0011733845473247252, 0.0015661453909230933, 0.0019295171650749764, 0.00231993261731671, 0.002772759100067364, 0.0032670698837850907, 0.0038686150664762552, 0.004435967178054355, 0.005039524494954109, 0.005694496711145674, 0.0063911320600622415, 0.0071628824482801775, 0.007936691345209452, 0.008729644997938766, 0.009589351252498001, 0.010488294807030535, 0.011456392381923804, 0.01242885909058326, 0.013482880572800155, 0.014529323402453477, 0.0156169802757509, 0.016781065710872723, 0.017944370874086873, 0.019156406199688787, 0.020400215857406746, 0.02168400188769362, 0.022991874584374964, 0.024355391444228835, 0.025750360063007252, 0.027188450397439553, 0.02866256811222476, 0.030204611777480492, 0.0317458399381676, 0.03333732518720088, 0.03495037257112962, 0.03660020005360683, 0.038310900866438596, 0.04002963901638829, 0.04178319692299194, 0.04357500087547833, 0.04540226660056815, 0.047247469397715694, 0.049146418097753934, 0.05105014690445972, 0.05301883551199869, 0.055018670295860994, 0.05704777694833497, 0.05911018211347771, 0.061252868702505, 0.06337110482038145, 0.06552308271272955, 0.06768751769446543, 0.06990829308008063, 0.07216417402185625, 0.0744469150638229, 0.07676080922074226, 0.07909049233261724, 0.08146797767285768, 0.08389408869826953, 0.08632848207311654, 0.08879347537477095, 0.09129451104092647, 0.09381927988598822, 0.0963894364930013, 0.09897251148889459, 0.10158618727469061, 0.10419981885332946, 0.10687752985302634, 0.10959266789946605, 0.11232507700384715, 0.11508592814320001, 0.11786753518661731, 0.12068590059281233, 0.12353764430033548, 0.12641064590334167, 0.12931158230058776, 0.1322365749535624, 0.13519359135107634, 0.1381667050746508, 0.14118003072180466, 0.14422008095895658, 0.14731341341014204, 0.15040367799192858, 0.1535014205916163, 0.15665074467808496, 0.15982683693210165, 0.16301644916112837, 0.16624777839067495, 0.1694956802395678, 0.17278039871172843, 0.17609082801749476, 0.1793797755987148, 0.1827480589689064, 0.18615874128411938, 0.1895720293157108, 0.19301073806858784, 0.19646939638293226, 0.19996026620248622, 0.20346920562069626, 0.20701249842611205, 0.21058133362663758, 0.21416074474955368, 0.21778310685546368, 0.22148366395193647, 0.22514988251299564, 0.228825731409421, 0.23255122432678893, 0.23630373104247201, 0.24003395225811863, 0.24384654414253001, 0.24766996648205444, 0.2515327581853667, 0.25541954287854196, 0.25935530793839345, 0.263288014002006, 0.26727166838389615, 0.27125394789650975, 0.2752639885847554, 0.27923720884540665, 0.2833103646599812, 0.287443132646517, 0.2915593651810461, 0.2957019348933228, 0.2998499904122849, 0.3040478068581347, 0.30823473113956007, 0.31248741156505616, 0.3167633969128266, 0.32105926700841936, 0.32538338612129175, 0.3296917593001119, 0.33406919955701697, 0.33846886556276556, 0.34291016520721385, 0.34735321526029206, 0.3518396705825154, 0.35632936026796386, 0.3608447442112486, 0.36540463722404526, 0.3699686287094359, 0.3745343452440504, 0.3791538298123719, 0.38379766343044, 0.3884165065196582, 0.39311495384127626, 0.3978630503829176, 0.4026006343502506, 0.40736148522184124, 0.412088682950795, 0.41690291995095263, 0.421736855607236, 0.42659077488178077, 0.4314648859926821, 0.4363384939525236, 0.4412559735816647, 0.4462002801580263, 0.4511554347457735, 0.45613045709828254, 0.46111960249215517, 0.4661348400550507, 0.47116929243201217, 0.47622280545978696, 0.4812951813782064, 0.4863710311615009, 0.4914822992556381, 0.4965653063255822, 0.5017164911739916, 0.5068818409470564, 0.5120557385385505, 0.5172502483434391, 0.5224623467338615, 0.527683864123206, 0.5329190971819231, 0.5381696650710143, 0.5434312134050464, 0.5487056071628716, 0.5539924130110537, 0.5592911599101886, 0.5645615698151899, 0.569887679090974, 0.5752067365182679, 0.5805506868195535, 0.5859012741227955, 0.5912430713930621, 0.5966079526032636, 0.6019586536311425, 0.6073351047291372, 0.6127144988348963, 0.6180946227276007, 0.6234791098246597, 0.628884198134519, 0.6342691067705217, 0.6396556673348852, 0.6449787166635431, 0.6503743853008321, 0.6557353968433807, 0.6611258574550976, 0.6665095150423828, 0.6719107387950837, 0.67727682071041, 0.6826629474887201, 0.6880120123746012, 0.6933545969917203, 0.6986385336308788, 0.7039715143791168, 0.7092465556778416, 0.7145596549093505, 0.7198563402611501, 0.7251702930026926, 0.7304285169000927, 0.735668842064133, 0.7408943545191121, 0.7461018380668658, 0.7512429517697045, 0.7564173558127845, 0.7615945237383618, 0.7667173805897594, 0.7718165212609365, 0.7768587141414989, 0.7819113604903261, 0.7868898432313468, 0.7918899662191873, 0.7968570735788493, 0.8017905808287518, 0.8066898169387876, 0.8115805484086763, 0.8164055752300382, 0.821195373924255, 0.8258938739207192, 0.8306166988393109, 0.835333695294994, 0.8399675827150469, 0.844560085673237, 0.8491289648603022, 0.8536327515629637, 0.8580396030494161, 0.8624609109672046, 0.8668326008537838, 0.8712105636145107, 0.8754730106652681, 0.8796842327885568, 0.8838467633274095, 0.8879568982840484, 0.8919942775869834, 0.8959977787232947, 0.8998868153701514, 0.9037810104511631, 0.9076119799794075, 0.9114130817984257, 0.9151110397598401, 0.9187642778460845, 0.9223313802379062, 0.9258336014847034, 0.9292658613815392, 0.9326349448178857, 0.9359180795391739, 0.9391503161065639, 0.9423103197989594, 0.9453894920709289, 0.9484029201875802, 0.951365247108893, 0.9542231635630101, 0.9570048296056689, 0.9596882588726712, 0.9623166257373885, 0.9648528305187213, 0.9673201309139998, 0.969704187414241, 0.9720193478227426, 0.9742325867420497, 0.9763155597690416, 0.9783639947004533, 0.9803232302064083, 0.9822154691644992, 0.983991834213461, 0.9856653741376195, 0.9872635118405686, 0.9887698123818857, 0.9902290923355044, 0.9915440598492222, 0.9927394263491967, 0.9938746110496051, 0.9949150826697325, 0.9958374585268809, 0.9966894326121004, 0.9975079111881441, 0.9981555607416241, 0.9987081276068376, 0.9991362873995603, 0.9994996061871574, 0.9997731827386368, 0.9999363977424427, 1.0, 0.9999464514223334, 0.9998115473851533, 0.999563357930111, 0.9992258149376719, 0.9987852706939904, 0.9982264787354478, 0.9975815752702977, 0.9968647719353892, 0.9960076749095573, 0.9950484323790074, 0.9940114863531361, 0.9928443437326588, 0.9915400382371873, 0.9901748333596331, 0.9887059835108304, 0.9870995564806225, 0.9854282247434132, 0.983667029542515, 0.9817842546978839, 0.9797604325706049, 0.9776764763198421, 0.9754879731107869, 0.9732543359440714, 0.9708513994705439, 0.9683435791516461, 0.9657431428161725, 0.9630436109894284, 0.9601866091428026, 0.9572973659766318, 0.9543239223119724, 0.9512309725923346, 0.9480395977042584, 0.9447960271396596, 0.9414043906189232, 0.9378662083581523, 0.9342946923779863, 0.9306276406315432, 0.9268660475231757, 0.923010911232284, 0.9190840697544063, 0.9150422366018011, 0.9109110737883268, 0.906687665137567, 0.9023809731691913, 0.8979666289779099, 0.893489942440895, 0.8889273174801676, 0.8842421142084977, 0.879516127369566, 0.8747115050141078, 0.8698177425538879, 0.864843113042348, 0.859779636713377, 0.854648931627461, 0.8494829423924137, 0.8441946191105614, 0.8388347776166155, 0.8333383335417194, 0.8278474856363469, 0.8223286862785761, 0.8166911577842595, 0.8109882330280312, 0.8052137812125073, 0.7993853794312509, 0.7934936657462165, 0.7875442418458503, 0.7815364574432924, 0.7755079173390934, 0.7693837368157667, 0.7631626643773002, 0.7569427299748769, 0.7506716063554552, 0.7443208283116707, 0.7379566690852098, 0.7316114173603179, 0.7251461979610818, 0.7186414527503185, 0.712064587196278, 0.7054896345004174, 0.6989100606198342, 0.6922592973989435, 0.6855773174402886, 0.6787937928760566, 0.672063437477823, 0.6653028504037231, 0.6585143455566261, 0.6517001908253223, 0.6448342035825708, 0.6379789822214023, 0.6311409647370165, 0.6242419571498298, 0.617329049468692, 0.6103852437937758, 0.6034527467043208, 0.5965338147021901, 0.58958219177194, 0.5826268008390734, 0.5756259227201536, 0.5686740283442664, 0.5617347060555345, 0.554781958488655, 0.5478336133927448, 0.5408897799293588, 0.5339564645396037, 0.5270561114019262, 0.5201423436523793, 0.5132439666658869, 0.5063740699968611, 0.4995102188485703, 0.492616445996839, 0.48580312850351176, 0.47901144446741645, 0.4722605072032863, 0.4655160929982366, 0.4587908683841049, 0.4521067713163557, 0.4454543832449274, 0.43884879639137553, 0.4322636237921878, 0.4256746515346072, 0.4191721199776163, 0.41270838060037196, 0.4063062102946724, 0.3999231943681021, 0.3935839066133543, 0.38729398656882325, 0.38105277866687537, 0.3748258698177813, 0.3686913210543656, 0.362653545578177, 0.35661766110327253, 0.3506391288800142, 0.3446643077346646, 0.3388112601748274, 0.3329840949643781, 0.32725295857305187, 0.32158138662862723, 0.31602799810448085, 0.3104736784700202, 0.30498912739429623, 0.2995713924821102, 0.2942237666341941, 0.2889055990141369, 0.28370648483619465, 0.2785875927540561, 0.27353006993383205, 0.26854633299894326, 0.2636298860212432, 0.2587978680574372, 0.2540782865723117, 0.2493956184041646, 0.2447933606334907, 0.24027401040565888, 0.2358341305901821, 0.2314860057837396, 0.22721004279319854, 0.2230179669779846, 0.21884581734063852, 0.21483094449733292, 0.21089192606489698, 0.20704175440122616, 0.2032745387806182, 0.19964221148704603, 0.19603675186440825, 0.19246624303859836, 0.18904360915200524, 0.18570628140101014, 0.18250783952843758, 0.17933599536455128, 0.17623114018746228, 0.17324151693916878, 0.17034015457474885, 0.16751008317722793, 0.1647875868321087, 0.162144933945882, 0.159598335231974, 0.15713887981633856, 0.1548007154550925, 0.1525113500993986, 0.15032051231785093, 0.14820768347454122, 0.14618366324986568, 0.14425364052266504, 0.14240503054263617, 0.1405663864016916, 0.13890225325436278, 0.13732021888323737, 0.13589227877818844, 0.1344653293825039, 0.1331319029387891, 0.13187508007145196, 0.13070300589254977, 0.12955798214849315, 0.1285599472682771, 0.1276502959971134, 0.12680845810179578, 0.12604513363963285, 0.12535400521632017, 0.12474647076323109, 0.12420750526073676, 0.12375248915732513, 0.1233716869508978, 0.12307948861570475, 0.1228428633441678, 0.1227015955344372, 0.12260633028093111, 0.122582889175081, 0.12259402372747223, 0.12271498590634904, 0.12294361659213637, 0.12319032677179262, 0.12350335881784562, 0.12384721652584042, 0.12429298996047165, 0.12483305603144687, 0.12539379809337012, 0.1260143707074919, 0.12668005003617036, 0.1274175642551181, 0.12819272903413598, 0.1290404360711349, 0.1299467359628988, 0.1308942749613855, 0.1318907371985411, 0.13295559240019655, 0.13404315819661963, 0.13514826300647864, 0.13632973377503108, 0.13755239810460648, 0.13882059357392867, 0.14012086953686947, 0.1414415085463904, 0.14281729912655916, 0.14422661381566756, 0.14569651645651518, 0.14716522476984203, 0.14863463396357302, 0.15016753358293747, 0.15172644997757384, 0.15332704166522007, 0.15493165384635824, 0.156576060705855, 0.15822243438724254, 0.15988935274966762, 0.16154669394163682, 0.16325317565616615, 0.16499436366079584, 0.16672453254213343, 0.16846688374201463, 0.17018571600637458, 0.1719519250773984, 0.17370467581119167, 0.175482947916216, 0.1772630311861233, 0.17909109607008122, 0.18086524968603923, 0.18260615594259874, 0.18438466549209995, 0.18615885122976597, 0.1879255077578404, 0.18968734360016457, 0.19151276504447015, 0.19324742424775732, 0.19497511815042268, 0.19664092867708152, 0.1983558077630581, 0.2000553015955553, 0.2017381592859268, 0.20340313857381193, 0.20503574969807742, 0.20666296287610544, 0.20824327072211588, 0.2098279398715275, 0.21138676734581677, 0.21296621583830813, 0.21446469842493748, 0.2159031983631397, 0.21735289872634256, 0.21877221758839346, 0.22021512511203292, 0.2215638804692995, 0.22286734192702373, 0.2241563553674532, 0.22541169738454536, 0.2265943684445359, 0.22778383873918498, 0.22898541799815064, 0.2300896826669951, 0.2311564215096057, 0.2321315168842994, 0.23312670521286744, 0.23406125799018668, 0.234970928913516, 0.2358350671566398, 0.2366495295945716, 0.23742200277555603, 0.23818550926265983, 0.23885915198409938, 0.23948736913794166, 0.2400562423674887, 0.24059334213931302, 0.24111081840126464, 0.24154782581218445, 0.24193754934383732, 0.24229074017045407, 0.24258267725979296, 0.24282440079108705, 0.24301939395483854, 0.2431649336229349, 0.24324735191452604, 0.24329448295692466, 0.24328466113284397, 0.24322981778746006, 0.24312311701141123, 0.24292096040895236, 0.2427159650602402, 0.24247936112714558, 0.24216321357269446, 0.24179477491229232, 0.2413818023934923, 0.2409083827251935, 0.24040830751762496, 0.23982938974500723, 0.23920093920421004, 0.23850782663172196, 0.2377823435282391, 0.23699533035690423, 0.2361712406139374, 0.2352969550260212, 0.23433692784537963, 0.2333681338444281, 0.2323447044655526, 0.23127547480322758, 0.23015672854495708, 0.22900060925031934, 0.22778371931255334, 0.2265638134353743, 0.2252489216726879, 0.22389122278489945, 0.222492936074032, 0.221050413830345, 0.21954738725765477, 0.218024593400796, 0.21646014680213727, 0.21487748294380854, 0.2132290057664956, 0.21152340673028722, 0.20980155311702675, 0.20804168649437949, 0.2061840330986073, 0.2043583185897817, 0.2025524553959381, 0.20064297263615244, 0.19870063371222066, 0.1966997476444683, 0.1946975467315379, 0.1926578679552108, 0.19059390373424004, 0.18850004080955848, 0.18637742726588283, 0.18422720331623008, 0.1820902754169841, 0.17988319915271725, 0.1776541336074254, 0.1754000946965943, 0.17312997905772604, 0.17078715440819583, 0.16848532509312683, 0.16616274487158464, 0.16385491859383264, 0.1614907368928453, 0.15912891311731125, 0.15673425550068013, 0.15432798619909535, 0.15191104320602797, 0.149484390503499, 0.14704901544586993, 0.14460592629067165, 0.14215614986770206, 0.1397101990340479, 0.13724899476434888, 0.13474692679363642, 0.13228554559731762, 0.1298210796813075, 0.1273472952352676, 0.12488161851564421, 0.12236335417827378, 0.11990659876462163, 0.11744994374137244, 0.1150386507559772, 0.11258171412610798, 0.11014166663350529, 0.1076995059696033, 0.10526754761791611, 0.10283924036097129, 0.10043171151506057, 0.09807868001428578, 0.09569260990083034, 0.09332382409966684, 0.09088590208347569, 0.0885648271468694, 0.08631514110983139, 0.08401749296545198, 0.08174047035084539, 0.07946411459152615, 0.07723359609807331, 0.07504597576968712, 0.07285797795082943, 0.0706952353647569, 0.06860210966275371, 0.06648676821723411, 0.06443181545224212, 0.062373245371416905, 0.060347358634870896, 0.05832221011364038, 0.0563665705424098, 0.05450143077460808, 0.05260259703100463, 0.05074015471540354, 0.048863150726176224, 0.04708056103972072, 0.04539848770064592, 0.04367671192189846, 0.04199434255424801, 0.04032692733225009, 0.03872703670151691, 0.03721883931604347, 0.03569005529188763, 0.03423039763196796, 0.03278354348748439, 0.031380956849867234, 0.03007749819256017, 0.028756372642436898, 0.027492049726012782, 0.02626404424408672, 0.02508329697445446, 0.02392303798874064, 0.02283947183303101, 0.02187688827538434, 0.020874352143997042, 0.01992162888793481, 0.019037242209130553, 0.018180588939163043, 0.017400324565873444, 0.016639721029440505, 0.01592986019320499, 0.0152968314993286, 0.014683904932090656, 0.014182760809541556, 0.013664087504498252, 0.013199191012397372, 0.012791071025945741, 0.012430997968136945, 0.012228934724477704