0.05084459084028924, 0.05043615313809266, 0.050041608159107166, 0.0496942444061282, 0.04935938265077424, 0.04905434936884405, 0.04876482380768426, 0.04852561210043874, 0.04825563594684243, 0.04789531821682605, 0.04765948271674358, 0.04742626519957777, 0.04719853578246168, 0.04696918250887892, 0.046722502667072154, 0.04649968324983779, 0.046277809478731835, 0.04606359850816563, 0.04584359397353632, 0.04562900106003984, 0.04541324572198181, 0.04520047813475619, 0.045044362774964285, 0.044831810078323986, 0.044519569541719865, 0.044334435539501726, 0.04415023900755007, 0.04409073033983272, 0.04389551385870514, 0.04359425996910317, 0.0434341858404222, 0.043277463507359434, 0.04311842675992449, 0.04297156146533513, 0.042915571680919425, 0.04276895874283363, 0.04263365524349687, 0.042430335986923494, 0.04232734605513236, 0.04225521897220013, 0.04216301459544282, 0.04207997249171064, 0.042041978218720556, 0.041973716354485505, 0.04178659561229711, 0.04175901987699468, 0.041736159482742737, 0.04180799530190196, 0.04178644007881844, 0.04175485880424861, 0.04176142702458183, 0.04177944296035873, 0.04178652422363769, 0.041831024103136646, 0.0419041792621161, 0.041968566937717944, 0.04204556867837669, 0.04208849037045592, 0.042197188131502764, 0.04237620490897042, 0.04249890302841946, 0.04252173306856687, 0.04268870701928637, 0.04286409072919022, 0.0431538798409021, 0.043335481676611186, 0.04348701321028615, 0.04370797726723187, 0.04394279702465486, 0.04418689132281672, 0.0444508244869812, 0.04472425165980397, 0.04501775138087312, 0.04532584134406242, 0.04559869056536758, 0.045943117770242854, 0.04627586805231942, 0.04664914096071782, 0.047034843445078155, 0.04742076476106774, 0.04783505123110411, 0.04826137701220024, 0.048703807900210706, 0.04916099582903287, 0.04962376041983779, 0.0501131900669065, 0.05068450700075274, 0.05119723606082513, 0.051730156638694604, 0.052215209709620625, 0.05279662144002386, 0.05335681609682694, 0.05397530833757623, 0.054608544574903016, 0.05529760587683132, 0.055957156689776556, 0.05655146024401251, 0.05725939990450697, 0.057981706995905394, 0.058720793007282356, 0.0594739210761664, 0.06030181004064838, 0.061081243784358974, 0.06188149649538135, 0.06268471803690966, 0.06352865333080673, 0.06443100928227993, 0.06530937769397734, 0.06620970839900772, 0.06712690103763619, 0.06807104441956531, 0.06895861668332517, 0.06995447058570761, 0.07096673086121161, 0.07208158505074261, 0.07311730812066458, 0.07412549291530628, 0.07521234303734163, 0.07631828497088812, 0.07742242424652453, 0.07856954336449541, 0.07977204867223812, 0.0809511115583647, 0.08215088811327564, 0.08336153652413213, 0.08460354231134905, 0.08586206919671725, 0.08714393856230299, 0.08844526656960532, 0.08966902392366809, 0.09102139328327079, 0.09238115150006485, 0.09376275147489649, 0.09515914329919883, 0.09662098716308075, 0.0980421825548418, 0.09946134179000332, 0.10092303627373642, 0.10240228144389783, 0.10388454411967751, 0.10540073568540853, 0.10691904471968712, 0.10847043178677747, 0.11003767415663296, 0.11162082997961334, 0.11321990661703304, 0.11482516668144062, 0.11645715332384363, 0.11810427893669824, 0.11987638742572965, 0.12153962960309103, 0.12311877040044465, 0.12483616513997685, 0.12656657588639067, 0.1282937669067726, 0.1300519994344739, 0.13181716044275657, 0.13359950981484267, 0.13539321415306274, 0.1373048567434223, 0.1391074323246613, 0.14084447963323019, 0.1426902222304834, 0.14454616821048694, 0.14644275626564696, 0.14831438228313398, 0.1502390769925629, 0.15212688971797747, 0.15402695263199281, 0.155962618776341, 0.15788148797847684, 0.1597904255866713, 0.16173316927215123, 0.1636839836097099, 0.16566807018929294, 0.16762979901078337, 0.16956358363113105, 0.17154424787328273, 0.17352898540534203, 0.17557556042326247, 0.1775598018227776, 0.17946118891719345, 0.18146786895559963, 0.18347385821512324, 0.18554211154775824, 0.18753844223855085, 0.18945316900533207, 0.1914643069734196, 0.1934717585064293, 0.19551755177510227, 0.19751225384318757, 0.19950059272571144, 0.20149236583912822, 0.20348131694394675, 0.2054718058337648, 0.20745301970457244, 0.2095174698482947, 0.21147898365076206, 0.21344022081471473, 0.2153320218399075, 0.21729756707250975, 0.2193249692763085, 0.22126592984910404, 0.22320214282141534, 0.22503070475638265, 0.22696715959298122, 0.2289871193477529, 0.2308842695750914, 0.232773168924646, 0.23459789387092983, 0.23647439776665727, 0.23827862730211788, 0.24013393756772153, 0.2419711074246587, 0.24389201791580992, 0.24568009218281256, 0.2473716069525292, 0.24914432642315015, 0.2508979236883621, 0.2526321906255066, 0.25434687425285124, 0.25614028474163947, 0.25780241982043534, 0.2594495235299007, 0.2610610181861931, 0.26267704478693066, 0.2643011058211013, 0.26587394685098914, 0.2674272804899897, 0.2689617528635746, 0.27047301519688766, 0.2718974631659228, 0.2733717652533164, 0.27481868304472545, 0.276239617533147, 0.2776308892629385, 0.27899414371692194, 0.2803290806415165, 0.28163538270437766, 0.28297252634400377, 0.2842129878707815, 0.28542390641343274, 0.2866113121498574, 0.2877705904504449, 0.288815352547484, 0.28992709795550536, 0.29098932871914485, 0.2920330654523187, 0.293041135953466, 0.2940589018148026, 0.29499016400879846, 0.2958609607467949, 0.29672931240597406, 0.2975623160563907, 0.29844061560466173, 0.29919214986147513, 0.2998524740563177, 0.3005478913626383, 0.30120686921001316, 0.3017903531385099, 0.3023805783057381, 0.30302678043462583, 0.3035262178899708, 0.30396259886705734, 0.30439702148500974, 0.3047943752967219, 0.30516557156717294, 0.3054861767099052, 0.30576276268195407, 0.3060086727415825, 0.30621589301290936, 0.3064100067748098, 0.306535765168041, 0.30661544423633064, 0.3066658209463604, 0.3066769777849396, 0.30657269285474525, 0.30651430349340186, 0.30642633287036924, 0.30627830395763533, 0.30608783156313524, 0.30594730553344157, 0.3056610321708877, 0.3052266473050991, 0.3048807797124387, 0.3044910694199035, 0.304119447692793, 0.30363576092244926, 0.3030581132815047, 0.30250327002474564, 0.30190616953515725, 0.3013496545144123, 0.3006588031901095, 0.29992338041587036, 0.2991602512753264, 0.29835960528978184, 0.29749868792683004, 0.29662554754618825, 0.295634190372384, 0.29469324209330716, 0.29370925446580787, 0.2927235101310868, 0.29165088678845086, 0.29061590098594997, 0.2894573834397531, 0.2882655581340231, 0.28694482605364896, 0.28569783522252457, 0.28448446525522847, 0.2831507921787027, 0.28178355475449146, 0.2803602279684239, 0.2789290861174625, 0.27748457788827063, 0.27598243814175366, 0.27444795203483424, 0.2728943326861841, 0.27129439944306105, 0.269658946442157, 0.26799856408237943, 0.2663078385454842, 0.2645952509384017, 0.2628440451242176, 0.2609591689304456, 0.2591644658174525, 0.25733613873999217, 0.25556442003545066, 0.25366151052534064, 0.2517288777343772, 0.24977723952703604, 0.24780130144200782, 0.2457692453558236, 0.24375035203662673, 0.24173927777892365, 0.23966811665649218, 0.23757592689677615, 0.2353581964491826, 0.23323892807425228, 0.23120277488117963, 0.22902090567138608, 0.22682277386117575, 0.22453607163921316, 0.2223159472715314, 0.220091435882125, 0.21783272584551755, 0.21555810225093208, 0.21327657353469956, 0.2109718601468671, 0.20859298450024805, 0.20627137247948582, 0.2039351896535503, 0.20166170262285604, 0.1992905885955854, 0.19689508035609152, 0.1945134966956726, 0.19212534902160067, 0.18968446883708573, 0.18729125258475263, 0.18488290542707322, 0.18247771877437294, 0.18006719884902986, 0.17773487646165403, 0.17530650175051093, 0.17277712495314881, 0.17036704967133237, 0.16795430741935086, 0.1655773254005185, 0.16315823467700336, 0.16076153164660126, 0.1583467542797485, 0.15593761873111872, 0.15356383595748577, 0.1511641631888223, 0.14875910016478805, 0.14637999895386272, 0.14401011048909496, 0.14158861553868732, 0.1392467516864137, 0.1368963502350423, 0.1345729230512272, 0.13225844161353836, 0.12997670493433222, 0.12768069958331127, 0.12542248696581615, 0.12315132858022507, 0.12089669433096974, 0.11869957514307793, 0.11647462259074033, 0.1141683749147427, 0.11199764240556681, 0.10984230021677148, 0.10770188801642157, 0.10558092822099531, 0.10346721391789164, 0.10138577847885535, 0.0993241563393623, 0.09728006798156946, 0.09526128126083838, 0.09326481110420771, 0.0912914705585071, 0.0893420224490615, 0.0874187997339788, 0.08551903888522366, 0.08370994363767058, 0.08185460809501073, 0.08003004701934609, 0.07815705802007997, 0.07640410737902477, 0.07476650595387346, 0.073055940227673, 0.0713782267012277, 0.06969610336407073, 0.06808858525874101, 0.06648260475816867, 0.06494035662074757, 0.06342774635932208, 0.06203744757888726, 0.06057403154350123, 0.059132366070944554, 0.057743068178694894, 0.05638867364240854, 0.05503837743470672, 0.053757424845440493, 0.052469047324486116, 0.05125940582775534, 0.050080926567728334, 0.04892766825819186, 0.04781384842422188, 0.04675809980728131, 0.045705844292354615, 0.04468803180128139, 0.0436352626463041, 0.04269542588212167, 0.04178800693211168, 0.04091017172745283, 0.04006434511582641, 0.039244478683457394, 0.03846466397625704, 0.03782583026844797, 0.037097942471410385, 0.036409271474343426, 0.03571059138079542, 0.0351043410264797, 0.034482431742398824, 0.033951217138713394, 0.033451224709949316, 0.03300364334727368, 0.03256390048323008, 0.032137502396446936, 0.03176552695333673, 0.03142483709107835, 0.031118595561843886, 0.030839812345168034, 0.030689140001265436, 0.030460120319212556, 0.030267191675149813, 0.03004624878710678, 0.029930350001494486, 0.02986340824041235, 0.029803802790600617, 0.02977408361096246, 0.029749444654410418, 0.029780890332176905, 0.029945881535084484, 0.03001720377068177, 0.030101243721136473, 0.03023799130395049, 0.030403336145609607, 0.030536529856688494, 0.030763859705324813, 0.031094571292945326, 0.03135646900300624, 0.031644770468084414, 0.0320360300272842, 0.03236427970598801, 0.03272842672128689, 0.033109775937908856, 0.03351649226238006, 0.03386478250889309, 0.034328692982907874, 0.034807952412456405, 0.0353055727027482, 0.0358192035048166, 0.03647772107936396, 0.03700568892479581, 0.03753131404087581, 0.03810463151964969, 0.0386955585874518, 0.03929974974068949, 0.039923033701785265, 0.04055898409365025, 0.04121012923518633, 0.041873690923262055, 0.04267978479969631, 0.04334920627393977, 0.044032799006401335, 0.04473565023509476, 0.04545230046515951, 0.04621360362439605, 0.04694945735915123, 0.04763218318349554, 0.04839785448168502, 0.04916870756054789, 0.050053981668892085, 0.05081929069456225, 0.051524484329795624, 0.052315873700937286, 0.05310989724567488, 0.05401739645954582, 0.05480053827604206, 0.05559058593969698, 0.05638603419156458, 0.05718551028307276, 0.05794249976884414, 0.05875209865270793, 0.059653485207337924, 0.06044669424264684, 0.061242022970264785, 0.06198321356732267, 0.06278595189129772, 0.06366499167862306, 0.06444792946199869, 0.06522983255638228, 0.06599017062272229, 0.06676916192634266, 0.06752838432267158, 0.0682980773850242, 0.06906039718409614, 0.0698455831106149, 0.07058788423725156, 0.07136846489460731, 0.07209044370194707, 0.07280675902018847, 0.07354560622160278, 0.07424430244780104, 0.07492197586324957, 0.07560866924593784, 0.07628638098650439, 0.07692057080715604, 0.07758288967955902, 0.07826020023433324, 0.07889391901356295, 0.0795164057101301, 0.08021137064831145, 0.08079977015586179, 0.0813807352968797, 0.08195335485471988, 0.08251683254727714, 0.08299450353379302, 0.08354732256539193, 0.0841900053743087, 0.0846993078077494, 0.08519965473326746, 0.08557560533744078, 0.0860706352187278, 0.08666654788396222, 0.08711295241692811, 0.08754988458997777, 0.08798008947758815, 0.08839629396267798, 0.08878745609536826, 0.08918424285705863, 0.08956925325313397, 0.0898794308018609, 0.09024885893311742, 0.09069519602697589, 0.09102313356594091, 0.09134221805329004, 0.09159731426662432, 0.09190518446664848, 0.09217331659124027, 0.09246060550410098, 0.09273501589305555, 0.09308775125338152, 0.09332698115746915, 0.09347794788791515, 0.09371584033053891, 0.09394313186091897, 0.09421709091881114, 0.09441808627695628, 0.09464762423809693, 0.09483371073705103, 0.09501672235006389, 0.09509482645038764, 0.09528464756968748, 0.09547721667534033, 0.09564949551371381, 0.095815841908188, 0.09609025297077306, 0.09623294161087674, 0.09626374951939537, 0.09642659718533818, 0.0965857368635493, 0.09674376837227758, 0.09689820455845516, 0.09715856341523049, 0.09729886764953118, 0.09744614159410431, 0.09759390718805622, 0.09775599301112628, 0.09787642264618437, 0.0980586055128601, 0.09824554927920079, 0.09838794465999119, 0.09859315064834084, 0.09883181171790376, 0.09904326851783658, 0.0992630927143472, 0.09950510291854467, 0.09974267830020474, 0.09996288384020768, 0.10022834736992962, 0.10050542389603123, 0.10084037594831934, 0.1011379378521027, 0.1014105613687065, 0.10174818816978089, 0.10210171786616082, 0.10248504396425819, 0.10287161015067711, 0.10325661840442103, 0.10368555578207703, 0.10413437193145327, 0.10457008709020832, 0.10506582540133134, 0.10557266476776213, 0.10611239980238005, 0.10667467894106163, 0.10735278676711092, 0.10795189209378402, 0.10852865449446047, 0.10919676300984123, 0.10989344675857571, 0.11057746235324574, 0.11133895012782796, 0.11220979108651129, 0.11301920626024109, 0.11386380399350568, 0.11464046392905858, 0.11556953861332464, 0.11659374473587472, 0.11757684696525754, 0.11859648214763265, 0.11964353309390353, 0.12073920139491595, 0.12185157747016659, 0.12302599189420459, 0.12423822465673642, 0.12544541464421802, 0.12674111408993566, 0.12804047660325601, 0.12941671277278705, 0.13083063244686616, 0.1323868435035796, 0.13386641755194392, 0.13526172787388252, 0.13685124541896293, 0.13848021338908068, 0.14027910055976361, 0.14197396661173262, 0.14364755053440365, 0.1454508981811247, 0.1472997501657502, 0.1491800156572885, 0.15112304812413405, 0.15307322974326162, 0.15511351723855332, 0.15719844725143092, 0.15929637055559367, 0.16147663026272072, 0.16380981926019347, 0.16606635190578165, 0.16835875161949457, 0.17072104580424502, 0.17313379946849367, 0.17548530960588754, 0.17801258101777487, 0.18065305652919414, 0.18325965922930393, 0.18591519552302724, 0.18853555478439502, 0.19129939044894206, 0.1941362850288736, 0.1969849021291458, 0.19988007304873429, 0.20282026873143588, 0.20580894856454324, 0.20886355971482715, 0.21194277261458727, 0.21506938896978994, 0.2182172018865476, 0.22144083542543458, 0.22476588076037723, 0.2280718150108642, 0.23142527246783268, 0.23470909614871444, 0.23817000749848272, 0.2416906346545902, 0.24522647881754728, 0.24880246204027176, 0.2524846570759847, 0.25613185892038615, 0.2597461212354341, 0.263488051672567, 0.26726686932111166, 0.27109679799603015, 0.2749465037641994, 0.27878099683572627, 0.28270962158416424, 0.2866705152593235, 0.290734481760905, 0.2947498703457727, 0.2987954452943396, 0.3028803757894008, 0.3069977850567412, 0.3111465692360784, 0.3153256178295259, 0.31944329193144994, 0.3236909527178732, 0.3279604188121213, 0.33222379370585764, 0.33653899372243157, 0.34087129676303496, 0.3452236670921844, 0.3495936153550087, 0.35398048110713676, 0.3583835151184411, 0.3628212847072416, 0.367251639101826, 0.37169654660178425, 0.37624695820364495, 0.38070572785954104, 0.38511105311363913, 0.38960871417956766, 0.3941145580741473, 0.39866927396991647, 0.40318213873156555, 0.40769178550823654, 0.4122171188348882, 0.4167449803983811, 0.42126732031716896, 0.42579631812983854, 0.4302144688991355, 0.43475057596375805, 0.4392750749905705, 0.4438018958604363, 0.44829937877004783, 0.4527758248900209, 0.45724739634376643, 0.4617034474710477, 0.4662398851346647, 0.4706493343720595, 0.47496124166474446, 0.47935232828363544, 0.4837212326976878, 0.4880667203839385, 0.49238752009478537, 0.496745369870956, 0.5010048848896069, 0.505239260279489, 0.5094369153623035, 0.5136166377211412, 0.5176875753323568, 0.5218130416137783, 0.5258996341632067, 0.5300368753351865, 0.5340312268315568, 0.5379708572754208, 0.5418917123729474, 0.5457709568359828, 0.5496247585279811, 0.5534137257250256, 0.5570118532120558, 0.5607268287695683, 0.564384991335717, 0.568112012870744, 0.5716392699852926, 0.5751314183008723, 0.5785523806266849, 0.5819196221406485, 0.5851699890316797, 0.5884324335858796, 0.5915745216714571, 0.5947189422638527, 0.5977958191859432, 0.6008611304137728, 0.6037939138677537, 0.6067056250779985, 0.6094988130779031, 0.6122258137319093, 0.6148091238626693, 0.6174088319780446, 0.6200177509330321, 0.6224564137846902, 0.6248234738734483, 0.6271077966688281, 0.6293286448311303, 0.6314651766434853, 0.6335334331615126, 0.6355227651961173, 0.6373901701547164, 0.6392240834846196, 0.6409642129469749, 0.6426306657306946, 0.6442114525269932, 0.6457271448026177, 0.6471326089071238, 0.6484764896334909, 0.6497066078014144, 0.6508510415415678, 0.6519106435150881, 0.6528812639219368, 0.6537350554660597, 0.6545332615576187, 0.6552408955401392, 0.6558916051351988, 0.656412927198919, 0.6568366605046325, 0.657179477826933, 0.6574313638655971, 0.6575386372317672, 0.6576144332640995, 0.6576762419382628, 0.6575524195552773, 0.6573387520229217, 0.6570153945105263, 0.6566232249808498, 0.6560452556413913, 0.6554807787913481, 0.6548189024176148, 0.6541622395127458, 0.6532949701028292, 0.6522961814065834, 0.6512550783720443, 0.6501218718100978, 0.6489017311674817, 0.6475846907765844, 0.6461332142208804, 0.6446404694435103, 0.6430552393772314, 0.6414106315221892, 0.639638668810426, 0.6377508649974907, 0.6358061543316114, 0.6337725749454803, 0.6316977929523436, 0.629482923294658, 0.6271809731027825, 0.6247992572941029, 0.6223344539718222, 0.619725723422149, 0.6171043194862729, 0.6144758807108076, 0.6116766479694982, 0.6087995908238626, 0.6057725507365119, 0.6027508573048158, 0.5996249632753927, 0.5964477938954962, 0.5931920286059922, 0.5899513426429681, 0.58653131898664, 0.5830052200688153, 0.5794528254938711, 0.5758309686061902, 0.5720890922450472, 0.5683383879116974, 0.5645205303132896, 0.5606337536641707, 0.5566816167387711, 0.5526721995869736, 0.5485933528978584, 0.5445335175324467, 0.5403257962219947, 0.5360670016571982, 0.5317545939917561, 0.5273914662222076, 0.5228978420231821, 0.5184467040511697, 0.5140325661201458, 0.509468276484191, 0.5048608450315661, 0.50015645297088, 0.4954731793741015, 0.4907618569285254, 0.48599332875209633, 0.48118657695196027, 0.4762802213729127, 0.47140999157552466, 0.46647877996367804, 0.46154035370487717, 0.45656819577207575, 0.4515646102147074, 0.44653183450636896, 0.4414979092455389, 0.43640996149742217, 0.4313006507833261, 0.42615078652359983, 0.4210068629241064, 0.4159137183591553, 0.4107289434075083, 0.4055347485922606, 0.4002581299523696, 0.3950585973190139, 0.3898496533144003, 0.3846333633907168, 0.37941174918910575, 0.3742886284988206, 0.369049398347058, 0.36379053460274213, 0.358568096166433, 0.35335263405264083, 0.3481681874792412, 0.3429680759609891, 0.33777244831813713, 0.3325998025907557, 0.32744193567945, 0.32230515373696134, 0.317180625630803, 0.3120141612947149, 0.3069378539276564, 0.30188055837975214, 0.29684589102600967, 0.29183236237527466, 0.2868955086235286, 0.2819271755291438, 0.2769903279450716, 0.2719877010047629, 0.2671303183474677, 0.26232718051351706, 0.25752888351771275, 0.2527661587618313, 0.24809897166369183, 0.24340529419952783, 0.23873781857754278, 0.23413549140762918, 0.22957842983052204, 0.22508732256827516, 0.22062219736990807, 0.21610379759257317, 0.2117531913016966, 0.20744912163852727, 0.20325169053974276, 0.19903895677519254, 0.1948329413570323, 0.19073789873259567, 0.18669758834731232, 0.1827005436965658, 0.17877564927114237, 0.17494771981038212, 0.17113560756784066, 0.167386457990809, 0.16368822259542049, 0.16006925225330257, 0.15649083041462197, 0.15300541252220623, 0.14958517888861858, 0.14631519166575319, 0.14301765541581118, 0.13980093473541869, 0.1366479923944502, 0.13356856458165076, 0.13046095223719686, 0.12754186677907178, 0.12475572263024809, 0.1219660465937184, 0.1192502272181541, 0.1166376823709476, 0.11406684729766593, 0.11153524031520658, 0.10912195471818947, 0.10678306968106514, 0.10458197473353625, 0.10238492827391098, 0.10023281122489863, 0.09819753993737579, 0.09623873283586613, 0.09427885519687754, 0.09248293229457911, 0.0908125686965699, 0.08915495213357097, 0.08757368070097887, 0.08598630962534617, 0.08456809818038494, 0.08331200165664077, 0.08202608335363284, 0.0808178233486353, 0.07966418886411383, 0.07861288846249864, 0.07766744734844985, 0.07676229963300023, 0.07593346906034242, 0.07512864988933436, 0.07445724975270766, 0.07381224570422153, 0.07328969396174445, 0.07283582032381257, 0.07247007475926856, 0.07215116049091803, 0.07187762504688926, 0.07170063929310583, 0.07159107944643303, 0.07156802866230727, 0.07158984652905548, 0.07172911521308019, 0.07187858958076347, 0.07209679457118486, 0.07229526573485294, 0.0726584510146106, 0.0731110672291913, 0.07359079566591198, 0.07413151357295814, 0.0747744080514795, 0.07542922853597671, 0.07608009751165347, 0.07686321242150271, 0.07770082636856873, 0.07868593430474378, 0.07961835602064676, 0.08060808805338225, 0.08165345380829529, 0.08275282424520208, 0.08387713292766634, 0.08508326390472554, 0.08632265606927715, 0.08762497748453406, 0.08897175431624489, 0.09028909002025633, 0.09173048666082716, 0.09332834891613623, 0.09482769375574418, 0.09636926244304024, 0.09794321836647495, 0.09956504021066183, 0.10121380583152448, 0.10290857565366644, 0.10463634277531142, 0.10640375253775367, 0.10819219233231532, 0.10997100819385304, 0.11182122079784894, 0.11369549432289756, 0.11556036622013012, 0.1174834214526083, 0.11937675075042245, 0.12134252481417682, 0.12332239746197166, 0.12533834167461375, 0.12734148779311, 0.12936585057728242, 0.13139316011271723, 0.13343184855193446, 0.13550170241009096, 0.13755678602601593, 0.1396546236872228, 0.141721576122448, 0.14379633690389934, 0.14582061727386345, 0.14791305176508998, 0.1500875458457366, 0.15216766265147522, 0.15424973515209014, 0.15629636704455402, 0.15838141323224014, 0.1605079961780727, 0.16257508045332628, 0.1646367669901487, 0.16669136567751952, 0.16873725345796461, 0.17072760903147757, 0.17275717308076338, 0.1747709732972763, 0.17682131744923726, 0.178793742667372, 0.18079394480589578, 0.18272766497126625, 0.18464512230567295, 0.18647027299642996, 0.18835964019666326, 0.19026905047321527, 0.19210143657788972, 0.19389333498263767, 0.19567793527210328, 0.19743498842937623, 0.1992508256992296, 0.20093890575811552, 0.202608016763243, 0.2042428341847298, 0.2058495424371832, 0.2074509793452438, 0.20899428019076338, 0.21046164713018414, 0.21194800612269882, 0.2133986213995896, 0.21494852260428568, 0.21630827139486428, 0.21768788196882735, 0.21897908243063535, 0.22023958793467718, 0.22149347515770854, 0.22268415668871017, 0.22376968051734777, 0.22489982769030178, 0.22598920452979157, 0.2270631174638766, 0.22806608553687713, 0.22915435790564395, 0.2300592621066607, 0.23092941541616907, 0.23175854733067416, 0.23255574340810434, 0.23326249344711714, 0.23398794042491763, 0.23467020599182836, 0.235325289086292, 0.23591871568898648, 0.23653421642930747, 0.23703418149171315, 0.23749501903629835, 0.238005120360054, 0.23837504195415174, 0.23877752526548582, 0.23906730599326487, 0.23932395005338752, 0.23949139704939867, 0.23968562888639397, 0.23992016919330147, 0.24002652071097366, 0.24009838364117267, 0.2401934436142801, 0.2401876180280216, 0.24011720250664909, 0.24005041907794558, 0.23994869360744933, 0.2398040229546969, 0.23963378678847605, 0.23954187495612947, 0.23928813259185716, 0.2390068976834486, 0.2387221057456971, 0.23838206096340123, 0.2380106078345011, 0.2376180258557071, 0.23719869997760895, 0.2367723228361457, 0.23629806052968655, 0.2357605761671107, 0.23524282257039475, 0.23469948520916428, 0.23417679231876298, 0.23357951297756654, 0.23296222302435401, 0.2323256467070203, 0.23167058478777647, 0.2309558788700183, 0.2302718283801148, 0.22962952672088963, 0.2289031665120005, 0.22816484833984924, 0.22737990425004664, 0.22662490827306472, 0.22589437632137446, 0.22511403072821595, 0.22432727573991568, 0.22360469003810127, 0.22279958410165168, 0.2219387293174547, 0.22114305573808515, 0.22034638413648025, 0.21953381881326645, 0.2187410249122448, 0.21800515948340388, 0.21721081690637573, 0.21642445135380195, 0.21561475336623082, 0.21485154165515266, 0.21405406245873726, 0.21331654560755464, 0.21258880818157827, 0.21192597646413414, 0.2112163633985255, 0.21045686455508456, 0.20979308725472065, 0.20914600952324833, 0.20863222596670394, 0.2080094655342995, 0.2073763811173023, 0.206816229487211, 0.20628397047221717, 0.20570969564489916, 0.20524588052856413, 0.20481613569371043, 0.20440855063938138, 0.20403255074862958, 0.20373183599217778, 0.20341866535033892, 0.20312169553536705, 0.20289025892172152, 0.20269881036413606, 0.20249540939745564, 0.202394867718364, 0.202348397540935, 0.20233027123352726, 0.20235747902483356, 0.2024008350425099, 0.20252712446141652, 0.20267397882059113, 0.2029014652588742, 0.20317864910094272, 0.20352179408899865, 0.20390159115598144, 0.20431092501869763, 0.20480614293300678, 0.20535795515327313, 0.20600337419341958, 0.20666815627924046, 0.20732292244585415, 0.20812330709064208, 0.2089842235195642, 0.209971823242717, 0.21095001326401183, 0.21194160562924477, 0.2130641755992645, 0.21425342733987898, 0.21557676144164784, 0.21689430840853344, 0.21824664235171243, 0.21971666154111177, 0.22125890318083885, 0.22287410058853438, 0.22456295258248232, 0.2263180420927141, 0.22815718768112797, 0.23007143143326395, 0.231940172409961, 0.2340217983414815, 0.23617672920724567, 0.23839957897039762, 0.2406955002330262, 0.24305756762634667, 0.2455039922232077, 0.24801480373722723, 0.25061491757200965, 0.25329169468563967, 0.25607819244995783, 0.2589062860537256, 0.2617306719310719, 0.2647302565072146, 0.2678057538715804, 0.2709692180049841, 0.27419719451127156, 0.27747121980883954, 0.28086032042826947, 0.2843264539692532, 0.28782795518173504, 0.2914544433464489, 0.2951903104447126, 0.2989637627728984, 0.30281520157315406, 0.306731561702712, 0.3107401317169116, 0.31483988714109445, 0.3189996508004157, 0.3232363109669205, 0.327550982963451, 0.3319396791275167, 0.33634552205821483, 0.34089159966127514, 0.34550840223063156, 0.350131006891892, 0.3548965443436607, 0.35978468016215837, 0.364675099571006, 0.36963455619410557, 0.374678480939712, 0.3797717062244336, 0.38485167310557816, 0.39008920969794175, 0.3953876692368959, 0.400694872699385, 0.4061202479007453, 0.41165368370508726, 0.4171848402994593, 0.42273560640459434, 0.4283874478829195, 0.434093394506315, 0.4398687698324302, 0.44567826656311876, 0.4514817875963882, 0.45740184553428836, 0.463368339372813, 0.46931089214403865, 0.4753763305070962, 0.48157837188644576, 0.48771017729795474, 0.4938856869979415, 0.5000919182149463, 0.5063512378948939, 0.5126146017397012, 0.5189525430492474, 0.5253232381773416, 0.5316525093021044, 0.538093534983445, 0.5445765223760243, 0.5510626411631548, 0.5575717793436233, 0.5640879995424107, 0.570640768383647, 0.5772113413670757, 0.5837982300788133, 0.590399873322775, 0.5970340418480858, 0.6036578031254285, 0.6102713440951881, 0.6169174086943398, 0.6235691837876307, 0.6301941429759912, 0.6368557422869656, 0.6435076940612567, 0.650165515377043, 0.656817922177676, 0.6633920785159, 0.6700374586828444, 0.6766988541693639, 0.683309673541373, 0.6899048452306367, 0.6964389913184388, 0.7030031293507523, 0.7095308790135079, 0.7160482100798549, 0.7225382217970486, 0.7290300516764249, 0.7354567419132367, 0.7417947046136469, 0.7481656624113007, 0.7544987616681854, 0.760815047462354, 0.7670647437273653, 0.7733100761805284, 0.7794700400281832, 0.7855866320338573, 0.791571896422176, 0.7976057492107361, 0.8035894934321741, 0.8095112964641551, 0.815375312008532, 0.8212218962314595, 0.8269599698159493, 0.8325857642383596, 0.8382071659873241, 0.843760920841342, 0.8493229717309646, 0.8547266552157218, 0.8599537270301265, 0.8652321475207644, 0.8704315716878993, 0.8756266337548957, 0.8806543948614495, 0.8855871057616677, 0.890457068315139, 0.8952431458041227, 0.8998901523890418, 0.9045097058303008, 0.9090854377631338, 0.9135129098586919, 0.9178481274891287, 0.9219939742589439, 0.9261515410974984, 0.9302273903896384, 0.9341759714861261, 0.9380212109223793, 0.9417813655044874, 0.9454140288102303, 0.9489231864912324, 0.9523453131882144, 0.9556580632972119, 0.9589006916833004, 0.9619861144138514, 0.965003003825462, 0.9678605342015786, 0.9706070047799285, 0.9731437447902456, 0.9756754021606111, 0.978111649588166, 0.9803968584179369, 0.9825609661787783, 0.9845853276032368, 0.9865069099025101, 0.9882860861125714, 0.9899600157393792, 0.9915070310670467, 0.9929314967727506, 0.9942226149508608, 0.9953694728290925, 0.9964059285579784, 0.997312368150024, 0.9981126887977237, 0.9987549877772582, 0.999348427147986, 0.9997206292355488, 0.9999666992198201, 0.999998270189573, 1.0, 0.9999583482324098, 0.9996808013569443, 0.9992743966632333, 0.9986689101047068, 0.9980115400788172, 0.9972018108908036, 0.9962776925686313, 0.9952183430296517, 0.9941017061493406, 0.9927631578823454, 0.9912172415738164, 0.9896287177787272, 0.9879057001798349, 0.9860536205653815, 0.9840627584531524, 0.9819184379581243, 0.979665922683856, 0.9772809637726314, 0.9748629587971154, 0.9722030337190735, 0.9693183813969025, 0.9664221405645931, 0.9633959365349807, 0.9603167951650634, 0.9570242177152167, 0.9535541446423946, 0.9500238971502428, 0.9463690230537354, 0.9426859567254833, 0.9387729863564531, 0.934729457077709, 0.93058667609735, 0.9263279337786794, 0.9218666672636154, 0.9173893062169564, 0.9127805985126526, 0.9080697271143076, 0.9032430728516573, 0.8984268717740863, 0.8933582071226744, 0.8881698447690655, 0.8828968910744589, 0.8775210847283913, 0.8719772471695925, 0.8664074897093098, 0.8607201555652607, 0.8549480531796672, 0.8490758562160031, 0.8431023325051511, 0.8370363505618966, 0.8308550634358818, 0.8246051700185943, 0.8182638320165389, 0.8118574765839771, 0.8053367060718921, 0.7987307235538061, 0.7920449062850206, 0.7852792985829553, 0.7784698311448283, 0.7715463219131655, 0.7646010397724625, 0.7575291895573356, 0.7503918400875818, 0.7430869943959596, 0.735836187673314, 0.7285995396634934, 0.7212077337918436, 0.7137588638796942, 0.7062660856419938, 0.6987072364442138, 0.6909990449103443, 0.6833530929046767, 0.6756547396240816, 0.6679520515235831, 0.6601515380830947, 0.6522803319658775, 0.6444026028773667, 0.6364862483443825, 0.6286162524665041, 0.6206198364995208, 0.6125080858052092, 0.6044718699288326, 0.5964661305810018, 0.5883697836252093, 0.5802542662763548, 0.5720602744390099, 0.5639205728903274, 0.5557582298232993, 0.5475896817163399, 0.5394099266490544, 0.5313072927668574, 0.5231022180389137, 0.5148339299936238, 0.5066417675629794, 0.4984511680416008, 0.4902856089242392, 0.48210284426813255, 0.47397539931354943, 0.46580925330921763, 0.45766015125042186, 0.4494652906833013, 0.4413640589389825, 0.4333368851975559, 0.4252693836328395, 0.4172289887719668, 0.40912229267905326, 0.4011540749490992, 0.3932135489065339, 0.385303485397846, 0.37742656645094586, 0.3696371175645185, 0.361827667928688, 0.35401011014312417, 0.3462964026660323, 0.3386273294079541, 0.3310650542166451, 0.3234846868513503, 0.31589775552471294, 0.3084365624937951, 0.30103015817103584, 0.2937017391969486, 0.2864087398157469, 0.27915382134289374, 0.2719903739546606, 0.26489152117014114, 0.2578268914004059, 0.25086712916212744, 0.24400009355137217, 0.23717627503114114, 0.23042631251077672, 0.22381493955562162, 0.21720974478226268, 0.21063676258225597, 0.2042035890013841, 0.19785202417921582, 0.19169184337741604, 0.18549418095101203, 0.17926726718021474, 0.17326937642427637, 0.16735768911241308, 0.16165824940447213, 0.15590789220513154, 0.15024231001166852, 0.14468936909902247, 0.13923420521672852, 0.13380466042142627, 0.1285560221747185, 0.12345301206509154, 0.11839030505159227, 0.11342832549575993, 0.10858555586011365, 0.10382487701946487, 0.0990419096073888, 0.09450527657184096, 0.09006638993961061, 0.08583991917111546, 0.0815866362670561, 0.07744160196632281, 0.07340503922206838, 0.06947717094267683, 0.06562750327652855, 0.06192155485623326, 0.05833452023203822, 0.05484276918296294, 0.051460064745397716, 0.048189882993758114, 0.04502555609794858, 0.041945213455281245, 0.03900395692513765, 0.036171271984802585, 0.033423153807333954, 0.03081134064263084, 0.02824100323226441, 0.0258533234785496, 0.02357009987347208, 0.021440452275826534, 0.019361748663805457, 0.017388458216722663, 0.015527300268508303, 0.013774232109422344, 0.012086971063738041, 0.0105545692313033, 0.009162512346897893, 0.00783508603241794, 0.00661415428080773, 0.005486220568138668, 0.004478170315670103, 0.003551422286814662, 0.0027534994811276702, 0.0020569861131214764, 0.0014678231192231965, 0.0009716640318456579, 0.000590037772217345, 0.00029122803916156666, 9.160465403135043e-05, 6.330899982933741e-06, 0.0, 8.904517973433916e-05, 0.00027567738802429336, 0.0005567452226164134, 0.0009568708271135969, 0.0014198005752027833, 0.0019344340586499955, 0.0025852042127019496, 0.0033228319759664796, 0.004113828289516843, 0.005025741114560407, 0.005998092469431659, 0.007074559059218611, 0.008229217772142883, 0.00946110373034282, 0.010769174551141002, 0.012231522334829853, 0.01367854127317188, 0.01520265712070026, 0.016810020084394306, 0.018481539712922046, 0.02012305766102915, 0.02194919783121544, 0.023837634241749072, 0.025779226269002586, 0.027790018891738936, 0.029910963356538936, 0.03203084522354503, 0.0342095408361265, 0.036446892953272934, 0.03873768324391799, 0.041111131392186764, 0.04350355931035237, 0.04594756343452046, 0.048390984797675854, 0.0509383550438581, 0.05354296334722397, 0.05617229656380133, 0.05884194946285213, 0.06158734599262704, 0.0643276637850187, 0.06708084707435145, 0.06989637333419713, 0.07274351783275691, 0.07566086268759331, 0.078560648416784, 0.08144357717422664, 0.0844037439532801, 0.087385519687351, 0.0904373115382607, 0.09345085262738508, 0.0964077091405851, 0.0994673056059876, 0.1025377176891672, 0.10561266681872598, 0.1087009985750464, 0.11182780862999007, 0.11492286383398465, 0.11802287852293736, 0.12116161364839403, 0.12426166014584979, 0.12724044512221544, 0.13035715098452666, 0.13346449838309862, 0.13666173776191365, 0.13973470944476318, 0.1427216044587286, 0.14578886361390572, 0.14884088253830255, 0.15197177420659536, 0.154977446203323, 0.15788853386610852, 0.1608747862218567, 0.16383858693273037, 0.16687560421990516, 0.16977826959237205, 0.17263568738120766, 0.1754972899335288, 0.17833237192400342, 0.18108907446345, 0.18387226218744587, 0.18660487721131466, 0.18932011194540851, 0.1919976707159402, 0.19467045138157474, 0.19726521295665903, 0.19988730725488216, 0.20239446556752444, 0.204863755205994, 0.20730307072766893, 0.209690084939474, 0.21200717796546972, 0.2143111839113496, 0.2165939623231507, 0.21879931657410384, 0.22095668447516154, 0.2230728445955408, 0.22512938171775415, 0.22722683276956737, 0.22916811687139893, 0.23106110709116356, 0.23281675714480088, 0.2346190768528271, 0.2364118762933612, 0.2380914105332829, 0.23971443339377582, 0.24126059855627488, 0.24277028509170745, 0.24422622738345875, 0.2456141097403669, 0.2469410582848428, 0.24826958692526496, 0.24946516372203972, 0.25059544172154824, 0.25167327688965774, 0.2526902358934489, 0.25374590164507516, 0.2546266116278087, 0.2554277791133372, 0.2561963224655377, 0.25690444600939183, 0.25762096020324393, 0.2581974857315196, 0.25869958852406394, 0.2591607185847184, 0.2595610010136675, 0.25998886025363094, 0.26025488693227694, 0.2604332547668056, 0.26058841019662904, 0.2606833539480411, 0.26067579073864605, 0.2606549417948287, 0.26067775397181425, 0.26051776655054765, 0.26030159011953513, 0.26002724520892123, 0.2596979548276141, 0.25924707055348095, 0.25881214012206466, 0.2583168686230024, 0.25781376887705953, 0.2571936612421306, 0.2565945259850966, 0.25585525682042204, 0.2550662154950305, 0.25420474784266944, 0.2533190893870871, 0.2523681693072795, 0.2513834573928556, 0.25034836472509303, 0.24934128612971793, 0.24819809048252908, 0.24694516348760445, 0.24572375939300165, 0.24445594835140116, 0.24322040248471, 0.24185324612817868, 0.24040373085391192, 0.23896520671018545, 0.2374867067418302, 0.23600326350182058, 0.23444382108273953, 0.23283352030512985, 0.2312076567379354, 0.2295481014979441, 0.22791098810130564, 0.2261806600720013, 0.22440395644880232, 0.2226229567807752, 0.22081563694473516, 0.21906073109576718, 0.21719444295666482, 0.21523055687877585, 0.21333815068133855, 0.21142432249942075, 0.20958594434614403, 0.20762173111687363, 0.20555385097635162, 0.20357899542015517, 0.20158907600715445, 0.19968763114110466, 0.1976598058096485, 0.19563417734722105, 0.19359785389680245, 0.19155943205479778, 0.1894293725540184, 0.18740122494175632, 0.18539332334986933, 0.18335603348289267, 0.18131991887177532, 0.1793222044190325, 0.17728892684336583, 0.17524115951016178, 0.17322838037137833, 0.17122521112752784, 0.16921060984364614, 0.1672342834619945, 0.16535349003667588, 0.16339468630722545, 0.1614570900452752, 0.15954012405903892, 0.15764832109691868, 0.1557388866891813, 0.1539023902954887, 0.1520903672637533, 0.15023976260630303, 0.14848965268513575, 0.14683303413945933, 0.14512761065275082, 0.1434556531963925, 0.14184438844462433, 0.14024017984974357, 0.13857636319337988, 0.1370637513275586, 0.13558689631889312, 0.13416877375223493, 0.13276657198787314, 0.13142471232198255, 0.13010692937917864, 0.1288357441895411, 0.12766903584750516, 0.12648777599821937, 0.12533748790069815, 0.12426706191477886, 0.12325053554471876, 0.12216768139186453, 0.12127729833514425, 0.1204564162754358, 0.1196657532116939, 0.11893008249607848, 0.11825419534917557, 0.117632683323078, 0.11713702420562569, 0.11662756454137503, 0.11618388130630937, 0.11579526398056941, 0.11548638189895603, 0.11522021706293592, 0.11504902747678045, 0.11494482364997141, 0.1149003854234946, 0.11493371942496249, 0.11499401994274454, 0.11517146098269175, 0.11541710052330094, 0.11579988014154094, 0.11617639985241372, 0.11660196689154166, 0.11713184256133398, 0.11773570437416717, 0.11832996177398339, 0.1190937838214212, 0.11992331818997046, 0.12082991605719107, 0.12180876495067655, 0.12288011447043655, 0.12400346350186174, 0.12514258944878787, 0.12642507081198268, 0.12778051329078813, 0.12932120256153898, 0.13081059911188755, 0.13227605303446288, 0.13394051159560746, 0.13567926601435978, 0.13749756455242695, 0.13938539865647376, 0.1414214575206592, 0.143451156915324, 0.14556053744969227, 0.14772148886772, 0.14999182372973882, 0.15223659474488976, 0.15467195889085833, 0.1571770702103128, 0.15982989046362162, 0.16246567404429285, 0.16520701220490436, 0.1679879883032011, 0.17084428950036076, 0.17366509467708605, 0.1766832423296395, 0.17975169058512322, 0.18290480384899555, 0.18612334679608936, 0.18946541836474043, 0.1928070721110901, 0.19613599367271264, 0.19962317617125824, 0.20317214193894492, 0.20680847422152127, 0.2104767880999436, 0.21418939880799462, 0.21798332788333552, 0.22188196154943096, 0.22578829726181157, 0.2297550309996205, 0.23375666199831577, 0.2378434821564516, 0.24189501680530762, 0.24610265398304712, 0.25035821006106035, 0.25475499370770865, 0.2590930743259816, 0.26342606420259285, 0.2678727297555981, 0.27236462840135295, 0.2768796611918321, 0.28146136900616214, 0.2860384437650634, 0.29070605089942714, 0.29540952240691803, 0.3002466198339895, 0.3050067275697619, 0.309724594403927, 0.31457017579887336, 0.31944600988798055, 0.3243767457817488, 0.32930611136112875, 0.3342956886706612, 0.33927514243342466, 0.34428109409110685, 0.3492356836756909, 0.3542985921989529, 0.35936518932385886, 0.36446174072239723, 0.3695716575417384, 0.3747227855074255, 0.37985193856297855, 0.3849905346432544, 0.3901403515849848, 0.3952978008302892, 0.40045150439029015, 0.4056203917966427, 0.41074925929486517, 0.41592583608701916, 0.4210987632569558, 0.42632166275459116, 0.4314762744566949, 0.4365776552508579, 0.44172699581263963, 0.4468650388853136, 0.45205655383463134, 0.45715907524020444, 0.4621879862392592, 0.4672717813953822, 0.47233574610223594, 0.4773492447985855, 0.48237258750338063, 0.487332609230888, 0.49230700717506226, 0.4972504146132009, 0.5021778579846924, 0.5070537589833226, 0.5118539405642549, 0.5166663253254195, 0.5214397380862962, 0.5261714014688704, 0.5308635307474808, 0.5355420356656523, 0.5401437384798436, 0.5447017004803087, 0.5492854320879215, 0.5537420824842134, 0.5580862631164764, 0.5624601696057977, 0.5667814279755731, 0.5710695843604721, 0.5752784902130439, 0.5794186061481416, 0.5835158119461172, 0.5875532282511855, 0.591563348682745, 0.5954725571331417, 0.5992630064441624, 0.6030533347583698, 0.6067750267709453, 0.6104964858987542, 0.614068799931233, 0.6175585055551278, 0.6209948689785907, 0.624359090430984, 0.6276594590040531, 0.6308739926648251, 0.6339498099560879, 0.6370196243807864, 0.6400076006614541, 0.6428919990583492, 0.6457167654248291, 0.6484999464186805, 0.6511481524463087, 0.6537123897371978, 0.6562094661282304, 0.6586006301684583, 0.6608461906519543, 0.6630723059901773, 0.6652072781726166, 0.6673201725285066, 0.6692627319050976, 0.6710391007098393, 0.6728132427991863, 0.6744924478871691, 0.676063517505457, 0.6775536681949101, 0.6790006588250459, 0.6802908664616465, 0.6814871649729353, 0.6826584168298596, 0.6836562236521585, 0.684567083728672, 0.6853796266182551, 0.6860986443113704, 0.6866246602067979, 0.6871665804380789, 0.6876410776169132, 0.6879761853832657, 0.6882122507647201, 0.688307170279529, 0.6883502670687804, 0.6884162917997905, 0.6882409275486885, 0.6879717055590724, 0.6875723997126046, 0.68711808744757, 0.6864773807321355, 0.685839290814782, 0.6850987061645093, 0.6843663420737787, 0.6834092285668077, 0.6822530196133919, 0.6811209712943146, 0.6798887599425066, 0.6786687788453191, 0.6772246918661663, 0.6757053780698202, 0.6740763736310745, 0.6723568057163812, 0.670435117037735, 0.6685485620744437, 0.6666365482802287, 0.66454900317038, 0.6623711753492724, 0.6600179401978216, 0.6576720734720731, 0.6553282846066445, 0.6527851621648876, 0.650156835336409, 0.6473824273349881, 0.6445931699026776, 0.6417785278815011, 0.6388091165549098, 0.6357588009084099, 0.6325862833242614, 0.6293817238526991, 0.6261334488407497, 0.6227636408244431, 0.6193175137982297, 0.6157814791876621, 0.6121874796625475, 0.6084579384304656, 0.6047246829193704, 0.6009163105743951, 0.5970361917101169, 0.5930826048619732, 0.5891189531104856, 0.5850196994629475, 0.5808571911924425, 0.5765840561645611, 0.5723045785743683, 0.5679416062414245, 0.5635414606098037, 0.5590809168595364, 0.5545472117799018, 0.5499730374226145, 0.5454399092014973, 0.5407434199292068, 0.5360000599791093, 0.5312011219485525, 0.5263682944529707, 0.5215138713388461, 0.51659100404315, 0.5116277751120251, 0.5065881891146, 0.5015525488243274, 0.49646849256984116, 0.4913582970347054, 0.48621215576495663, 0.4809994893450411, 0.475790790836459, 0.47056250668666616, 0.46528914243683134, 0.45998796001673825, 0.45470605460225433, 0.4493490020554608, 0.44396889833524544, 0.4385740471432835, 0.43307479966807166, 0.4276582864337793, 0.4222228246148185, 0.4168498821189194