0.04373109420671392, 0.04315211809365386, 0.042367253141603244, 0.0419126295793611, 0.04170536886307812, 0.04126283660979213, 0.04084871886337881, 0.04046627645246981, 0.04009588451881442, 0.039502894596220924, 0.03919587963798701, 0.03888827908714744, 0.038610230045475466, 0.038298017636031745, 0.037886034599174404, 0.03759008381904705, 0.03729042774068017, 0.03699192540915674, 0.036687653601853824, 0.036597211923587385, 0.03626622111712675, 0.03594882348220164, 0.035651694366132705, 0.03535819543208913, 0.03482876423665288, 0.034590200375543695, 0.03434899358096358, 0.03414450734029472, 0.03389850242746956, 0.033668176672106684, 0.03343063500053747, 0.0332001913340477, 0.03286871976430634, 0.03266863858253101, 0.03258075804912191, 0.03237493753972911, 0.0320386189413679, 0.03187570313843063, 0.03171769680491177, 0.031588588419841496, 0.0314417351753198, 0.03157165866520302, 0.03141201766975914, 0.031278967314880016, 0.031047048084469692, 0.030978578418635015, 0.030726729183394526, 0.030714914175724414, 0.03070773161436487, 0.030763199950403643, 0.030762979777504935, 0.03097789118249215, 0.030977285849922525, 0.0310017062691224, 0.03101629372109315, 0.031092039225631606, 0.03095527360811111, 0.03110089297425692, 0.031253155830705794, 0.03147004551651913, 0.03163319938058893, 0.031851887342571605, 0.032038955819417785, 0.03224392318699898, 0.032358104614942484, 0.03261340903033726, 0.0328774843282944, 0.0331594233740944, 0.033455773137745046, 0.03399285160111908, 0.03429218055259947, 0.03449707784444182, 0.03487001126907106, 0.035263389701972056, 0.035527098018124946, 0.03598082947298788, 0.03657102131367744, 0.037035439703619104, 0.03752192578365607, 0.038116997329823536, 0.038637045268346666, 0.03912427173396108, 0.039705935933342304, 0.04031049800693271, 0.04080658269467328, 0.041473907601440485, 0.0424013105891664, 0.04307076130416528, 0.04377211614610057, 0.04446307665266783, 0.04523068704519606, 0.045890144634060166, 0.046728786569495535, 0.04758650532750267, 0.048374107919310017, 0.04928419807680898, 0.050237258929961386, 0.051178832103359204, 0.052141320098830886, 0.05313694571485219, 0.054142594949354646, 0.05515732719256971, 0.056213679971449, 0.05729440257925336, 0.058516533582253685, 0.0596329479822989, 0.06066535849402925, 0.06186086469913839, 0.06308127589509376, 0.06436843762245079, 0.06563493740841303, 0.06709158271489864, 0.06839489439637103, 0.06973591495251662, 0.07116219415713636, 0.07256875418346223, 0.07371558217716481, 0.07523250418080146, 0.07676747148565677, 0.07835948926795488, 0.07992994530253976, 0.08150935630696432, 0.08313035269338982, 0.08477575166847726, 0.08641236875495881, 0.08811263429834831, 0.09001358282839426, 0.0917404123025786, 0.09350246895962815, 0.09519360363223406, 0.09703662051893164, 0.0987898861228245, 0.10070117207817547, 0.1026328547812976, 0.10473243843415148, 0.10668922184596402, 0.10875230499923375, 0.11076133011234301, 0.11280459184861859, 0.11472693897710748, 0.11685486939428119, 0.11912927955856074, 0.12128694350928283, 0.12347477386368254, 0.12569952550164737, 0.12794452086110475, 0.13036450624895266, 0.13264727281356592, 0.13496546323735237, 0.13710319729011206, 0.13951424450105268, 0.14194398030761973, 0.14439286967027118, 0.14686129397514006, 0.14928944999217084, 0.15180538258753135, 0.15439828291045032, 0.15694092250306332, 0.15950484876176266, 0.16209745186099797, 0.16470259362544157, 0.16721626133751288, 0.1698778140900222, 0.17255366170624517, 0.17534204586444888, 0.17803570409193833, 0.1809195056211151, 0.18363339449730195, 0.1863767017119184, 0.18915875658260775, 0.1919538214723924, 0.1945181482520138, 0.19739336800881985, 0.200275946906162, 0.20340704020027897, 0.20627597297328404, 0.20900972822453368, 0.2119422043897446, 0.2148853317937518, 0.21772255043997785, 0.22070134015813048, 0.22369504275247679, 0.22668037017905507, 0.22967116618079803, 0.23266395364924328, 0.23566687913883447, 0.23870184516248652, 0.2417129122929945, 0.24473106346548562, 0.24797753311256576, 0.25098055059464225, 0.2539829386493887, 0.2570223185560812, 0.2600743450763835, 0.2630996397716047, 0.2661764096676738, 0.26904454420115015, 0.2721582351630539, 0.27526317628848707, 0.27865307943570017, 0.28170537915504285, 0.2846467521545734, 0.28773071052243093, 0.29081314897871996, 0.2938932413901022, 0.2969701796328143, 0.30000560446755015, 0.3030786204776307, 0.30614403547907654, 0.3090774234159143, 0.3121419144624838, 0.3152354736796046, 0.31826269919938205, 0.3212772122368089, 0.32422623499636055, 0.32722134451359486, 0.3303277452708682, 0.3332738677785266, 0.3362106845454827, 0.3390693806982105, 0.34199259354233896, 0.34477151629874153, 0.3476772163999643, 0.3505580771178143, 0.353722569998554, 0.3565159205128944, 0.3590283073770794, 0.3618404117056501, 0.36462565949245085, 0.367583266069106, 0.37028984989350927, 0.37295822540752765, 0.3756345369415346, 0.3782904645811536, 0.38075182742711583, 0.3833847935415074, 0.3861190238895836, 0.38866716745296503, 0.3911892709493346, 0.39348891562024996, 0.3959804679579067, 0.3985371182002444, 0.4009358132343844, 0.40349299460239474, 0.40580072956000707, 0.40808503613653374, 0.4101860260626343, 0.41243727788124085, 0.4147894322603702, 0.416946563167072, 0.4190726617291194, 0.4208919706866606, 0.42298623950768904, 0.4253078697485009, 0.42726673717821473, 0.42919241748521536, 0.43104201996320723, 0.4329019796063289, 0.4344854398154173, 0.43629478769840035, 0.4380493235031613, 0.43996806598076943, 0.441588633909236, 0.44327089638846495, 0.4447980399419723, 0.4462889668238345, 0.4474451152308584, 0.44889595153276135, 0.45054451587479477, 0.4518486716072799, 0.45311141337238847, 0.4540271524887538, 0.45524176799563654, 0.4563868371411566, 0.4574798150767131, 0.4585130828354676, 0.459653070152594, 0.46054924775076145, 0.46120629375532085, 0.46203094252488436, 0.46279599442593616, 0.46361509517286564, 0.4642493853353594, 0.46492671122250756, 0.46544699263944367, 0.46592092764881976, 0.4661483024512896, 0.4665514945643214, 0.4670181150453393, 0.467285332824945, 0.4675004211284607, 0.46758030742641044, 0.4677003456481444, 0.467882660299586, 0.46787196909289663, 0.46781072860457473, 0.46770574207161103, 0.46754040872438796, 0.4673418534259295, 0.4670696059469893, 0.46674542838432687, 0.4662899018243617, 0.465870339293023, 0.4653743025661992, 0.46484207882704476, 0.4642517905873683, 0.4636565095301443, 0.46294485290644827, 0.462250826843622, 0.46142264836734503, 0.4605447605333946, 0.4594851792788546, 0.45852310325832113, 0.45749899282262657, 0.45642168713871306, 0.4552875455075498, 0.45396587265590993, 0.45273700707374, 0.4516452751777349, 0.4502690297272252, 0.4488453003364044, 0.4472086290628277, 0.4457104118392363, 0.44416642496556064, 0.4425540705038735, 0.44088793615875976, 0.43940201126830103, 0.4376020218441573, 0.43549386221011993, 0.43365170663452063, 0.43175489298238706, 0.4299702552292664, 0.42794773056479746, 0.4258916239562268, 0.4237858611789909, 0.42163931457087117, 0.41929045214009564, 0.4170828575817613, 0.414825661457696, 0.41252038711682165, 0.4101684584296415, 0.40772613015165293, 0.4052905180257712, 0.4029785481814589, 0.40043223127370875, 0.39785286707341494, 0.3952554236635259, 0.3926079806557751, 0.3899885327010527, 0.38726934168961247, 0.38452165041623365, 0.38162124827466276, 0.3788316436314308, 0.37619783904909654, 0.3733135500581542, 0.37040644205873646, 0.36735959561340736, 0.3644203597856777, 0.36124050902254656, 0.35826833235848987, 0.355256000762759, 0.3522549999845443, 0.3491639263811319, 0.3460089820807352, 0.34286376189406903, 0.3396898802592698, 0.33661684049563995, 0.3333746984266842, 0.3302287545785261, 0.3269397941525946, 0.3236415721424053, 0.3200632226398837, 0.3167796710590262, 0.3137865190670322, 0.3104149431866612, 0.3070401528258674, 0.3035112416303137, 0.30014729024730785, 0.2966538562601324, 0.2932796515062592, 0.2898880172129509, 0.28644712369799424, 0.28303071650150696, 0.27972451592409114, 0.27626680354567484, 0.27280594806268177, 0.2693801681325508, 0.2659102492634122, 0.2622647366226084, 0.25881947797730837, 0.2553661204521645, 0.25218080951532734, 0.2486821677453001, 0.244921908179079, 0.24148251232924592, 0.2380391820237555, 0.2347139941703862, 0.23125305085042305, 0.22784895645902237, 0.22439839395539626, 0.22095966757348634, 0.21767946560107823, 0.21424648582544834, 0.21065772361542337, 0.20728780787164283, 0.20392731022601443, 0.20063354160764757, 0.19728761608960074, 0.19394581939949995, 0.19063256151553046, 0.18733499602295822, 0.1839673217715727, 0.18071388789276738, 0.17742806516789447, 0.17420704454433802, 0.1709987657839637, 0.167940006428726, 0.1647446088538302, 0.16163768485922103, 0.1584835684857414, 0.1553579656968675, 0.15225307529976131, 0.1491846865133273, 0.14635794740615782, 0.14331756506106003, 0.140316868256876, 0.13721154439170424, 0.13430385381135979, 0.13132624531991585, 0.12848670919899627, 0.12567007663644153, 0.12292258430070245, 0.12014945983702803, 0.11742006249729459, 0.11470303724030562, 0.11201673857535906, 0.10950061249509174, 0.10685953823128796, 0.10430717012297165, 0.10173898286133522, 0.09921218421959369, 0.09686870825189844, 0.09440433070954597, 0.09179950053545066, 0.08945207478512293, 0.08716115516931965, 0.08487922718889757, 0.08263336862137809, 0.08054779456706532, 0.07835915612075459, 0.07620306854265592, 0.07410279491158339, 0.07204443653948817, 0.06996376391386569, 0.06799630170472581, 0.06636686185437485, 0.06443675684169431, 0.06256176036372467, 0.06071728228597832, 0.05894949167627735, 0.05709123306959362, 0.055436982021205373, 0.05382145310990199, 0.05248168030802987, 0.050914762241075946, 0.04939342463579929, 0.04793209776485522, 0.04652057721397804, 0.0451878588806936, 0.04386914920791055, 0.04262554851047382, 0.04140029225988809, 0.040223776848941385, 0.039020082945666466, 0.03794832802753673, 0.03709193910149173, 0.0360836294230388, 0.03512794574601416, 0.034167350194675324, 0.0333206571240184, 0.032306242870641974, 0.03157917640777241, 0.030886030628086123, 0.030510124903975894, 0.0298537317246834, 0.02914984943140953, 0.028612995424683572, 0.028122201748227677, 0.027696177115016245, 0.02729491941008424, 0.026925564374902466, 0.02661987133648024, 0.026359898950536906, 0.026104291389976334, 0.02594088742597225, 0.025952268002226688, 0.0258591340798742, 0.02581722017009539, 0.025942131207914984, 0.025985468248759695, 0.026084270724997416, 0.026236998126240373, 0.026442291494903142, 0.02668392805155268, 0.026992810957745993, 0.02725633305295119, 0.02767351920021331, 0.02813271071849483, 0.02845382221013159, 0.02902050266319299, 0.02968355773947345, 0.030308790949318373, 0.03097312522805371, 0.03167350458295061, 0.032418512246890886, 0.033365741984573996, 0.034172137565597074, 0.03502908725167429, 0.03598066043396645, 0.03693008163777803, 0.037809618280700195, 0.03887378462471494, 0.03997942367003969, 0.04125809301436199, 0.04243024919511446, 0.043452301105457995, 0.04474657858953529, 0.046076688406578324, 0.04769133176652943, 0.04906393107891569, 0.050492004550648666, 0.051966041065977964, 0.05348912975781824, 0.0548196124546376, 0.05646765400543507, 0.05821934941947021, 0.05992400458945045, 0.061666974050397144, 0.06341469624238516, 0.0652392726863634, 0.06705205193154491, 0.0689572868616107, 0.07089756359715604, 0.07299752434242793, 0.07499412346812322, 0.07689920068039663, 0.0789997349652426, 0.08113524408640099, 0.08352419533433823, 0.08570375142278712, 0.08772911958602188, 0.0900302473408299, 0.09236596669697199, 0.09486449829438921, 0.09725465326169702, 0.09952252656043387, 0.10201885893798916, 0.10454750396670097, 0.10710542025942944, 0.10970120397199357, 0.11241732731875156, 0.1150705127718208, 0.1177633106593242, 0.12046527304643123, 0.12323993321406433, 0.1259988037766654, 0.12885362744363732, 0.13174210205964274, 0.1348711496140192, 0.137801654337747, 0.14072930540141537, 0.14375643090579204, 0.1468239210929659, 0.14985958206843383, 0.15301446039108793, 0.15603444228154992, 0.15927898942018273, 0.16254816517425996, 0.16582075360088494, 0.1691458301963389, 0.1727794749422797, 0.17612358156181981, 0.17951220368194698, 0.18284613155254942, 0.18633168306173212, 0.1899197368905466, 0.19346618027505008, 0.1970506749323782, 0.20044323353918655, 0.2041303972373732, 0.20773906828990998, 0.21148616332863363, 0.21525279473949294, 0.2193149197130183, 0.22309086684249416, 0.22682730758679057, 0.2306908555781394, 0.2345871727814002, 0.23842201768764204, 0.24239477442343957, 0.24630765212581687, 0.2503448121670737, 0.25440441196667685, 0.2586902562637818, 0.26277175558691507, 0.2668631425757626, 0.2710192079332701, 0.27520781036374864, 0.2791464421885986, 0.2834335145570819, 0.2878816736459351, 0.29218099527498587, 0.2965061075444874, 0.30069168288453363, 0.3050891158143881, 0.30955162733577857, 0.31397650346610423, 0.31842242313528185, 0.3228033288425526, 0.32730317803166153, 0.3319063141090213, 0.3364297197627444, 0.34097611418575186, 0.3456428634592069, 0.35022191063350205, 0.35461046686835457, 0.3592706237761228, 0.3639435450906354, 0.36858102931029896, 0.3732873934906827, 0.378305738475306, 0.38299757411855834, 0.38771870941296027, 0.39240688058457274, 0.39718790920129804, 0.40201141362622755, 0.4068282415961586, 0.41166388969981793, 0.4161902442551721, 0.4211010818643207, 0.4261252180400369, 0.43101655444189335, 0.4359140742125603, 0.44092304541347116, 0.44581976660062295, 0.4505782340860221, 0.4555169204326241, 0.46062613928565027, 0.46554660774193546, 0.47047830090026704, 0.47519816086830075, 0.48017614795859515, 0.4852127217112698, 0.49017261451854494, 0.49513170629666836, 0.49999200712319203, 0.5049608159713062, 0.5099709926028713, 0.5149189342441352, 0.5198624809322825, 0.5249627225316104, 0.5298756334858289, 0.5345549721853237, 0.5395020435503733, 0.5444351124530524, 0.5496022578227172, 0.554476236075007, 0.5591848092346304, 0.5640772002116972, 0.5689558115860204, 0.573973992319698, 0.5788034930564797, 0.5836594922902841, 0.5884680411185618, 0.5932671843955429, 0.5977730663268308, 0.6025828354801454, 0.6074666286901771, 0.6122012763764911, 0.6169114832945937, 0.6214951164978854, 0.6261671074423086, 0.6309081385051152, 0.6355024966257079, 0.6400699619689004, 0.6447859904557673, 0.6492740102567139, 0.6534223710087238, 0.6579075237002145, 0.6623494652129429, 0.6670490573436207, 0.6713673790657682, 0.6756598140041676, 0.6799237843524163, 0.6841568809066673, 0.6882178502328345, 0.6924001432886521, 0.6966500956493203, 0.7007272951387211, 0.7047642188462906, 0.7085299726815154, 0.7125101912315833, 0.7165938390334082, 0.7204377455382371, 0.7242330983470207, 0.728061254846772, 0.731745206769052, 0.7353363674499341, 0.7389287130437777, 0.7424671523206179, 0.7460029534430268, 0.7494229945328091, 0.7525252544136866, 0.7558672790083596, 0.7591365375047855, 0.7625628197703902, 0.7656592752523924, 0.768637053606872, 0.7716222344993957, 0.7745420929026204, 0.777440628885764, 0.7802209178936271, 0.7827398734752022, 0.7854114932514806, 0.7880034307559906, 0.7905723249513277, 0.7929984960611925, 0.7953673825323104, 0.7976384938696534, 0.7998334497559318, 0.8021017366493497, 0.8041230282989458, 0.8057624195113379, 0.8076809294647457, 0.8095079648949501, 0.8112931382816274, 0.8129331906613726, 0.8144111645828858, 0.8158867109365741, 0.8172707824183241, 0.8185524451595849, 0.8197558652522948, 0.8208677977566746, 0.821888312549669, 0.8228173789995595, 0.8236736633088305, 0.8244170327463556, 0.8253549549803607, 0.825879862113191, 0.826328909125057, 0.8266204223627214, 0.8269196509461575, 0.8272061852981815, 0.8273188770401398, 0.8273453325419038, 0.8273251562675299, 0.8271689519516504, 0.8268378378599518, 0.8265140326865404, 0.8260940380504275, 0.8255586200370181, 0.8249473447238075, 0.8240836692858899, 0.8232950243748601, 0.8223992166235876, 0.8215965755808095, 0.8204648278213682, 0.819015030214649, 0.8177257969773649, 0.8163300097096293, 0.8149304507825296, 0.8133126630210513, 0.8114699852669459, 0.8096742280631223, 0.8077745699531436, 0.8058098457235492, 0.8037013317910389, 0.8017462166346593, 0.7994099643207179, 0.796990874054701, 0.7942020424458701, 0.7916494202389437, 0.789058290897146, 0.7862943926495098, 0.7834346830883427, 0.7804649654038964, 0.7774180065674945, 0.7742242449715441, 0.7709964326576447, 0.7676732712739733, 0.7642372830783544, 0.7607296538776774, 0.7573810610644562, 0.7536575860776099, 0.7498581236571891, 0.745917990740714, 0.7419723849193963, 0.7379491343365845, 0.7338405402907188, 0.7296514391341669, 0.7253447246176703, 0.7210008345815757, 0.7166886862720178, 0.7121696546220314, 0.7075780784970992, 0.7026399150407991, 0.6979386552506713, 0.6933007403157964, 0.6884094398987757, 0.6834450966109799, 0.6782662476376932, 0.6731777623537823, 0.668305180545004, 0.6630279138841372, 0.6576948593092405, 0.6522571005319698, 0.64681860488203, 0.6411115454965088, 0.6355841265792588, 0.6299885262082023, 0.6245228330458339, 0.6187742695290188, 0.6130101606010018, 0.607159447003939, 0.6012630540453864, 0.5951188899033938, 0.5891592170710707, 0.5832014945833567, 0.5771286330280253, 0.571009895682508, 0.5647308993177448, 0.5585413235545329, 0.5523655696117632, 0.5460787460262513, 0.5397547162260893, 0.5333580893522489, 0.5269708732276018, 0.520561991722779, 0.51410982042685, 0.5076299548368436, 0.5011019677431868, 0.49457585608281973, 0.4882073123116974, 0.48161506915316565, 0.4750144875121645, 0.4683047628035789, 0.4617023454805901, 0.45513701694992925, 0.4485067511987012, 0.4418711265463338, 0.43524284964511956, 0.42859944382007953, 0.42189190791311937, 0.41525752977383146, 0.40857724094315917, 0.40194899166739895, 0.3953215359419085, 0.38886256965539473, 0.3822229400000405, 0.3756191729804102, 0.36901221477507995, 0.36242527904412886, 0.35580672382399436, 0.3492694465036183, 0.3427749497019416, 0.33627696936370993, 0.3298038495842315, 0.32326695650595194, 0.31685957358253275, 0.310566835112592, 0.30419936464878333, 0.29786605636089486, 0.2914932606196439, 0.2852422561683212, 0.2790482674042439, 0.2728655198067286, 0.2667227618343825, 0.2604490391321905, 0.25441363400472666, 0.24858302648813105, 0.24260088057064172, 0.2366700426501642, 0.2307693596238777, 0.2249481444488934, 0.21919614562935352, 0.21348295968572056, 0.20782787421252694, 0.2022059574163621, 0.1966744761354803, 0.19123747376244982, 0.18582457856547077, 0.18047725043735222, 0.17529056789840097, 0.1700659750169858, 0.16476916541516634, 0.15971205834555594, 0.15472184872750055, 0.14979272054935738, 0.14494225914275125, 0.14009548398835608, 0.1353976908550529, 0.13077033732188562, 0.1263768484161992, 0.12187547190407433, 0.117364934080839, 0.11304514002627775, 0.10880527234085545, 0.10471023540394664, 0.10062520845931232, 0.09654023418182503, 0.09263940002351738, 0.08882089461619923, 0.08498059730916502, 0.08134316355091106, 0.0778489686959344, 0.07436388215257894, 0.07096492082706161, 0.06756649902663907, 0.06435307954858044, 0.0613696447756799, 0.05830591654209663, 0.05533626165009034, 0.05254687058042153, 0.04975381103107045, 0.04707033942620496, 0.04447161123671608, 0.041970163480426544, 0.039309737930938046, 0.0370328152701596, 0.034904265095874645, 0.032781745224034944, 0.030746460344312932, 0.028686214094155553, 0.026841050834179342, 0.025138093642363846, 0.023450629650318945, 0.02185063699355708, 0.02033458821808425, 0.018910590226745006, 0.017724484128362028, 0.016456688405515618, 0.015284764387586015, 0.014226065280908813, 0.013239291389642038, 0.012431764404381018, 0.011618362484590935, 0.010899939971007529, 0.01007918960173386, 0.009569680691098616, 0.009168751234094602, 0.008812463140527306, 0.008536220952188391, 0.008343306884745329, 0.008225196771646579, 0.008073038079329915, 0.008125799909724491, 0.00824947564207226, 0.008575674814977537, 0.008824772418720934, 0.009028106492674888, 0.009447922392211209, 0.009936255127339578, 0.010676820815413197, 0.011277708591539776, 0.01198230511350774, 0.012732518909892127, 0.013557365442293598, 0.014518496087534197, 0.015477995159142962, 0.01641919827962752, 0.017531363064951077, 0.01870553836359402, 0.019906424113786063, 0.02120443868983299, 0.022539349069240298, 0.023949907934255613, 0.025412683564534175, 0.026911551545116506, 0.02847732022880381, 0.03025256757849925, 0.03189268495854116, 0.033587536579474164, 0.03527826141569791, 0.037082289278460176, 0.03896825747426239, 0.04085453570186633, 0.042783828164117806, 0.0445362466638806, 0.04657317012071887, 0.048879221996254635, 0.050935058689301274, 0.05302916265675199, 0.05491870139887358, 0.0571126197982037, 0.05931310448637686, 0.06154390598951076, 0.06379131105404297, 0.06603232916126218, 0.06831428830003297, 0.0708577360858316, 0.073134762787648, 0.07543776332182901, 0.07760228091643487, 0.07996903809493662, 0.0826336270867604, 0.08497971986718342, 0.08734811360459614, 0.08956235778241958, 0.09198652405134394, 0.09435298649034844, 0.09678799036598351, 0.09921890293608031, 0.10182499025723232, 0.10422171218864172, 0.10654979278038158, 0.10895838831678009, 0.11136061958666851, 0.1136683221367184, 0.11606352110231481, 0.11845740889528428, 0.12081711601719809, 0.12315945329339094, 0.1256786511147208, 0.12795818218360636, 0.1302504506349404, 0.1325048017174277, 0.13474535501865403, 0.13687565014190645, 0.13909303313805335, 0.141468321784402, 0.1436087963836086, 0.1457308936722027, 0.14796341531155024, 0.15002431163289975, 0.1518940097248479, 0.15393684983046232, 0.1559456538234813, 0.1579267729477125, 0.15986314265690624, 0.16196924559424342, 0.1638047053056355, 0.16561290704013257, 0.1671959505908396, 0.1689669379581408, 0.1708768813868147, 0.17253408156047992, 0.17415595050151425, 0.17565809212742065, 0.17721468583792688, 0.17897454176814065, 0.18040985101615598, 0.18181329780254754, 0.18321247553066236, 0.1845413141710837, 0.185739542552669, 0.1870049774253712, 0.18826248202623266, 0.18943151347419826, 0.1905559488266205, 0.1917665232371256, 0.19278302540020514, 0.193587633334215, 0.1945463579880137, 0.1954536184623293, 0.19626845909837357, 0.197079132249597, 0.19804378034564313, 0.19872378054074358, 0.19936417651137406, 0.19977991044858567, 0.20036161401461994, 0.20086843385349606, 0.20134929960670458, 0.20177850945666437, 0.20219472355390358, 0.2025190935345173, 0.20305248315487615, 0.20325232429249976, 0.20342134714787605, 0.20362951972767018, 0.20372391568194845, 0.2035062816868163, 0.20357447690237185, 0.20359431557241295, 0.20374387152848839, 0.203649143081005, 0.20349778576928818, 0.2033376630806331, 0.20314218978650314, 0.2030019021074791, 0.2027255478106071, 0.2024766500972421, 0.2021352907096821, 0.2017681764420417, 0.2013187215689222, 0.2009067067510201, 0.20052197374500969, 0.20004543682889356, 0.199544559654328, 0.19901979434383305, 0.19847172081421663, 0.19782214425721759, 0.19723961974129764, 0.19663174874321526, 0.19609030454381043, 0.19542517788396274, 0.19452671002425995, 0.19385910655582828, 0.19316567127486586, 0.19250179583824897, 0.19175829466226743, 0.19105998808427288, 0.1902810386777254, 0.18949444728109374, 0.1886903323497915, 0.1878940634635391, 0.187131299710791, 0.18632368246633435, 0.18551716402260535, 0.1845476783238672, 0.18376798024443375, 0.18298390357537317, 0.182198112948221, 0.18141313740814524, 0.18058630322975341, 0.1798157662626667, 0.179373487610086, 0.17857494007147717, 0.17780452533566196, 0.17691537248841968, 0.17621888958875204, 0.17562453098362724, 0.17495797834976845, 0.17431841101359005, 0.17352630496974056, 0.1729659937599774, 0.17233881246119057, 0.17183099657739292, 0.17134275901240312, 0.17088459384054608, 0.1704433232731856, 0.17026713688120082, 0.16985519240602004, 0.16948966232338367, 0.16893790856466936, 0.16869561400478839, 0.1687583464957915, 0.1685534430548873, 0.16840312217769346, 0.16810082385612632, 0.16808611738023674, 0.1682878195717554, 0.1683405956290158, 0.16845083122448665, 0.16871675116776974, 0.16893129793263809, 0.1688575648425562, 0.16924645377060468, 0.16968052089541416, 0.1703056442967656, 0.17082115740347517, 0.17146617135555167, 0.17209822765276836, 0.17279858447736932, 0.17345149662518422, 0.17430534466715716, 0.17542603799338974, 0.1763839269682537, 0.17742052542257417, 0.1784493228184093, 0.17965405695234915, 0.1807110100049196, 0.18209237664855082, 0.18353691713615383, 0.18525763711871185, 0.18680958006291642, 0.18845120868296394, 0.19016682155508444, 0.19196560163726714, 0.19380272346216484, 0.1957743212753779, 0.19762451187596827, 0.19978532348378447, 0.20201747645682988, 0.20432317373969572, 0.20670437307643513, 0.2093318575520005, 0.21184767725097928, 0.21445308023455176, 0.21718167924443238, 0.21996139020357233, 0.22271555422882888, 0.225691355159427, 0.2287506522328595, 0.23173244559333506, 0.2349806738144735, 0.2385939221239565, 0.24195864879518664, 0.24541824558445904, 0.24890010916955085, 0.2525548777444111, 0.256240728078376, 0.2600770578015408, 0.26399678547813243, 0.2678947143971152, 0.27199443175793536, 0.27621646824419294, 0.2804655799340396, 0.28479552171084055, 0.28928510851169537, 0.2937664090454201, 0.2983249325497751, 0.3029756643006908, 0.30770872476579697, 0.3125006340938061, 0.31739836713951014, 0.32234048661480497, 0.3273980782129114, 0.33253030786676024, 0.3376576640749606, 0.34294720652525557, 0.3480945022774141, 0.35354669864084615, 0.35905467237717487, 0.3648037157799016, 0.3704032828749551, 0.3758913157854455, 0.381650080507161, 0.38746509540591423, 0.39361450064112763, 0.39950706819422854, 0.40539610459029807, 0.4114386437447733, 0.417543204271552, 0.42345990845680465, 0.4297140560046009, 0.4359804611986149, 0.4423230977760927, 0.4487062454526724, 0.45531381845945457, 0.4617539916525381, 0.4683452710033804, 0.4748696951602781, 0.48144494818643846, 0.4878162653997, 0.49451591008948953, 0.5012997295034298, 0.5080471558029812, 0.5148239135376068, 0.52183885711401, 0.5286430369369256, 0.5354572595755126, 0.5423340094123972, 0.5492389048312112, 0.5561427118863089, 0.5630985079871674, 0.5698320131435504, 0.5768520144346097, 0.5838304432016974, 0.5908547145410509, 0.5978752960360072, 0.6048916657023654, 0.6119030888447781, 0.619081446070644, 0.6260581740189193, 0.6330363729661967, 0.6399606669074718, 0.6469401582492145, 0.6539325025163643, 0.6608875446150917, 0.6678297012121469, 0.6745799777812587, 0.6815114093513382, 0.6886907893060353, 0.6955260096248101, 0.7023446830590001, 0.7090606521068538, 0.7158462986987236, 0.7227396601274497, 0.7294427325649138, 0.7361174864040045, 0.7427228673330877, 0.7493354402164079, 0.7556596742580648, 0.7622200768208247, 0.7687208089156923, 0.7752289307513869, 0.7815999192270329, 0.7880556055379816, 0.7942908636198424, 0.8004728845620941, 0.8066026068400252, 0.812669326382244, 0.8185621645525115, 0.8245182089088933, 0.830401707338047, 0.8360571437792392, 0.8418105092613144, 0.8477711187620816, 0.8533155291506749, 0.8587897287758628, 0.8641117917519644, 0.8694465942659542, 0.8746981098447463, 0.8798643730074107, 0.8849434644755527, 0.889907213229925, 0.8948097074145646, 0.8997645732309353, 0.9044587327634841, 0.9090639274873648, 0.9133595948582327, 0.9178065498510563, 0.9220846648641501, 0.9263212901646547, 0.9304447960353542, 0.934571498161195, 0.9384534927694966, 0.9420966404783736, 0.9457791309453983, 0.9493441103375416, 0.9530880843695858, 0.9563796099884255, 0.9593700988109537, 0.9624800410788488, 0.965471334656549, 0.968264263550339, 0.971025765643865, 0.9737744439094419, 0.9762704932138331, 0.9786469747037192, 0.9809853678481909, 0.9831088361677176, 0.9849300169352208, 0.9868387250003291, 0.9886158149382911, 0.9903779017182778, 0.9918774537720118, 0.9933649554852908, 0.9945998558819462, 0.9957146227443, 0.9964371515096623, 0.9973411771618993, 0.9982971881743654, 0.9988988808929606, 0.9993738135049763, 0.9997889616103008, 1.0, 0.9997859276017367, 0.9997849344079985, 0.9996409023992365, 0.9996186448073895, 0.9991606619179992, 0.998602012109811, 0.997894072849899, 0.9970629633750372, 0.9958150916970185, 0.9947731361884756, 0.9936616934660488, 0.9923312111854997, 0.9908681580470551, 0.9892024993917762, 0.9874872999152973, 0.9856619319105269, 0.9836802410215676, 0.981570557284357, 0.979281694640008, 0.9769268464233782, 0.9744338628165818, 0.9718284142088202, 0.9690988014742353, 0.9663142993254643, 0.9633327077214153, 0.9601866920023429, 0.9569810517340639, 0.9536590195418793, 0.9504361400796928, 0.9468584811571575, 0.9432069614687051, 0.9394253430334734, 0.9355446241753261, 0.9313355403711632, 0.9272854874853101, 0.9231951535977463, 0.9189150862731515, 0.9145319568351136, 0.9099196745896938, 0.9053515047461371, 0.900783276181781, 0.8959940539940465, 0.8911108650927406, 0.8860978448222403, 0.8810366054450168, 0.8757567500125267, 0.8705319652311754, 0.8652132770757675, 0.8601268492447673, 0.8545886412417749, 0.848822011034327, 0.843170598342017, 0.8374437482635877, 0.831804880670503, 0.8259124118784572, 0.8198916953948248, 0.8138871992950006, 0.8078198258913439, 0.8017249683459892, 0.7955324036604754, 0.7892162470415179, 0.7829218431498571, 0.7765708812839115, 0.769951517835246, 0.7635213880103218, 0.7570671459255828, 0.7505129469190795, 0.7439070475694004, 0.737196439211978, 0.7305041553574554, 0.7237966995592817, 0.7170135961803756, 0.7101936612450225, 0.7035952440177968, 0.6966779368475573, 0.689757814394354, 0.6828114974322931, 0.6758530863087749, 0.6686467614575747, 0.6616968033106017, 0.654840953235593, 0.647834768079231, 0.6408190426329746, 0.6336643261136637, 0.626652260255304, 0.6197984716748853, 0.612746616158603, 0.605699615013674, 0.598640223090738, 0.5916099863778597, 0.5845244910867585, 0.5775214028307513, 0.5705270877318163, 0.5634838608361763, 0.5565219095449657, 0.5494710512122637, 0.5425497373540062, 0.5356406837102236, 0.5289200805051318, 0.5220236572424021, 0.515173815673789, 0.5083400753759302, 0.50154170686635, 0.49451338813465856, 0.4878237266270681, 0.4812000901725943, 0.4745582336004275, 0.46795040131054755, 0.4615522173896307, 0.4549988679017742, 0.4484746649268958, 0.4420285071837999, 0.4356347525865253, 0.4291067988195262, 0.4228453037189974, 0.4168923563847373, 0.41069153162293137, 0.404274624614917, 0.3982410465575292, 0.3922579987578527, 0.3863282245316062, 0.3804542644574902, 0.3748976841912552, 0.36910947234719166, 0.36339818962297404, 0.35760961372722005, 0.3520711947308096, 0.346574532716268, 0.3411769206709361, 0.33584856669780583, 0.33072616266843285, 0.32552349093249966, 0.3203604374001016, 0.3153249879010674, 0.3103684496345162, 0.3053561399640052, 0.3005761981067695, 0.29584670953750597, 0.291217239476749, 0.2866626223916032, 0.2823722274947797, 0.27794802439377564, 0.2734443364598064, 0.2692202505329089, 0.2650755334173105, 0.2609812271111279, 0.25700221334521306, 0.25317143476409903, 0.24934609976840824, 0.2456070433445938, 0.2421423069616559, 0.2385526378942631, 0.23488747637355725, 0.23151285820663534, 0.22822314731222246, 0.2249058798951045, 0.2218008830424111, 0.21883510735714423, 0.21588170738217838, 0.21301256405572036, 0.2104569987079968, 0.20772780408650132, 0.20479544248397322, 0.20229707073770073, 0.19987553706974967, 0.19765561558330405, 0.19537431814207193, 0.19322379199476203, 0.19110749547355466, 0.18907804253069027, 0.18727335655049268, 0.18539682364512577, 0.18357422773817086, 0.1818833320589223, 0.18027774412413516, 0.17859063914791784, 0.1771720541624821, 0.1760017026829206, 0.17470413996140075, 0.1734880565068097, 0.1723443064655912, 0.17128731075027576, 0.17004748332909742, 0.1691746458177673, 0.16836093049040451, 0.16756203622121246, 0.16687436800815114, 0.16650040048632783, 0.16589742270866675, 0.16536779696758713, 0.16481562144269032, 0.16443868876360185, 0.1640339207655348, 0.1637919902172544, 0.16360518224939266, 0.16343175852028508, 0.16335904423156547, 0.16325110110754854, 0.1632912158187265, 0.16337662381125445, 0.16382286534331766, 0.16395869693631998, 0.16387137612213606, 0.16416491210458184, 0.1644987367162139, 0.16490992411030114, 0.16531795027951593, 0.16575895303570007, 0.16624771358765353, 0.1667740815785964, 0.16728043958000358, 0.16788528279220014, 0.1685356149276254, 0.16919850099243433, 0.16989063029552404, 0.1708661682028531, 0.17158055667211008, 0.17231194154423057, 0.17310475010086074, 0.1739290403360788, 0.17462787925575549, 0.17552603658800806, 0.1763298161984451, 0.17726963726206663, 0.17821538819003033, 0.17917790316011775, 0.18013264415713343, 0.1811035128085055, 0.1820656477762185, 0.18303139376088262, 0.18425505578077844, 0.1851922223822101, 0.1861099224512779, 0.18707670751629596, 0.18804947310908018, 0.18909694873771016, 0.19006486031628536, 0.1907572641202411, 0.19176249361854558, 0.1927491862724041, 0.19384485519610292, 0.1947775595474157, 0.19588948820636698, 0.19677166521024395, 0.1976491294173483, 0.19836482830421176, 0.19924348409677212, 0.1999839053434418, 0.20083256558928841, 0.201650600190672, 0.20253173217961262, 0.2032759596847721, 0.2041780414458173, 0.2048453356388158, 0.20549433822929447, 0.20585944165393683, 0.20649739893572855, 0.2071137779063477, 0.20766868316904522, 0.20818426960480163, 0.2088593408383675, 0.20927015231720672, 0.20977571168619003, 0.21011034353831506, 0.21041875177712982, 0.21072448745698388, 0.21096914788332685, 0.2109561838794747, 0.21116265618384755, 0.21131999897790904, 0.21139064466726437, 0.21145443617387283, 0.21154952038481897, 0.21150035089173083, 0.21140479740130722, 0.2115440277177648, 0.21131836959867945, 0.21100790676006317, 0.21072173723281964, 0.21039524337898804, 0.20989898605280802, 0.20950306657759096, 0.20914904581488297, 0.20863710485588322, 0.20807822759285452, 0.2074039904617495, 0.2067575025600642, 0.20608452644825384, 0.20532922043382526, 0.20452278531441132, 0.20378910926897525, 0.2028645460249354, 0.20198211933080257, 0.2009571646517206, 0.19989109428302498, 0.1987563051925862, 0.19760763602001727, 0.19639808897739386, 0.19515914281127417, 0.19387269728352238, 0.19246354057198486, 0.19109146565754626, 0.18990065823207883, 0.1883966536548289, 0.18685570486825975, 0.18535565459861245, 0.18372793952990285, 0.1818285904274447, 0.18015984490421028, 0.17844105412739147, 0.17694030551165937, 0.17509176421218095, 0.17296046462236522, 0.17108077604817143, 0.16915444863609366, 0.16728831351244935, 0.1652602923168348, 0.16315500280585596, 0.16106098318987977, 0.15896766891031047, 0.15679630829514735, 0.15459247488479616, 0.15265005280931013, 0.15034686797337676, 0.14794399818822027, 0.14562383316628866, 0.14328318815651597, 0.1410197274739439, 0.13862593332064793, 0.13594717874131207, 0.13355834137186012, 0.13113951252806705, 0.12877943157195496, 0.12629662175396797, 0.12397576289954657, 0.12143483497390736, 0.11888852401027908, 0.1163819301565438, 0.11381941383928991, 0.11114198589258399, 0.10858949803754893, 0.10602906730052973, 0.10336824506238915, 0.10080824836099714, 0.09820950397031712, 0.09563824517256864, 0.09306118926916827, 0.0905746880507035, 0.08798137859793244, 0.08557115189111002, 0.08296999173892383, 0.08038815830715662, 0.07779942236510541, 0.0752599669535638, 0.07278797351481009, 0.07028040640660148, 0.06779594755015375, 0.06539910152487349, 0.06295484874578856, 0.06021654469244593, 0.05787169168302655, 0.0555389000255391, 0.0534394611891632, 0.051113258972350646, 0.0489149035278371, 0.046645799230360295, 0.04441818884442146, 0.04200339901495338, 0.03988934710564091, 0.037888443818781745, 0.035827656205302816, 0.03380730048494084, 0.031968171588107844, 0.030016471021766855, 0.027930480155633795, 0.026110214860558593, 0.024334260291334057, 0.022792768518960057, 0.02108853959899925, 0.019408255490060793, 0.017832327158226392, 0.016316963807816255, 0.014855682149933465, 0.013465533757586112, 0.012123719466915386, 0.010863396690862764, 0.009668017033621924, 0.008426234947609223, 0.007379048466133406, 0.006330656624441198, 0.0054190917250741205, 0.004570934057341823, 0.0037360870868439013, 0.003028709903389078, 0.0025127393765715755, 0.0019269961463404082, 0.0014203299458370499, 0.0009149284575669521, 0.0005795898756333549, 0.00036335432066858595, 0.00017996029510993083, 7.977496299421731e-05, 0.0, 7.744888683700292e-05, 0.00022253319523240874, 0.0004686319348918876, 0.0007992908708509641, 0.0014111926339778077, 0.0018901702012065894, 0.002483387430627798, 0.0031583563699141104, 0.003932422449475791, 0.004613546556996368, 0.00560878551362472, 0.006766443752000599, 0.00792810773284149, 0.00918385434105219, 0.010504135457282633, 0.011953328237023117, 0.013406167561507337, 0.015055014906963255, 0.016793825697329155, 0.01887177816230936, 0.020762729316705898, 0.022625592970421573, 0.024746778123252995, 0.026965311734999414, 0.02920997314392931, 0.03163266015375602, 0.03408894021666292, 0.036707244420681545, 0.039417000937745264, 0.04221534147758857, 0.045110986133380306, 0.04816394270929913, 0.05123889198126586, 0.05441171086663679, 0.057787309036379464, 0.061141689418046395, 0.06466273808035834, 0.06821339812455628, 0.07186800123343878, 0.07535817386250147, 0.079249548886654, 0.08330791173004952, 0.08735830069957234, 0.09149903726859143, 0.09585759086359788, 0.1001620166907484, 0.1043225122300974, 0.10884881031922627, 0.11345512613381255, 0.11825091830584522, 0.12300483966844564, 0.12797733773102354, 0.13288790777017057, 0.13789107886259291, 0.1428983886388058, 0.14809159958040619, 0.15347934356394055, 0.15882084198506913, 0.1642482146343597, 0.16950391889168567, 0.17512915817329883, 0.18079361459098703, 0.18655339060004428, 0.19237737072850128, 0.19825053575393636, 0.20420464944514727, 0.21034178554439278, 0.21640590278841515, 0.2225385812195998, 0.22873436704817157, 0.23499953372117566, 0.2412753130422453, 0.24767182302828228, 0.2541251297337242, 0.26052495350246024, 0.26710154878342746, 0.27379222991902125, 0.2804525482307613, 0.28716164595065313, 0.2938616574700237, 0.3006708245857022, 0.30778758949918195, 0.314643533008455, 0.32155272038024624, 0.3282636197887503, 0.33530005100216365, 0.34256466501024485, 0.34963297114330244, 0.35673919895223405, 0.3638879352681333, 0.3710603819444536, 0.37808988977261, 0.38534122012890204, 0.3926073989871764, 0.40006759162815186, 0.40733709711438143, 0.4144662622524745, 0.42179569410749257, 0.429131574683586, 0.43633726200658324, 0.44369885531003295, 0.45112249129370424, 0.4584638474366105, 0.46580216232511606, 0.4730571007255058, 0.4803948827039518, 0.4878107604503785, 0.49511196057552764, 0.502403908152146, 0.5097296375726234, 0.5169912207990098, 0.5242436387928346, 0.5314764413794677, 0.5386916439693985, 0.5457478254679208, 0.5529381664710794, 0.5603213418629811, 0.5674168483084825, 0.5744899274175864, 0.5813457754231448, 0.5883887275516941, 0.5953366834807968, 0.60230020060346, 0.6091706435146415, 0.6160428634687417, 0.6228624266874514, 0.6298688981247738, 0.6365500279425041, 0.6432679137595646, 0.6498516537985133, 0.6563915457920584, 0.6628653185354582, 0.6693096355052391, 0.6757442788019221, 0.6820706308200951, 0.6883393882030913, 0.6943598737133326, 0.7005288279070222, 0.7067192753330594, 0.7127226440220744, 0.718653504597556, 0.7243222516359616, 0.7301265829340511, 0.7358239193691716, 0.7414540871304359, 0.7469946140202609, 0.7525805039650926, 0.7579238086413083, 0.7631426510428216, 0.768323231605123, 0.7734150587402533, 0.7785183174630957, 0.7834160820509656, 0.788294688454007, 0.7930083116469268, 0.79763499816125, 0.8021611254067731, 0.8066084761224742, 0.810770107067035, 0.8150516345639949, 0.8192248248824909, 0.82339485272187, 0.8273379473233174, 0.8309980071789137, 0.8347573931173236, 0.8384018362031422, 0.8419768860216078, 0.8453870200413302, 0.8486331768491426, 0.8518269526683843, 0.8549058702736038, 0.8578700367962089, 0.8607194812953164, 0.8634767070505542, 0.8660936925388256, 0.8685969569093939, 0.871226576244284, 0.8734709421657272, 0.8753134884268038, 0.8773910060047709, 0.8793460697865404, 0.8814835934177575, 0.8831570590079872, 0.8847079923184245, 0.8861742972025516, 0.8875319785348442, 0.888580535714579, 0.8897421522108692, 0.890802899278009, 0.8917155988428246, 0.8925076146370275, 0.8932094919632252, 0.8937578095914787, 0.8940984303389623, 0.8944233173238232, 0.8946261278894764, 0.8947304386007963, 0.8946893006666642, 0.8947331652027055, 0.8944313785513446, 0.8940245456414546, 0.8932262358098471, 0.8926428436858677, 0.892199175019078, 0.891337981337038, 0.8903720482908483, 0.8890492657126028, 0.8879046059505656, 0.8868657288279066, 0.8854554044222572, 0.8839421332897442, 0.8820141439774231, 0.8803346333676028, 0.8788319376555158, 0.8768778820434068, 0.8748261220693815, 0.8724551427440876, 0.8702365180061293, 0.8678446605863124, 0.8654176498703616, 0.8628821236176281, 0.8603270553335484, 0.8575711282204718, 0.8547112845184135, 0.8517649638876548, 0.8487247245214592, 0.8455056514867964, 0.842292947459138, 0.8389746223369547, 0.8355767837622924, 0.8320881552074645, 0.8286986327290475, 0.8250107815051153, 0.8212786939338045, 0.8174388095149902, 0.8135271527371392, 0.809581661628689, 0.8055229728293493, 0.8011106602247394, 0.7969523176102652, 0.7927109462502011, 0.7886638479832527, 0.7842307796623984, 0.7794570566387736, 0.7749422373767351, 0.7703537264591203, 0.7656907683287517, 0.760964202881873, 0.7562962753576522, 0.7514259976508876, 0.7465024883687854, 0.7415309249875088, 0.7365047754829889, 0.7312721911391483, 0.7261701721607409, 0.7210136552406169, 0.716105994369545, 0.7108108122948491, 0.705403436425208, 0.7000596658593093, 0.6946820281306412, 0.6890838031784275, 0.683665608678775, 0.6783230550503094, 0.6728113612408554, 0.667270977459065, 0.6617336405848601, 0.6561371405291032, 0.6502595138860222, 0.6446534309972799, 0.6390138703043737, 0.6333970507659662, 0.6276945294438272, 0.6221407357577745, 0.6163787650548452, 0.6106109808819652, 0.6046467762838686, 0.5988946102684956, 0.5932605151287111, 0.5874676102609064, 0.5816739531173318, 0.5759297653492187, 0.5701325977007194, 0.5642965339717841, 0.5585184634275803, 0.5527461619704082, 0.5468308602238445, 0.5410935878491391, 0.5353581370002484, 0.5296272019290754, 0.523903319950825, 0.5184368260159532, 0.5127027527676579, 0.506744751228048, 0.5010980817539152, 0.4954652845701461, 0.4899839412712399, 0.4843686777961036, 0.47867256289145216, 0.47312814031950234, 0.46760748941443175, 0.46232279718338937, 0.4568284420898399, 0.4510780710560746, 0.44570264176616625, 0.4403512143618141, 0.4349962609981691, 0.42970402623376575, 0.4246965901682435, 0.419432995367772, 0.41421740782879607, 0.4088994243533632, 0.4037985518539688, 0.39883483392322727, 0.39380193638215777, 0.388816651862952, 0.3839733300288938, 0.3790727268984939, 0.373929617826612, 0.36917483822931796, 0.3644572956177163, 0.3597755780332579, 0.35513980451169375, 0.3508029211986262, 0.3462235053347565, 0.34163764255891216, 0.33718853139132376, 0.33279572805299046, 0.32853453067810834, 0.3242453573993646, 0.3198068846909359, 0.3156660675677815, 0.31157381538638196, 0.30774946639007816, 0.3037309986269303, 0.2994654366827188, 0.2956150981679161, 0.29181063897542875, 0.28807281710511473, 0.2843634282688196, 0.280728745031236, 0.2771220071010303, 0.27357087546997483, 0.27014364519187456, 0.266697085941475, 0.26344685784076594, 0.2601051954040857, 0.25683182279045286, 0.25340378281640513