0.029037514101897813, 0.028832472497849482, 0.028678658633145365, 0.028589277216429565, 0.028514305739538316, 0.028386754265212522, 0.028383858975383973, 0.028400003734704356, 0.028473254252770034, 0.028513859056455947, 0.028564653604390575, 0.028631315261702574, 0.028707916668060832, 0.02877265739346729, 0.028868174037377282, 0.028957398346702204, 0.029065647002013154, 0.029178475226202368, 0.029238027043775882, 0.029367681837144957, 0.029499223329731934, 0.02963349025614862, 0.029771331323271772, 0.029984805269898895, 0.030123342992251133, 0.030216473824514496, 0.030382507165848192, 0.030556099998444105, 0.03069581129532543, 0.030892246049437865, 0.031103451824593387, 0.031315105552841116, 0.031536779180063576, 0.03171987658079006, 0.031970453871076276, 0.032291123008769344, 0.032554697655670845, 0.03283357904375942, 0.033119787171747, 0.03343173621363575, 0.03369710798211849, 0.03404983722258406, 0.03441616524609189, 0.03483927273186377, 0.03523019166021289, 0.035537069167815884, 0.035978422185425483, 0.03643328980095259, 0.03698007515399952, 0.037455573383588354, 0.03792792930774531, 0.03844869655414061, 0.03898954984965157, 0.03952917392224509, 0.04011414609836802, 0.04072034232916219, 0.04134571067411533, 0.04199215503111845, 0.042557522817193216, 0.04326036452103356, 0.04400750717118162, 0.044741111127856115, 0.0454950712281801, 0.04629788551584263, 0.0470911995864948, 0.047822763958713356, 0.048675132531582274, 0.04954729405445716, 0.050416107181991465, 0.05133379963332164, 0.05233781313221437, 0.05329049377919503, 0.05426975266586428, 0.05518410132259864, 0.05622881559327332, 0.05729444403528281, 0.058384512682527576, 0.05949846134150212, 0.060695015717095485, 0.06185170901704982, 0.06294356476678621, 0.06417089297320602, 0.06542250675288525, 0.066757238062501, 0.06805271392483896, 0.06929972980213221, 0.07066530394156768, 0.07205686484335012, 0.0735488600978721, 0.0749854864245508, 0.0764025841151339, 0.07791052886622475, 0.07944798677709555, 0.08098646180852605, 0.08258797960798833, 0.08420178835874652, 0.08586441848566319, 0.08755643337235594, 0.08933880789447746, 0.09108378955582123, 0.09286566504899957, 0.09467927728422351, 0.09652747102223677, 0.09838247157405607, 0.10030330422908063, 0.10220767010821252, 0.10420103558738915, 0.10622510931167321, 0.10833360011186219, 0.11041412567858806, 0.11245875594531159, 0.1146189051824645, 0.11681036555505755, 0.11902405406286973, 0.12128100312833902, 0.12361730031734423, 0.1259333105299114, 0.1282850862538886, 0.13059051165680907, 0.13302404830388, 0.13556944614096725, 0.13805534825714752, 0.1405778819696538, 0.14306561162867504, 0.14566973250296772, 0.14829375129141087, 0.1509636898867368, 0.1536655647071258, 0.15641538771117236, 0.15918004762675503, 0.16202294140329895, 0.16484911496766436, 0.16771134044957076, 0.17055970532978293, 0.17349901428437106, 0.17651379153451124, 0.17951164492575633, 0.18254391023676866, 0.18553291232626554, 0.18864247361238784, 0.19184962225727936, 0.19500827531557846, 0.1981999118163402, 0.2013612779493188, 0.204625336795717, 0.20793186915684123, 0.2112500989759703, 0.21459711214095992, 0.21793286677887266, 0.22134180187417538, 0.22484411773595148, 0.22829609587232985, 0.23177759099513118, 0.23520947674611364, 0.23875789961053423, 0.24233908187578745, 0.24593246502896554, 0.24953850281356127, 0.2531800447876648, 0.2568439447678891, 0.2605359747427056, 0.26424298463087614, 0.26796812092549405, 0.2717186187716781, 0.2754896957701751, 0.279352053970614, 0.2831537365142822, 0.28692768960451687, 0.29078053029960876, 0.29465118771104726, 0.2985751889334751, 0.30247484696798643, 0.30632709675824765, 0.3102695097874511, 0.31422402442806235, 0.31824571090916975, 0.3222160201528407, 0.3261288592299322, 0.3301346207468884, 0.3341480912831181, 0.33822436967378927, 0.34224492563769426, 0.3462205729077095, 0.35026577679429455, 0.35431530057052324, 0.35839633792739917, 0.36244925081492235, 0.3664784540344876, 0.3705420604829481, 0.3746063221347199, 0.37866932641271256, 0.38273289958088735, 0.3868467396553811, 0.39089970121105166, 0.3949523379335227, 0.3989840804958791, 0.4030347618697616, 0.407097240116058, 0.41113456190040704, 0.4151656869050778, 0.41917859743901775, 0.4231952537763572, 0.4271304824986648, 0.43113468144964, 0.4351226258050802, 0.43911800883034885, 0.44306898749883034, 0.4469673206280909, 0.45088916967811143, 0.4547908590997592, 0.45866696842089044, 0.4625271115938974, 0.4663781511550678, 0.4701911437885748, 0.4739810291218491, 0.47775534702202077, 0.4814952004535163, 0.485167385471841, 0.48886068706092534, 0.49252410602019336, 0.4962015856157932, 0.4997974109249815, 0.5033841081543845, 0.5069168555000854, 0.5104187366643695, 0.5138546279261874, 0.5172950919142273, 0.5207423499211332, 0.5241030485746141, 0.5274275998616602, 0.5306917514090128, 0.5339429846909067, 0.5371529405109094, 0.5403205971118098, 0.5434449432435373, 0.5464718744858534, 0.5495133220527072, 0.5524849904592103, 0.5554299656948694, 0.558323399472008, 0.5612432827706066, 0.5640222895326947, 0.5667019439017519, 0.5693888080764344, 0.5720217555298093, 0.5746036728308762, 0.5771261150539995, 0.5796239888963445, 0.5820297784615679, 0.5843798023637429, 0.5865909515848736, 0.5888367362361789, 0.5910082705239152, 0.5931283713851737, 0.5951838616023555, 0.5972673832663151, 0.5991809856171175, 0.6009388404243003, 0.6027425307563021, 0.6044782055767339, 0.6061612802050885, 0.6077580776072707, 0.6093242186650555, 0.6107796443823469, 0.6121680917908451, 0.613447715087187, 0.6147049975808537, 0.6159329166928834, 0.6170412752731105, 0.6180796468508346, 0.6189724812056512, 0.619878214387615, 0.6207535798052848, 0.6215010542192205, 0.6221748355637081, 0.6227213839923449, 0.6232532054134597, 0.6237662454317408, 0.6241348050051604, 0.6244288427796958, 0.624659952295942, 0.6248020339079867, 0.6248774115074881, 0.6248676646401794, 0.624782377569328, 0.6245692265364172, 0.6243381934068521, 0.6240649990226024, 0.6236702288635954, 0.6231982659582579, 0.6226103255919025, 0.621988406649555, 0.6212457139483039, 0.6204697619225258, 0.619612277572522, 0.6187534980331452, 0.6177245834833499, 0.6165997237698311, 0.6154223905899086, 0.6141682220063639, 0.6128421668268645, 0.6114341129026503, 0.6099439199151524, 0.6083845976994956, 0.6067492237088333, 0.6049499909848923, 0.6031745710934433, 0.6013625762869623, 0.5994227031165036, 0.5974073578377183, 0.5952797504712608, 0.5931200614513589, 0.5909305317834628, 0.5886145654203172, 0.5862272927677427, 0.5837305941014944, 0.5812071202535933, 0.5785948543559895, 0.5759306127560369, 0.5731952876882045, 0.5704007410384142, 0.5675248520709818, 0.5646043557225424, 0.5615913480798093, 0.5585138052332771, 0.5553917155349625, 0.5521847232233359, 0.5489115714832986, 0.5455831339441494, 0.5421943567677231, 0.5387652890796217, 0.5352556450948104, 0.5316842458516083, 0.5280620494988971, 0.5243840922804638, 0.5206343108538908, 0.5168495094407529, 0.512946654445253, 0.5090628505182329, 0.5051235570074767, 0.501123165871429, 0.49707866120643257, 0.4930204374005352, 0.4888705016096704, 0.4846746246623184, 0.4804726196294906, 0.47618356231843556, 0.47178191948774406, 0.46742258321086416, 0.46302087556706895, 0.4585819995271895, 0.45409980687555285, 0.4496332066690091, 0.4450707483765528, 0.44047668456055955, 0.4357916835342708, 0.4311451195275341, 0.42650534379748095, 0.4217918433983971, 0.41702773536718596, 0.4122655959218351, 0.4074781450413319, 0.40264271847363026, 0.39781210784112125, 0.3930219821862269, 0.38814052997092846, 0.38324357781651297, 0.3782573764232706, 0.3733421587564005, 0.3684528282432635, 0.3635013432980663, 0.3585393923898343, 0.3535260870535093, 0.34855260748040984, 0.3436101870918361, 0.338615835056888, 0.33361830971531153, 0.3286551206304883, 0.323650584290219, 0.31864883109241815, 0.31365088750703357, 0.30865781918823093, 0.30364538153408543, 0.2986685996720797, 0.2936371068733344, 0.2886831727905009, 0.2837353855718956, 0.2788812999024231, 0.2739404972709943, 0.2689906985384186, 0.26408678306429106, 0.25919979519128733, 0.2542923608370655, 0.24944784897038305, 0.2446025180051847, 0.23979897570911549, 0.23501588673491539, 0.23030314036595265, 0.22555963479464888, 0.22085844133421068, 0.21616982326878872, 0.2115119678623878, 0.20682909352835835, 0.20224277522473996, 0.1977170682928824, 0.19318923719280862, 0.18869633390796312, 0.1842575405992117, 0.1798354229020704, 0.17546933026091463, 0.17112421441199877, 0.16682093816795243, 0.1624986933903729, 0.1582891230416954, 0.15415279050279582, 0.15002166962600824, 0.14593550398816352, 0.1418963918201058, 0.13790263840941047, 0.13398186752815103, 0.13008100625362473, 0.12623082827009932, 0.12235346281468044, 0.11861630790178648, 0.11495252167743279, 0.11130942201464135, 0.10771811072324197, 0.10423254077740197, 0.10074059331241654, 0.09730220399689787, 0.09392536077494076, 0.09060608275883247, 0.08735194974348112, 0.08414790328961075, 0.08094491423822575, 0.07786644634012331, 0.07484426995154586, 0.07194912654874593, 0.06903284409129569, 0.06615347741062377, 0.06336492279815537, 0.06063722707549195, 0.05794769399225794, 0.05534530323874067, 0.05286831038542222, 0.05037849584390693, 0.04795325377564631, 0.04553561872107547, 0.04324599558990122, 0.041077453890753936, 0.03890194955515231, 0.036791074940085516, 0.03477711875896577, 0.03279050907015713, 0.030859860848303743, 0.029005188392770172, 0.027214595878627075, 0.025434611614676885, 0.023777805749458477, 0.022234144488302854, 0.020690802018900053, 0.019210623907289767, 0.017861977727016188, 0.016498161528911776, 0.015142184229561689, 0.013916270012481573, 0.012751016496723912, 0.011668983676828708, 0.010621031234316304, 0.00973164743089702, 0.008792370626762611, 0.007918233944220776, 0.0071428864672307465, 0.0063906533843476054, 0.005705385493900367, 0.005078021120090049, 0.004511582646230243, 0.004053148283711759, 0.003598946993666795, 0.0032074387616560433, 0.0028721218770453617, 0.002594583308916253, 0.0024086250256306744, 0.002238702926605842, 0.0020961914750442096, 0.00204141243795159, 0.0020389256439042763, 0.002192851754221122, 0.002279069528681546, 0.002406449767170191, 0.0026041531311612673, 0.0028535397338007805, 0.00316297646002494, 0.003510724444140086, 0.00397827119445665, 0.004413044813592593, 0.004898159528960699, 0.005415107251347851, 0.005998322615743166, 0.006645742523373966, 0.007315138285364163, 0.00802824130665875, 0.008830914751738318, 0.009621928313918449, 0.010471549640532549, 0.011345002054259501, 0.01225951503392916, 0.013237854231440065, 0.014227403593801242, 0.015300149240934535, 0.01635979171876111, 0.017457877021541075, 0.01865320129729308, 0.01981600327877538, 0.021065781881331718, 0.02229556907990898, 0.023562271154306223, 0.024890552873194343, 0.026222223433454175, 0.02754726437215992, 0.028948688500057603, 0.030377856279988867, 0.03183004857651797, 0.033311935113616006, 0.034839989486660866, 0.036367129743780514, 0.03791820208014841, 0.039524811551213956, 0.04111673827870764, 0.04277991441179744, 0.044410585397101715, 0.046064812016818606, 0.04772313685613286, 0.04942280600406689, 0.05122573763834567, 0.05295135696475519, 0.05469870086149655, 0.05649041064647638, 0.05827379232960293, 0.0600990735581739, 0.06191615694429484, 0.06375094395987914, 0.0656069700083947, 0.06747279747548024, 0.0693180713310045, 0.07121621182758635, 0.0731249162158241, 0.07511122235353357, 0.07703090331505447, 0.07890789399341508, 0.08085926517875627, 0.08281847711863843, 0.08485276267540319, 0.0868180735948674, 0.08875178498728806, 0.09074288899043229, 0.09274068619773664, 0.09480519266796997, 0.09680778818946786, 0.09881714686998598, 0.1008376675077065, 0.10286584486777628, 0.1048842268910119, 0.10692825461244057, 0.10894976058957734, 0.11100753614933676, 0.11314338137297705, 0.11519823317758311, 0.11726063580860452, 0.11931073629772056, 0.12138913283785187, 0.12345328691929061, 0.12554408958614535, 0.12763857495720232, 0.12979353067222812, 0.1318884157069507, 0.13397833666521053, 0.13608861293953106, 0.13820469943961472, 0.14033493477036016, 0.14246129321871337, 0.14455754254342426, 0.14670063267598416, 0.14884775165764547, 0.15094854896801252, 0.1531111564980387, 0.15528321929841346, 0.15745009848159963, 0.1596210715890068, 0.16185227216577835, 0.16402623444091777, 0.16621641757584493, 0.16840752223711034, 0.17060824976175856, 0.1727535436372772, 0.174982146810262, 0.17726183994858877, 0.17949842185078294, 0.18174542422157858, 0.18401163330201775, 0.1862794432583336, 0.18856646521979678, 0.19085763127837274, 0.1931618621924614, 0.1953841369933682, 0.19772755588503946, 0.2000797503067535, 0.20244189520411618, 0.20481509429555333, 0.20719676673804616, 0.20959559447236784, 0.21200822758917592, 0.21443558163339035, 0.21687852830593354, 0.21933548664282018, 0.22181238792715044, 0.22436387036899327, 0.22687007459700662, 0.22939881656312308, 0.2318851815593022, 0.23446805016708508, 0.23705257732826393, 0.2396781427880197, 0.2423241850149071, 0.24500493927567935, 0.24769308674869583, 0.2503581262917738, 0.25310087026419614, 0.2558663574609695, 0.258682199035271, 0.26149292870728397, 0.264373123121438, 0.26723362818279206, 0.270125045808517, 0.27303559725747073, 0.2759912616337657, 0.2789298278283472, 0.2819544055681745, 0.2850083643205011, 0.2880358301420808, 0.2911582283885836, 0.2943575175112185, 0.29753222068157026, 0.3007405135525846, 0.30399628576268645, 0.3072718915178436, 0.31047858721782506, 0.3138400742232646, 0.31723259661843817, 0.3206525724026482, 0.3241113962920474, 0.3276405890482624, 0.3311641228701147, 0.33472568513491235, 0.3382521484434057, 0.3419005140578549, 0.3456505117355395, 0.3493619558034401, 0.35311420258654086, 0.35682299552584684, 0.360668184948323, 0.36460797530161704, 0.3685200159374182, 0.3724735451828847, 0.37637700754858255, 0.3804255873492092, 0.3845217855654589, 0.38864332214871933, 0.392803741263446, 0.396983028761036, 0.401225227783582, 0.4055365806302747, 0.4098533498281662, 0.414211549015496, 0.41858584121860765, 0.42303008302538264, 0.42749008396680843, 0.4320172549690984, 0.43658307120299605, 0.4411985499866964, 0.445840670364632, 0.4505090055770762, 0.4552316356277604, 0.4599926591620677, 0.4647243464277189, 0.4695702138868676, 0.4744621489513746, 0.47937472300618356, 0.4843223283090661, 0.48925419183654967, 0.4942779335514299, 0.4993176721059248, 0.5044068570327439, 0.5095269023586823, 0.5146681385379229, 0.519850967266769, 0.5250625288382441, 0.5303051357022505, 0.5355770085236182, 0.5408535769608539, 0.546185653033096, 0.5515670305899532, 0.5569484791055515, 0.5623565584289931, 0.5677844111403159, 0.5732439949915316, 0.5787079417960999, 0.5842163970153295, 0.5897455613849033, 0.5952776867397821, 0.6008477917485932, 0.6065025161412215, 0.6120972617441497, 0.6177110107219703, 0.6232637705663829, 0.6289208272995956, 0.6346253065359335, 0.6402967716813228, 0.6459785179878395, 0.6516595756283342, 0.657359138742301, 0.6630354654607171, 0.6687488482110385, 0.674463703181414, 0.6801306294517998, 0.6858511032897363, 0.6916078398453326, 0.6973126928418905, 0.7030132085188971, 0.7086560977419901, 0.714350288571673, 0.7200957099681212, 0.725757838262503, 0.7314097402630791, 0.736967621893125, 0.7426042714499418, 0.7482100460935379, 0.753806971881824, 0.7593810481731066, 0.7649419928328243, 0.770465484630107, 0.7759329009363082, 0.7814069548973279, 0.7868504720286102, 0.7923345735897999, 0.7977039160233101, 0.8030077140456098, 0.808318339431323, 0.8135923743186875, 0.8188172340509174, 0.8240142817975842, 0.8291532386861776, 0.8342658035361035, 0.8393317414478585, 0.8444025877200011, 0.8493638260200146, 0.8542488786642373, 0.8591147101725238, 0.8639264692262687, 0.8686485963147589, 0.8733511903502604, 0.8779852941655321, 0.8825648324182134, 0.8870797431210371, 0.8915309789945277, 0.895911922136264, 0.900284267379923, 0.9045181552830239, 0.9086894333256578, 0.9127832300990402, 0.9168046998162415, 0.9207180731836437, 0.924593290872017, 0.9283535260847053, 0.9320716632036102, 0.9357047863459975, 0.9392251147251053, 0.9426878619836054, 0.9461376097798174, 0.9494090514726127, 0.9525924406113192, 0.9556172475813892, 0.9586280772576078, 0.9615902276896285, 0.9644000221340268, 0.9671135107755283, 0.9696870116500097, 0.9722089476784582, 0.9746642107461019, 0.9769748251109094, 0.9791826203960244, 0.9812187320547734, 0.9832256401803756, 0.9851379108414412, 0.986921564837494, 0.9885945121257006, 0.9901366505689515, 0.9915882508936976, 0.9929546554833989, 0.9941736463468882, 0.9952788447980299, 0.9962440380739325, 0.9971222834373403, 0.9978864247822853, 0.9985281952016095, 0.9990513181830185, 0.9994431504963994, 0.9997288018984725, 0.9999658827059101, 1.0, 0.9999163945420745, 0.9996610065875575, 0.9993458957593195, 0.9988676638668289, 0.9983107421556981, 0.9976278008061924, 0.9968817181569554, 0.9959391534761732, 0.9948382256858671, 0.9936555349755936, 0.9923479423473172, 0.9909323811093045, 0.9893729881426071, 0.9877176015064069, 0.9859071896182412, 0.9839746260764557, 0.9818232341299298, 0.9796582793114091, 0.9773849221700013, 0.974962977159919, 0.972416130006101, 0.9697450555871588, 0.9669504344132206, 0.9641065776401764, 0.9610576385425881, 0.9578913986897706, 0.9545331786199278, 0.9511423390877052, 0.9476234850216605, 0.9439930370749312, 0.94024346141816, 0.9364012014461341, 0.932413467851622, 0.9283318650495751, 0.924113689158095, 0.9197841695627743, 0.9153586323115117, 0.9108071860792544, 0.9060694746063259, 0.9013132208908554, 0.896446632284937, 0.8915244875452302, 0.8864355262480147, 0.8811681636984403, 0.8758853030322631, 0.8704983003188653, 0.8650054675978, 0.8594164093095843, 0.8538107967711742, 0.8480160116969606, 0.8421309880771232, 0.8360628002314592, 0.8300129157668998, 0.8239317158021933, 0.8176930649270149, 0.8113704795279066, 0.8049740536508116, 0.7984875095101648, 0.7918561850686558, 0.7852229297358782, 0.7785109887118519, 0.7717057851162707, 0.764845543227889, 0.7579897976978002, 0.7509766927456748, 0.7438999355960767, 0.7366924519088722, 0.7295023021645255, 0.7222885838050158, 0.7149716034897505, 0.7075994419482854, 0.7002019383651727, 0.6927221693750282, 0.6851166388937863, 0.6775540871333428, 0.6699437160762439, 0.6623533450463425, 0.6546469976294759, 0.6468572510931331, 0.6390862176197398, 0.6312802966835033, 0.6234721362644514, 0.6156000374613281, 0.6076248875801287, 0.5997131301269121, 0.5917756356119908, 0.5838237038161858, 0.5758421597407959, 0.5678437277312287, 0.5598310225974412, 0.5518066211161214, 0.5438297897624821, 0.5357824183023328, 0.5277075163499798, 0.5196635435934491, 0.5116211316269131, 0.5035958284371647, 0.49556167360645903, 0.4874569780705402, 0.4794532800979829, 0.47145854622598515, 0.4635323105017439, 0.4555566859791356, 0.4475591745611547, 0.43963174261175697, 0.43172657526029623, 0.4238883862867749, 0.4160297750387887, 0.4082151408611474, 0.40042081388655093, 0.39266306127798084, 0.384860503051698, 0.37719212496027055, 0.36961928821042633, 0.36202138560764313, 0.35446942003124604, 0.346885687147121, 0.3394415038211434, 0.3320457961406715, 0.3246985350014689, 0.31740358479365044, 0.3102453487676133, 0.30305155961160474, 0.29590333263117885, 0.28884059532028095, 0.2818433809495425, 0.2748939724796992, 0.26803500986769835, 0.26123556205888554, 0.2545178557802316, 0.2478721281889896, 0.2413012785042192, 0.23480438287725588, 0.22837963473568146, 0.22203883590373066, 0.2157777677711707, 0.20961360382295546, 0.20351441496662695, 0.19749410598326844, 0.19156671994477317, 0.18572629994403692, 0.17989317837664223, 0.174240458572877, 0.16866276778285189, 0.163184926211204, 0.15779568911273562, 0.15248093955444214, 0.14727549460267084, 0.14218145296425036, 0.13715911582191878, 0.13223256813669798, 0.12747279720844856, 0.12273185790673902, 0.11808008298422068, 0.11354589644296606, 0.10911379258066171, 0.10479493061200779, 0.10056648994556676, 0.09634743218300025, 0.09233807970431002, 0.08848516775516646, 0.08466637608117149, 0.080950964646518, 0.0772799752621831, 0.073779298137528, 0.07046598938513525, 0.06715579443145572, 0.06395189869465383, 0.06080807070016321, 0.05782146083223362, 0.05489038518943993, 0.05211491146435483, 0.0494392964280617, 0.046921710939464435, 0.04443910474697256, 0.04199847328731294, 0.03973018645702221, 0.0375609107376321, 0.03556418812176389, 0.033583298337800646, 0.031707460897328316, 0.029930615368613203, 0.028254686111015028, 0.026666649204803407, 0.02519120805465899, 0.023792604043997093, 0.022513583101551722, 0.02132897427954807, 0.020224732547280914, 0.019228271949125433, 0.01830854788001523, 0.017495556963216793, 0.016771315621689042, 0.016178477852945863, 0.015623792833644935, 0.0151625457830029, 0.014783140380834545, 0.014489942617274494, 0.014309316134177909, 0.014180829170817564, 0.014059857737622115, 0.014106433976183701, 0.014229005434765166, 0.014431384448128397, 0.014702221503582576, 0.015036422183005932, 0.015453270666226324, 0.01594005071896381, 0.016565493797478924, 0.01717942550087911, 0.017778768261170266, 0.018541186216812534, 0.01936481512830768, 0.02025201874701117, 0.021193775383057997, 0.02220143223979787, 0.023255557213815347, 0.024364626392777925, 0.025529427843288877, 0.026743171833054236, 0.0279973720856721, 0.029310828709010164, 0.03067037132795904, 0.032152754273542763, 0.0335894404974059, 0.035078696405584406, 0.036602726771513945, 0.03816775764750384, 0.03968575756213039, 0.041336655583387664, 0.04301447015159002, 0.04472283470469555, 0.046457351935142714, 0.048252666525280284, 0.05003018716826127, 0.05188058183505605, 0.05369667678152012, 0.05553504864411795, 0.0573921645302108, 0.05926832588385861, 0.061100758625266066, 0.063013069192192, 0.06493322283784093, 0.06686084470067856, 0.06879176792273503, 0.07074873478928116, 0.07268134528833337, 0.07461506972071005, 0.07664824351633195, 0.07856603776063979, 0.08041752811928254, 0.08234384945461311, 0.08426261304556065, 0.08622993992336915, 0.08812086707282984, 0.08996474487447641, 0.0918389551383075, 0.09369716572399386, 0.09557387861165602, 0.09739043588465278, 0.09919406057319063, 0.10097003737146858, 0.10272369014916878, 0.10450029382086808, 0.10619803319185396, 0.10786125385582485, 0.10950850803994229, 0.11112650300491601, 0.11278836591630528, 0.11433335953516625, 0.11580135749894813, 0.11729037241395811, 0.11874280555865598, 0.12021033138623202, 0.12157867132832058, 0.1229141617873938, 0.12420488444133998, 0.12545500822154518, 0.1266823690394751, 0.12784453146002453, 0.1290825356448337, 0.13014096203488482, 0.13115986187774487, 0.1321286760049926, 0.13306346509772354, 0.13399838594814525, 0.1348344418307952, 0.13562454438690147, 0.136399726174034, 0.13708931312416053, 0.1377100996228015, 0.13830437327533737, 0.13884669449465226, 0.13935792605432326, 0.13979112824131404, 0.14020152646251244, 0.14052424735267388, 0.14079437060084923, 0.14109322509486452, 0.1412456805054005, 0.14136880567820073, 0.1414179176508069, 0.14141640426476004, 0.14139356157918484, 0.14128452300200145, 0.1410894174913011, 0.1408820176780748, 0.14062043985719636, 0.14034323705431515, 0.13996831389341283, 0.1395354256844875, 0.13905729401326386, 0.13852678575593186, 0.13796819422764173, 0.1373304357359323, 0.1366653120488908, 0.1359242687727687, 0.1351347238546814, 0.13438981081014517, 0.1334922211326198, 0.13251966330902545, 0.13154116728007087, 0.13051810680287257, 0.12954494782283235, 0.1284219494061212, 0.1272585611846501, 0.12605979129439815, 0.1248228392800513, 0.12353828575058616, 0.12222704284384915, 0.12089268827427826, 0.1195051352893874, 0.1180823197017913, 0.11660329973867163, 0.1151151489311373, 0.11368969465378986, 0.11212284426417272, 0.11053004596141333, 0.10892632215704691, 0.10728155391140977, 0.10562091253694596, 0.10392979977113397, 0.1022176961409075, 0.10050608363004414, 0.09875240079069451, 0.09692413910677657, 0.09514556370834107, 0.09334934044671718, 0.0915842624006394, 0.08975198277568323, 0.08789664692642546, 0.08604788047484715, 0.084191438436264, 0.08236152152559621, 0.0804904855968275, 0.07860647588788433, 0.0767366002823733, 0.0748680864193076, 0.07303516760470091, 0.07117023051831171, 0.06925558710421624, 0.06741589531609714, 0.06558417269190671, 0.06385900940397667, 0.0620371161973169, 0.06017795500200947, 0.05840336372374828, 0.0566620444880638, 0.054925028633827096, 0.05321127919363833, 0.05149114249328836, 0.04983308893188671, 0.04820056254940263, 0.04659815280331453, 0.0450264332960918, 0.04351756537388176, 0.0420093554368574, 0.04049356640314782, 0.03906940159954427, 0.037684315031471946, 0.036423646407005954, 0.035112335810843893, 0.033769981695367116, 0.03256980733268925, 0.031417509397785134, 0.030363375185322547, 0.029306713476455828, 0.028276361471549948, 0.027337969264177434, 0.02645735373258307, 0.02566643206842016, 0.024902760511253053, 0.024133707468862505, 0.023509541090712637, 0.022948900588279874, 0.022515317940080697, 0.02207981312372757, 0.02164580459491584, 0.021365986146100597, 0.02115742623018966, 0.02104972700888364, 0.02098562705865223, 0.021023783263393967, 0.02111426789930015, 0.021286988028205247, 0.021496005588837328, 0.021842528292431725, 0.02222734178874747, 0.022746866971694667, 0.02334969429025657, 0.02403631041582988, 0.024810869915502548, 0.025707228203809426, 0.026654932568711452, 0.02769526364792826, 0.028823150291640433, 0.030052342999172286, 0.03139226991958718, 0.032810447860353316, 0.03432626239858665, 0.03591623363817605, 0.037632316915664786, 0.03937897684316136, 0.041300688923452004, 0.0433182278372332, 0.045491918773872986, 0.04769707353570196, 0.049973198613887077, 0.05238739000197142, 0.054902868163440706, 0.05751051765798568, 0.06023133736189279, 0.06297948012878671, 0.06591447240449305, 0.06894816182639417, 0.07213451902610142, 0.07536134740220994, 0.0785978996235142, 0.08204439745949751, 0.08558949728089939, 0.08923991081493138, 0.09298333171573533, 0.09688521268325921, 0.10082257331130794, 0.10486401288498678, 0.10897887878409417, 0.11323080922841301, 0.11753890551165758, 0.12199776421278441, 0.12655414796428352, 0.13120912664286555, 0.13595988931221484, 0.1407532077022795, 0.14570412114713685, 0.1507478687302641, 0.15594582199739676, 0.16116678362121264, 0.1663793170290724, 0.17180309371997923, 0.17731429009680816, 0.18290658271735144, 0.18859237087348396, 0.19435188409573018, 0.20021014721986352, 0.20615212979084188, 0.21223619916230052, 0.21833571786631775, 0.22450394249946512, 0.23077267693496847, 0.23712177831845932, 0.2435087207261744, 0.2500192270638608, 0.25662009230980026, 0.26327410193031775, 0.26999987421138605, 0.2767861828621531, 0.28365193772451114, 0.2904923277764931, 0.2975007635362394, 0.30456708763381474, 0.31173133550250465, 0.31890511331334226, 0.32607654709912615, 0.3333696841068281, 0.34071281956596416, 0.3480744267040026, 0.35551719768646045, 0.3630388804881473, 0.370563626382267, 0.37813128605771856, 0.3857628652000812, 0.3934076165143568, 0.4010085476627494, 0.40873789923337356, 0.4164963225821437, 0.4243231948269831, 0.43212950075368206, 0.4398870902204182, 0.44775282026006274, 0.45563591002751336, 0.4636022257468599, 0.47150622841316336, 0.47935472497720577, 0.48729659799940894, 0.49524510085603435, 0.5032730902771745, 0.511219405292433, 0.5190883557150645, 0.5270516882152371, 0.5350096061100877, 0.5429371153790659, 0.5508808542245827, 0.5588851495327962, 0.5667914119844104, 0.5746846004231072, 0.5825523101562603, 0.5904123480201717, 0.5981721476509374, 0.6059959263498311, 0.6137883288528191, 0.6216017249851511, 0.6293186223659605, 0.636933599869706, 0.6445878308982457, 0.6521988581128785, 0.6597550507205351, 0.667274911423566, 0.6748246040662657, 0.6822327119683222, 0.6895913568344313, 0.6968977885508865, 0.7041493085081669, 0.7112756811260315, 0.7184180232187413, 0.7254938541383429, 0.7325398266772735, 0.739471823784065, 0.7463504024486082, 0.7531372979455997, 0.7598501858866223, 0.7663997578507408, 0.7729684300748003, 0.7795307787450341, 0.785915846323425, 0.792216212433699, 0.7983994118424732, 0.8045273634683163, 0.8105561613495186, 0.8164967386056312, 0.8223400784093459, 0.828024023687445, 0.8336750982779116, 0.8392274040719022, 0.84466427012179, 0.849992949502897, 0.8552916993649524, 0.8603897238832395, 0.8652868662538333, 0.870178672400645, 0.8749532591753807, 0.8796782580480142, 0.8842062045226076, 0.8886172597740175, 0.8929096745903231, 0.8970817686241171, 0.9010739974089341, 0.9050080003696785, 0.9088886146520774, 0.9125557685108953, 0.9160861373350222, 0.9195012751629914, 0.922786880922719, 0.925897014665141, 0.9289254185367775, 0.9318374488636685, 0.9345913220605357, 0.9372091729647766, 0.9396780997134102, 0.9420229785764591, 0.9442227606966143, 0.946289679234635, 0.9482160338328939, 0.9500061726545803, 0.9516493823944798, 0.9531038887165734, 0.9544693635076582, 0.955689768634656, 0.9567615281263417, 0.9576923823478377, 0.9585480929690122, 0.9591798880837188, 0.9596706344535737, 0.9599921106485262, 0.960202967601865, 0.9602556032465586, 0.9601808249404913, 0.9599615664441349, 0.9595485717784507, 0.959047325816791, 0.9584020252739652, 0.9576082726153314, 0.9566696474722322, 0.9556592655244645, 0.9544238481812899, 0.9530376741450217, 0.9515265518865687, 0.9498764422768342, 0.9480105187781327, 0.9460935153640982, 0.9441130894769966, 0.9419036631384418, 0.9395592310451681, 0.9370453795903397, 0.9344371966705697, 0.9316517861158625, 0.9287800581692999, 0.9257731782662894, 0.9226495342520725, 0.9193746796135149, 0.9159242129448371, 0.9123970018989922, 0.9087401774897602, 0.9049554972591461, 0.9010446976968284, 0.8970215690993173, 0.8928621588634951, 0.8885824455836576, 0.8842178310251647, 0.8796980797899498, 0.875011691965752, 0.8702729780998686, 0.865420583649439, 0.8605059149067953, 0.8554256710885557, 0.85026322315669, 0.844971340052881, 0.8395787266932069, 0.8340397716207442, 0.8284560969519642, 0.8227700227433968, 0.8169912952016672, 0.8111176945177663, 0.8051404651447476, 0.79908482374221, 0.7929714370471413, 0.7867358123991871, 0.7804172952618885, 0.7739418410994594, 0.7674731605827497, 0.7609402973782918, 0.7543100287418223, 0.747604998053682, 0.7408566581203223, 0.7340058852827215, 0.7271231819509355, 0.7201389000983524, 0.7130952328857599, 0.7059398474170758, 0.6987902605618822, 0.6916265643580831, 0.6843614903504692, 0.6770475323517819, 0.6696760163528653, 0.6622722585451306, 0.6547629011041832, 0.6472837548342101, 0.6397629728110112, 0.6321853345890306, 0.6245921646740002, 0.6170046610305413, 0.6093410112077554, 0.6016511329210155, 0.5938855738611716, 0.5861571233932202, 0.5784261452317443, 0.5706544086337817, 0.5628675195752224, 0.5550547608507738, 0.5472468889606997, 0.5395151832917899, 0.5316825703564928, 0.5238514913143129, 0.5160129032825759, 0.5081917730864177, 0.500349410026459, 0.4925468798062878, 0.48475341650409026, 0.47688563137625906, 0.46912802604769965, 0.46145274670667574, 0.45371132142447373, 0.4459908006939216, 0.438255947742225, 0.430588481504682, 0.4229849218877229, 0.4153655700959553, 0.40777846752195485, 0.4002280344471122, 0.39271113257189205, 0.38515414870086206, 0.37772584507747275, 0.37033538359966184, 0.3630396213854222, 0.35572552147482517, 0.34845242954710687, 0.34123758544489174, 0.33407424280526216, 0.3269739070285629, 0.31991786422992613, 0.3128336265935717, 0.3059050819109163, 0.2990325462967936, 0.29223402269715176, 0.28547834956372964, 0.27882721296567875, 0.27219522919620986, 0.26563272234701785, 0.2590976407066431, 0.2526837441591774, 0.24635064911639984, 0.24007948643680832, 0.23388326327314707, 0.2277344563894671, 0.22169604516819952, 0.21573148641929124, 0.20984999016070183, 0.20404870506969763, 0.19838935950212827, 0.19274494096631226, 0.18715425328957233, 0.18168983754517523, 0.17631240786145236, 0.17105911123631312, 0.16585385095803204, 0.16071615717232507, 0.1556978745544468, 0.1507709682064478, 0.14595061462956538, 0.14120667374077614, 0.13655327102807427, 0.13199857108648738, 0.12753873414708186, 0.12312110231072255, 0.11885901228350029, 0.1147310839249785, 0.11065083720063242, 0.10666748899402448, 0.10277286999694245, 0.09898518670901103, 0.09524034194539642, 0.09165405740857843, 0.08816229448608146, 0.08475356107824937, 0.08145399801036134, 0.07823402574706445, 0.0751273979358298, 0.07211585485539518, 0.06920938167843949, 0.06638767640988402, 0.06372987836114571, 0.06109223848411521, 0.05855457819623883, 0.056052216160154746, 0.053720458195519245, 0.05148777435409521, 0.049343695047333366, 0.047293654946928665, 0.045337274540542045, 0.04347411619583708, 0.041713342179508395, 0.040033875660302934, 0.038462228324339605, 0.03696431554156781, 0.03555793366809576, 0.03419630141200661, 0.03297600406937872, 0.0318346079944343, 0.030786902550658517, 0.02982364882888325, 0.029020201949463052, 0.02821413350410569, 0.027422138337707447, 0.026796724959650405, 0.02625080574240477, 0.025789561113948308, 0.0253992467209701, 0.02509206628172715, 0.024854121210448717, 0.02469143915940429, 0.024629375488801248, 0.024610241842510438, 0.024630386915080606, 0.02476017109756228, 0.024958132715449496, 0.025207352734001636, 0.02553992838731525, 0.025951695065529565, 0.02640808318193586, 0.02692639455908997, 0.02747744978126394, 0.028118831730009713, 0.028839178763267283, 0.029588465271383688, 0.03039249761963968, 0.031234047708479224, 0.032144923847222326, 0.033156898719745906, 0.0341581593622179, 0.03520859068090265, 0.03626040160934587, 0.03740921496705336, 0.03862788696849969, 0.0398533413522436, 0.04111832439637595, 0.042462108631273913, 0.043795683710865445, 0.04516583155623556, 0.046570486783021524, 0.048007632949296025, 0.049387194323976216, 0.05089458646198473, 0.05242493344435128, 0.05397451547297942, 0.055543548981101754, 0.05720317624423397, 0.05879809720497958, 0.0603812110805134, 0.06201727259311015, 0.06366724433045069, 0.06537414391685079, 0.06704138256430014, 0.0686392797940162, 0.0703378066573683, 0.0720394129556471, 0.07377787143959602, 0.07547749365380864, 0.07718441039370552, 0.07888418898644267, 0.08058237816255764, 0.0823208043582299, 0.08400547585353, 0.0856367093367412, 0.08731781786771611, 0.08898843960579778, 0.09060011750329035, 0.09225155971439761, 0.09393642054088851, 0.0955459253454087, 0.0971389957213715, 0.09874193048619923, 0.10029426823363245, 0.10179242669014092, 0.10330922566212714, 0.10480172323664871, 0.10627111333168401, 0.10771105703689392, 0.10918839056576715, 0.11056333466764413, 0.111911786477152, 0.11318017322771469, 0.11447726096781094, 0.11583310248298176, 0.11704907113136934, 0.11823407023731096, 0.11937672544924104, 0.12049596361103591, 0.1216211106855637, 0.12266102176436405, 0.1236644117362286, 0.12466357355753845, 0.12558526257636693, 0.12647298973527035, 0.12731503724610754, 0.12811578700573867, 0.12889571283694615, 0.1296074805327297, 0.13023470931405187, 0.13086354059334168, 0.13144444152522441, 0.1320154563843179, 0.1324939357372493, 0.1329419717938773, 0.13332289485075668, 0.1336560282194618, 0.13402634456924206, 0.13425100038657295, 0.13443319555479108, 0.13456663720862672, 0.13465317594667953, 0.134760725094052, 0.13474225369648235, 0.13465314557545283, 0.1345462312999136, 0.13439064707467718, 0.1342679308700678, 0.1340031542953076, 0.13371599511117463, 0.13335682609760102, 0.1329520717209026, 0.13245877034536102, 0.13196619160219294, 0.13146501331053229, 0.13086805058881928, 0.13022398424803913, 0.12953874887980807, 0.12879952188682517, 0.12803285868684366, 0.12719784774122084, 0.12631756402708508, 0.12549355201081352, 0.1245104920219557, 0.12349706265845439, 0.12243490471758635, 0.12133378638548481, 0.12018753884488118, 0.11900900965603367, 0.11784069703205571, 0.11657770167060792, 0.11527896864294072, 0.11392410696638208, 0.11255700744182227, 0.1112286197525032, 0.10978048784241018, 0.10830184066672265, 0.10676392387886899, 0.105228681968853, 0.10368285559767237, 0.10208363927999642, 0.10045619266681655, 0.09889786580376182, 0.09720422485135917, 0.09543608802962697, 0.09370918231559261, 0.09195967573494955, 0.0902887102960673, 0.08848431541786346, 0.08657795193141041, 0.08475732314422971, 0.08291874786137415, 0.08116616290545274, 0.07928280837855135, 0.07742761990916386, 0.07552422125072437, 0.0736161705417954, 0.07171006508909065, 0.06979377268627669, 0.06789214867135572, 0.06597014731105244, 0.06404873764549138, 0.062101105400898034, 0.0601873210123619, 0.05826603377393786, 0.05635920616119228, 0.05445689195762164, 0.05260774423471306, 0.050713277345896146, 0.04877766982757638, 0.04691509786173214, 0.045064074510639034, 0.043303628990459045, 0.04147128939098094, 0.0396613724538904, 0.03787244672819177, 0.03610713963371159, 0.034306353750279114, 0.032599707555492685, 0.030941320021955196, 0.029281728499857364, 0.0276513148785891, 0.02605410882008219, 0.024486590743087195, 0.022945982569643825, 0.02144926625303866, 0.01998945705597888, 0.018587495876332235, 0.017203935894592348, 0.01586321296420057, 0.014566756137006845, 0.01335944592377045, 0.01215032488407877, 0.010992205129370793, 0.009851165973398713, 0.008802750790922019, 0.007838099570701538, 0.0068919446252602296, 0.006002839904916967, 0.005129723553245432, 0.004363615247956086, 0.003583355219038667, 0.0029444819824304747, 0.0023628780431926505, 0.0018526734412331717, 0.001390156339769766, 0.0010361054790925953, 0.0006972243054155244, 0.00042790536438274925, 0.0002256836046562083, 9.939238610711227e-05, 0.0, 2.614850716329757e-05, 0.00012469546027008672, 0.0003260408497324798, 0.0005699530536170804, 0.0008774966827134397, 0.0012804653852611495, 0.0017626974591399489, 0.00230593253248245, 0.002952237405785454, 0.003706288623678509, 0.004512698543858512, 0.005403878967486814, 0.006378157974361253, 0.007441382021555022, 0.008592588844303369, 0.009829888199195953, 0.011155352303819898, 0.012552688603652124, 0.014058400610323967, 0.015567360447593959, 0.01726243050239707, 0.019042876939748345, 0.020924423707348913, 0.022877383637097966, 0.024880043150827858, 0.027017850606790853, 0.029244372957385335, 0.03160757926528037, 0.03400815972565532, 0.0364396857327891, 0.03903579620352921, 0.0417224115847549, 0.044494090558625056, 0.047364149743499215, 0.05029325029680937, 0.05335102306517264, 0.056499177074648126, 0.05977554508393967, 0.06310087357867596, 0.06649426117782772, 0.07000940310149838, 0.07361607482534516, 0.07726710740687015, 0.08106241682271198, 0.0849267877632053, 0.08890135290640387, 0.09296323847189251, 0.09713297855600768, 0.10136684888188568, 0.1057166719782536, 0.11012296087469023, 0.11461801400343853, 0.11919256846474983, 0.12386374262724488, 0.12852290940482225, 0.13337710707443098, 0.138309851420556, 0.1433765301740118, 0.1484588261005845, 0.15355683371270412, 0.15880819383415165, 0.16413484234557923, 0.1695036768518407, 0.17498336514209245, 0.18060102622070479, 0.1862149523945105, 0.19190296809746443, 0.19761186187806273, 0.20345064131699733, 0.2093106942738299, 0.21528855207442027, 0.22132890752473752, 0.22747201718093904, 0.23362973112500177, 0.23980492291700506, 0.24609112668774843, 0.25243406534874185, 0.2587975846129725, 0.26525487082652444, 0.2717426997017114, 0.2783035925197609, 0.28491207830588183, 0.2915489186908716, 0.29825137069661256, 0.30499910597753577, 0.3117857174946886, 0.3186126892615317, 0.3254387164100149, 0.3323469362465302, 0.3393465581326902, 0.34631302919323786, 0.3533133947403082, 0.36030098534559757, 0.36736872337126397, 0.3744665763635983, 0.3815825691120405, 0.38872064220890473, 0.3958897979428506, 0.4030650365624262, 0.41019571116196635, 0.41741064690050017, 0.4246349744288395, 0.4318803668780155, 0.43911691492820887, 0.4464056402811966, 0.45364453908729496, 0.4608873185851866, 0.46809057539258925, 0.4753392140551938, 0.4826137503676532, 0.4898454648915328, 0.49706944619348686, 0.5042001235078858, 0.5114122952620698, 0.5185859002200807, 0.525760409384591, 0.5329113236527416, 0.540028622539725, 0.5471286228270537, 0.5541911704386318, 0.5612325238090032, 0.5682409258142409, 0.5752544531709934, 0.5821866099953978, 0.5891212648316911, 0.5959740825251508, 0.6027885307939569, 0.6095319315286327, 0.6162659878006445, 0.6229695049875184, 0.6296044300103033, 0.6361886331294023, 0.6426969501288969, 0.6491759411146649, 0.6555697663134836, 0.661932930565966, 0.6682320857266055, 0.6744172286720682, 0.680589271901147, 0.6867786811971067, 0.692794167264705, 0.6987399169180671, 0.7045944290734911, 0.7103966273941561, 0.7161167599156932, 0.7217632071483487, 0.7273284026358567, 0.732736934564058, 0.7381435857546224, 0.7435367934585453, 0.7487511817803687, 0.7538769199189229, 0.7588844153694453, 0.7638309065200087, 0.7686419946426687, 0.7734008926816096, 0.7780590387150634, 0.7826020306873017, 0.7870569520782771, 0.7914829762641806, 0.7957173554894292, 0.7998489230503539, 0.8038180423493585, 0.8077462643280889, 0.8115985124158012, 0.815299321465717, 0.8188890461916807, 0.8223651716727336, 0.8257290029078875, 0.8289984149916817, 0.832128620077167, 0.8351427668966003, 0.8380022071316706, 0.8407853297995769, 0.8433936805036905, 0.8459394356480322, 0.84835907338098, 0.8506764583657803, 0.8528399616654279, 0.8548838407733147, 0.8567947337033979, 0.8585756414792922, 0.8602337189209694, 0.8617641672706489, 0.8631882520641098, 0.8644593469064942, 0.8655448088415976, 0.8665672795099861, 0.8674577603818854, 0.8682778311052803, 0.8688966282055731, 0.8693362737196607, 0.8697040894427219, 0.8699397348392165, 0.8700119089586336, 0.8699874318113902, 0.8698691348932607, 0.8695727119474744, 0.8691456386731736, 0.8685903832613552, 0.8679019092938713, 0.8671061412907396, 0.866154480243926, 0.8650742519595435, 0.8638124226558207, 0.8624820522285217, 0.8610652022957606, 0.859467611380189, 0.857742791379333, 0.8558633412020055, 0.8538887052574218, 0.8518203255713701, 0.8495870975182543, 0.8472297652657822, 0.8447102463477852, 0.8421112668778283, 0.8393359204726665, 0.8364955925015315, 0.8335299594696542, 0.8304356772742085, 0.82722446367464, 0.8239065197903359, 0.8204524957997641, 0.8168809469062903, 0.8131726545329204, 0.8093725521255399, 0.8054420004770827, 0.8014158524658775, 0.7972770369281815, 0.793106815630612, 0.7887373980640798, 0.7841800805857548, 0.779615447546191, 0.7749446068168961, 0.7702501873699007, 0.7653619924423936, 0.7603556641941069, 0.7552784836093658, 0.7501059243724262, 0.7447730186089575, 0.739422376915601, 0.7339745911493707, 0.7284368736964248, 0.7228084241666562, 0.7171275021728735, 0.7113191492242511, 0.7054004418785289, 0.6994321229856655, 0.6933831094628894, 0.6873084982631212, 0.6810973597826547, 0.6747360361093444, 0.6683929108556975, 0.6619768379092248, 0.6555649520086817, 0.6490004138818143, 0.6423160328253718, 0.6356366250764819, 0.6288953687457178, 0.6220980871547767, 0.6152392736184445, 0.6083688425303401, 0.601396552083604, 0.5943759296137063, 0.5873075652761028, 0.5801958657938019, 0.5729785248335368, 0.5657909203579996, 0.5585607926270614, 0.5512713198980055, 0.5439660156263096, 0.536618426357929, 0.5292439247076316, 0.5218378672021614, 0.5143991306460083, 0.5069378658858861, 0.4995053048166195, 0.4919909269991282, 0.48445989360023867, 0.4768477262797503, 0.46929749901102125, 0.46172058516169445, 0.45414513790028366, 0.44655932100862705, 0.43904648120098466, 0.4314370972502691, 0.4238219276592768, 0.4162180483499956, 0.4086186098985979, 0.400937312430023, 0.3933633269963108