0.03757521126020087, 0.0374082389542306, 0.0371468597922253, 0.03689789637611682, 0.036555147769877325, 0.036339066261540584, 0.036210963046728856, 0.035987343620539264, 0.035769801953961955, 0.035541774032019774, 0.03533579552522251, 0.03505439535263298, 0.03486367478454459, 0.03467070235593493, 0.03449150937314973, 0.034293148016336227, 0.03416756291597381, 0.033959540481736966, 0.033755706669829355, 0.03350738285703369, 0.03331693222690035, 0.03310480738348975, 0.03291837332419046, 0.032731579907606854, 0.03251477397927106, 0.03233212475967808, 0.032213706235307546, 0.03202129392491672, 0.031858642545427196, 0.0316701625105178, 0.0314866581206937, 0.031212604791232952, 0.031050383006802892, 0.030875411187084437, 0.030713294782070907, 0.030550707128245893, 0.030445670998398136, 0.030276610410964855, 0.030154974620576844, 0.02998914045911888, 0.029830006177361465, 0.029610641675553686, 0.029472262533385408, 0.02932283259182758, 0.029190405666036603, 0.02905982061347713, 0.028910546480235055, 0.028787299865498897, 0.028672192338037545, 0.028551765168018616, 0.02843410439741242, 0.02839517942370688, 0.02827427056555787, 0.028175462331865114, 0.028067808405292882, 0.027967920386655198, 0.027868841336996637, 0.02778407504216872, 0.0276155346156372, 0.02755449147151212, 0.027494273919493346, 0.027422407881868793, 0.02736716252507535, 0.027301821457750754, 0.027251880401965644, 0.027203910825581896, 0.0271740783376047, 0.02712952690198836, 0.027083950629049326, 0.02704867200408724, 0.027017713147735066, 0.02706567900596569, 0.02703457226307632, 0.027012531171313987, 0.02699910573279283, 0.02699390339628429, 0.02701485547430521, 0.027022817069599248, 0.026934738939803225, 0.026972281213868094, 0.027011673176473947, 0.027053499704459073, 0.027098284906529987, 0.027179125218296418, 0.027227059832985134, 0.027281046889902624, 0.027318971298430757, 0.02738807899581158, 0.027438705133808992, 0.027521042275290935, 0.027607523901015507, 0.027693309603333712, 0.027789836295736222, 0.02790166788215977, 0.028006905659031505, 0.028118162193663827, 0.028342603995607927, 0.0284527941212055, 0.028482738611790237, 0.028628714729670792, 0.02878047571819219, 0.029011267604658098, 0.02916582397536472, 0.029228905757355768, 0.02941650884649361, 0.029607842560996828, 0.0299051681556898, 0.03009243158264797, 0.030215988462617603, 0.030433528852444013, 0.030656647676149673, 0.030915582360258053, 0.03114669993388905, 0.031371316591881256, 0.031619873676480746, 0.03187532021177713, 0.03211813138526052, 0.03238998152175831, 0.032735626523884495, 0.033010949678309025, 0.03329637520451375, 0.03359150573570852, 0.033895991710436675, 0.03421866223708113, 0.03453982291679268, 0.03487004374986516, 0.035179031350098006, 0.035530375479710996, 0.03591838854824432, 0.03627930301316132, 0.036648673363819786, 0.0369179876752026, 0.03731742316103644, 0.03773700939842554, 0.03813863890416063, 0.038544571608670045, 0.03894739888561696, 0.039364135454421904, 0.039868052618430766, 0.04028463784518994, 0.040711396310082144, 0.04112570816241979, 0.04157435872109581, 0.04203727956064675, 0.04250044873356787, 0.04297144432456252, 0.04337177571022871, 0.043867781893457906, 0.044407156757909724, 0.04490434441838625, 0.04540759394640106, 0.04588690434557437, 0.04640610398841488, 0.047013204787855395, 0.047530803773644575, 0.0480578429501363, 0.04853766090360726, 0.04908909762681547, 0.04960618614710729, 0.05017222299417316, 0.05074092736000266, 0.0513321912256567, 0.051904645820176516, 0.05254690467166062, 0.05312021303007995, 0.05370172235384097, 0.05425041472334401, 0.05485180919535841, 0.05542105004405219, 0.05603573782531405, 0.056652548093325136, 0.05736432081736557, 0.057974153967202756, 0.05853038657960971, 0.05916277557138177, 0.05979816797451577, 0.06045607402332075, 0.06109478899922406, 0.061751733002425174, 0.06239612650136114, 0.06304470563704853, 0.06360968306563743, 0.0642766745602519, 0.06499287198963201, 0.06565046133364846, 0.06630998135127894, 0.06692562827067466, 0.06759440111991373, 0.06836655023148053, 0.0690202804414468, 0.06967923012167854, 0.07030614171411335, 0.07097806873892495, 0.07160943874046316, 0.07228880737970728, 0.07296654592679848, 0.07371845248445183, 0.0743836337013318, 0.07500596313364175, 0.0756819738430058, 0.07635709943303906, 0.07701554184175943, 0.0776904614862242, 0.0783475300892336, 0.07902002438098361, 0.07968937834450772, 0.0804274341178859, 0.08108158542492812, 0.08170539537350771, 0.08236486687754085, 0.08302240562123057, 0.08363729495634833, 0.08429531534384815, 0.08494185346724785, 0.08559087267865945, 0.08623470854260995, 0.08695043487804403, 0.08757435303522966, 0.08809573022682102, 0.0887303918156075, 0.08935736692172043, 0.0900787281609296, 0.09067822554786115, 0.09128292861638931, 0.09187825798069887, 0.09247128582032356, 0.09295304547339543, 0.09355328967978928, 0.09425039838114219, 0.09481718080387047, 0.09538050038835517, 0.09583272680146274, 0.0964008657749372, 0.0970061366626791, 0.09754624498506193, 0.09813212323457336, 0.0986498578389531, 0.09916258873205304, 0.09957708014438141, 0.10008984513575757, 0.10062083967660043, 0.10110653474225831, 0.10158267108692082, 0.10202440285768649, 0.10248439347999139, 0.10297369726923786, 0.10340638954883229, 0.1038303850422261, 0.10428063511293478, 0.10468193524802563, 0.10498042138673759, 0.1053781481416824, 0.10576196059001668, 0.10614000579565247, 0.1064958912970554, 0.10682994842006302, 0.10716170103734292, 0.10748040940741914, 0.10787231723158913, 0.10815433338217385, 0.10834613936868223, 0.10862189459481127, 0.10888375135389897, 0.10922186233450358, 0.109444809796625, 0.10966565569539848, 0.10986982267605608, 0.11006439628568773, 0.11024353662062743, 0.11041779008114506, 0.11055177605163094, 0.11070614978235452, 0.11084660209088254, 0.11098087867123106, 0.1110922509201196, 0.11118860340097823, 0.11127258434662861, 0.11134253721198932, 0.11141272798903176, 0.11145254971803911, 0.11149587536531974, 0.11150645066137066, 0.1115041851685721, 0.1114653174013127, 0.11143956693098105, 0.11140547717778278, 0.11134918857833442, 0.1112784375318731, 0.11110705771944426, 0.11101819140360762, 0.11099871077047332, 0.11086058878382271, 0.11070938129868163, 0.110547522147907, 0.11036930937088402, 0.11017639589486333, 0.10997142835992234, 0.10975275692454835, 0.10952552631242975, 0.10927857751308245, 0.10898019403318486, 0.10871078742071322, 0.1084255498866382, 0.1080725483313138, 0.10776303938394582, 0.10742507673240646, 0.10708149226908684, 0.10672050149869167, 0.10640011394220425, 0.10599874118644131, 0.10553385464011913, 0.10511363669074826, 0.10467785745559223, 0.1042021011187837, 0.1037394374822241, 0.10334437463569074, 0.10283977376063702, 0.10232483213020949, 0.10172747537197892, 0.10120008863729105, 0.1006771528631601, 0.10011744277189409, 0.09954447407319927, 0.09900540546679608, 0.09840049577734787, 0.0977202096723084, 0.0971030825448195, 0.09647176430346624, 0.09590233156936524, 0.09523417476800207, 0.09454147410984311, 0.09385722850380847, 0.09316267053249896, 0.09249296815344552, 0.09177315306820398, 0.09094047947616007, 0.0902166982703246, 0.08947813519476969, 0.08882988487328504, 0.0880505629879446, 0.08726552535673927, 0.08647169591802098, 0.08567038174536121, 0.084779173615255, 0.0839727753302992, 0.08316039610220255, 0.08232877977438084, 0.08148622064116866, 0.08067105323661364, 0.07980325535413643, 0.07891105132418565, 0.07803062511444131, 0.07714203667066802, 0.0762586124856007, 0.07535287337884626, 0.0744744559221426, 0.07355136861396312, 0.07262391385276483, 0.07172202188126474, 0.07078181960847728, 0.06981661348903465, 0.06887337223174063, 0.06792571102490766, 0.0670755137631497, 0.0661064294908742, 0.06516377705057769, 0.06419417304353359, 0.06322640883691304, 0.06228335467465452, 0.061314559236834, 0.06033436544548987, 0.05937004965842609, 0.05840581507786893, 0.05740757116309006, 0.0564473913608125, 0.05557388072901001, 0.05459864368016177, 0.05362696522090838, 0.05265065415780205, 0.05168610230279054, 0.05080610131535808, 0.049835787264244535, 0.048872428432904014, 0.04786064258359263, 0.04691655046518517, 0.04606767152904535, 0.04511718879471599, 0.044174939744771796, 0.043258742116812535, 0.04232940875580064, 0.04134958883294227, 0.040443884700175944, 0.03954266427546074, 0.038720697596161376, 0.037820197316597276, 0.036980448291840724, 0.03609304721492527, 0.03521809810022808, 0.03439172165962928, 0.0335359059824331, 0.03264928810879857, 0.031825818326565315, 0.03101273226614159, 0.03024413155143664, 0.029448076602993485, 0.028706713319895896, 0.027931252268867196, 0.027171160456456244, 0.02643015187819633, 0.02569978866992468, 0.024997718062573605, 0.024296191683561248, 0.023610710860770937, 0.023058753263982556, 0.02239063178829087, 0.021727112347502582, 0.02110628659378952, 0.0205059444789252, 0.0200027714507261, 0.019432822772215138, 0.01881004281199305, 0.018297520422807807, 0.017803699643006633, 0.01744368292538815, 0.016973548017780105, 0.016492898182887815, 0.01607887659262891, 0.015687845933820672, 0.015388970045804052, 0.0150352299527844, 0.014730740532084901, 0.01442795343305454, 0.014152852653672662, 0.01389205929047165, 0.013673110588097191, 0.013490898846975232, 0.013323300168158969, 0.013118853099080457, 0.013013654941638645, 0.012932251125021218, 0.01298500279955282, 0.012939504752729574, 0.012937834964347647, 0.012954804777087672, 0.013004180804005634, 0.013034924164189592, 0.013155207582771323, 0.01329962990489659, 0.013479772297525118, 0.013689944238675162, 0.014014197106533685, 0.014275436663904961, 0.014528575393545335, 0.014867801519417974, 0.015240546363330982, 0.015716307332571518, 0.016148339449740718, 0.016573113469706108, 0.017087565057989754, 0.01763755522635987, 0.01828473513913146, 0.01889899483852112, 0.019527104803899294, 0.02022441873820864, 0.0209599860625196, 0.02169614414926498, 0.022513584619312847, 0.02345913938952908, 0.024339099234679824, 0.025262031359080256, 0.026144186213445223, 0.027163023373569944, 0.028219676670139495, 0.02931478014806557, 0.030448932126988227, 0.03162139206658731, 0.0328354678313922, 0.03409403391371155, 0.03538924935473986, 0.03672620077959309, 0.03814443980309024, 0.03956108830666599, 0.04098234718621012, 0.04249427261694329, 0.04404906678972713, 0.045649729486737615, 0.04729107518499656, 0.04908616050170206, 0.05080216800261216, 0.05256902175808443, 0.05437958159426227, 0.05624720306396085, 0.058080207116794756, 0.060055898061167845, 0.0620752527225323, 0.06415179773957344, 0.0662582199971738, 0.0684690867871087, 0.07065978132453032, 0.07290000465208887, 0.07520126424748494, 0.07753838750528447, 0.07985332585352682, 0.08229849488908209, 0.08478882916790768, 0.08732345369574822, 0.08990553164401632, 0.09252473240448626, 0.0952008041372549, 0.09792322887993883, 0.10075106094840264, 0.10355970041882079, 0.10639535271135277, 0.10930771040837171, 0.112268757717496, 0.11523931717295029, 0.11830261554584594, 0.12143058883369222, 0.12458465803323755, 0.12778665823193466, 0.13102227225270702, 0.13432204497592812, 0.13765464083903237, 0.14105068039977858, 0.1444932471643155, 0.14807253786144606, 0.1515971658996927, 0.15517629588979057, 0.1588036805309199, 0.16248176599681566, 0.16612771974755883, 0.16991581466727448, 0.17378353317831122, 0.17765611748604246, 0.18157535989361911, 0.18549406819399916, 0.18951193194788582, 0.19367235076001887, 0.1977645505403975, 0.20190591114783912, 0.20605912588678915, 0.21030118737539752, 0.21455558617235287, 0.21889136713962346, 0.22326960894316517, 0.22767457165765326, 0.23213944183578805, 0.23671602376303708, 0.2412543991997034, 0.24583780584305098, 0.2503585132322893, 0.2550434056052042, 0.2597887634080402, 0.26454485900521846, 0.2693396108673281, 0.27421726101024996, 0.27908327098697755, 0.2840029378775677, 0.28894788251580367, 0.2939329162576682, 0.2988633487030495, 0.30393828607438356, 0.3091281323573273, 0.3142581200034397, 0.31942546550796513, 0.32451978749291827, 0.3297734602618576, 0.3350769895892509, 0.34038612600678464, 0.345725612822918, 0.3511422204764634, 0.3565357632195036, 0.3619118699696334, 0.36737522817650486, 0.3728664172917236, 0.3784189922287198, 0.38396036759054736, 0.3894636325841522, 0.3950695279000163, 0.40069854165786556, 0.40639477518006417, 0.4120635275741136, 0.4176811677778138, 0.42340783181418, 0.42915316955384347, 0.4349913350265052, 0.4407638214811156, 0.4464524911878718, 0.45228107277531093, 0.4581235037033585, 0.464021356316513, 0.4698855375811358, 0.4757311291328962, 0.4816294991936954, 0.4875397046285504, 0.49345073546206186, 0.4993841669760959, 0.5053126185157348, 0.5112659771821642, 0.5172265740222548, 0.5232485998466823, 0.5292148171197562, 0.5351462495310407, 0.5411332645818306, 0.5471237322120038, 0.5530215407873569, 0.5590284099413753, 0.5650359977043891, 0.5710330467772701, 0.5770254571027374, 0.5830741475241054, 0.5890481736842134, 0.5949894663119863, 0.6009607011039887, 0.6069252245619104, 0.6127998990599076, 0.6187586151087248, 0.6248023545799419, 0.630719865337886, 0.6366280033244522, 0.642402761999519, 0.6483036998237581, 0.6541988031927193, 0.6600572516813792, 0.6658956212522219, 0.6717824693092319, 0.677570025870534, 0.6832414586455626, 0.6890035476900942, 0.6947392004912514, 0.7005209665312285, 0.7061928189910186, 0.711732176428185, 0.7173680441252085, 0.7229710044547784, 0.7285301845986804, 0.7340672623293929, 0.739562759742294, 0.7450299586005379, 0.7504917956952846, 0.7558809841814744, 0.7612338183965988, 0.7665936176218264, 0.7718649535011347, 0.7770848586572658, 0.7822824077574214, 0.7874392078938887, 0.7925357218764854, 0.7976095554963027, 0.8026378733762484, 0.8076196123159669, 0.8125537090512864, 0.8174195253078081, 0.8222576300276506, 0.8269798679415514, 0.831721330731408, 0.8364054868684317, 0.8410032196029193, 0.8455751060072599, 0.8501819227747303, 0.8546207132204298, 0.8590036978141763, 0.8632291061107341, 0.8675093859313573, 0.8717505920156802, 0.8758968513843981, 0.8799785931435359, 0.8839611765854969, 0.887916022085616, 0.8917944149225321, 0.8956125041802335, 0.8993604797572485, 0.9030378135760285, 0.9066439349772633, 0.9102552379923792, 0.9137073492451201, 0.9170906659278922, 0.9203556007992169, 0.9236035996677567, 0.9268481607653211, 0.9299359137997443, 0.9329510138361506, 0.9358099403324206, 0.9386863114564878, 0.9414817507870753, 0.9441958432935595, 0.9468281566767264, 0.9493678043124973, 0.951836531804689, 0.9542019528114599, 0.9565053119588783, 0.9587230634897093, 0.960874537109653, 0.9629178331263633, 0.9648614540122918, 0.9667354621664809, 0.9685224236907639, 0.9701893790920565, 0.9718053730932893, 0.9733771645217574, 0.9748075501571793, 0.9761504485068383, 0.9773557775769126, 0.9785285346544949, 0.9796161653064852, 0.9806047874817699, 0.9815020903041987, 0.9823118921496417, 0.9830257645558841, 0.9836651984249541, 0.9841939798234653, 0.9846320433423887, 0.9849465056611789, 0.9852065191360311, 0.9854176738383389, 0.9854857042443951, 0.9854631717945269, 0.9853380607227906, 0.9851351243577902, 0.9848742262946782, 0.9844831702349014, 0.9840020724884646, 0.9834345947379508, 0.9827722213681038, 0.9819254854372047, 0.9810940963156084, 0.9801668843831177, 0.9791589663717603, 0.9780405327057585, 0.976868394200735, 0.9755598298289768, 0.9741616643663572, 0.9726910663342102, 0.971112195484768, 0.9693566404335164, 0.967613283263812, 0.9657773933724165, 0.9639047620973278, 0.9618797642814649, 0.9597863881343965, 0.9575862051305764, 0.9553012755427164, 0.9528875612844112, 0.9504398009011606, 0.9479281330227898, 0.9453062042113619, 0.9426010727758303, 0.9397716174677004, 0.9369073097504639, 0.9339698911271186, 0.9309382065945001, 0.927825630769071, 0.924591329481889, 0.9213250369777856, 0.9179939558957376, 0.9145660512363978, 0.9110610738167182, 0.9074579104956281, 0.9038048026866626, 0.9001379085730011, 0.8963280233428074, 0.8924488905796532, 0.8884646613869925, 0.8844537811459543, 0.8804051416077183, 0.8762532564316946, 0.8720362876447769, 0.8676728885392657, 0.8633388081136608, 0.8590278130458511, 0.8545500549286246, 0.85001361562988, 0.845324046205087, 0.840684811158278, 0.8360128806337322, 0.8312489334708563, 0.8264286034802869, 0.8215219707415565, 0.8165970299432016, 0.8116572732643842, 0.8066210683908515, 0.8015363027469629, 0.7963363513264529, 0.7911667756693974, 0.7860007873779568, 0.7807291971171765, 0.7754155013525583, 0.770028365540695, 0.7646384705422372, 0.7592268128679509, 0.7537561192845889, 0.7482495522899837, 0.7427659240501288, 0.7371845140760793, 0.7314806526257216, 0.7258550840388612, 0.7201976758968042, 0.7145128365139477, 0.7087967689134976, 0.7031377993605381, 0.6973599717071053, 0.691563688246286, 0.6856833195205051, 0.6798613912725083, 0.6739784740443644, 0.6681250026289864, 0.6622531954198598, 0.6564641604001119, 0.6505488425296158, 0.644541511008456, 0.6386235126332227, 0.6326955416531691, 0.6268298153320762, 0.6208781734042765, 0.6148799413649649, 0.6089333129123661, 0.6029853705841747, 0.5969710553275053, 0.5910333873595157, 0.5850990404383222, 0.5791616784221228, 0.5732278399409765, 0.5672954127223917, 0.5613744614134122, 0.5554894433626317, 0.5495837374223288, 0.5436913588780097, 0.5378619321123199, 0.5319940931215995, 0.5261018747827897, 0.5202805322541938, 0.5144785228135031, 0.5087389262814711, 0.5029742337200424, 0.4971868228520583, 0.4914803013783425, 0.4857985143255216, 0.4802015483951678, 0.47456584559723425, 0.4689543226519353, 0.4633844268207758, 0.45784772540436025, 0.452304677409348, 0.4468422454445626, 0.4413978667051552, 0.4360061188622464, 0.4305909920494935, 0.4252787014400162, 0.42000107810002524, 0.4148159485417029, 0.40960558375797673, 0.4044848413847207, 0.3993547857992332, 0.3942719247382954, 0.3891676334571221, 0.3841895661239531, 0.3792108338628094, 0.3743297265413499, 0.36949332656332307, 0.3647082664655455, 0.35996476037732655, 0.3552845627457755, 0.3506382460830738, 0.3460438150376572, 0.3415190813699186, 0.33702876507757484, 0.3325558345076536, 0.3281813440879438, 0.3238610866602212, 0.31961155455955464, 0.31540021609711166, 0.3112958995102966, 0.3071936829753401, 0.3031527161681506, 0.29911434128398845, 0.2952035323942931, 0.2913209260012015, 0.2875309394195301, 0.2837986124133775, 0.28013642090667745, 0.27652004264310565, 0.27302007129088524, 0.26951759784472945, 0.26607936211802585, 0.2626504284689454, 0.2593472460022476, 0.25611141901620715, 0.25292941781072925, 0.24980925426062012, 0.24674329209075546, 0.24374833754543862, 0.2408831131067579, 0.2380034531765302, 0.23518971523737492, 0.23237224719995145, 0.2296976825353046, 0.22707205019721544, 0.22452047567339378, 0.22202916454720362, 0.21959956208736045, 0.2172289742700563, 0.21495942831990647, 0.21270485657902752, 0.2105130193223149, 0.20834170010798705, 0.2062792502828145, 0.20434107890315162, 0.2023882984310641, 0.20049790163901632, 0.1986182458523721, 0.19685684302557055, 0.19513322398943622, 0.1934887391772603, 0.19189992188764754, 0.19041355968995444, 0.1889294950235272, 0.18751995391417345, 0.186148133008632, 0.18483337302023536, 0.1835382731928992, 0.18233969761299984, 0.18118707873688925, 0.1800937686853778, 0.17905149843453047, 0.1780297238155184, 0.17709171498804735, 0.17621313040597386, 0.1753686150834214, 0.1745716235739732, 0.17385681046166168, 0.17314862521184438, 0.17249591456219107, 0.17188105799547088, 0.17131235210449022, 0.17081748714539582, 0.17033439820918364, 0.1698255630285651, 0.16943961878348482, 0.16909203559211453, 0.16876134024572118, 0.16849130096430134, 0.16824349815384265, 0.168045139856367, 0.16788019387908942, 0.16785774481685486, 0.16774407430445307, 0.16760552571138224, 0.16757372670537177, 0.16757308092618137, 0.16757392453989317, 0.16763635214011477, 0.1677280528688519, 0.16784273307897474, 0.16798270158808676, 0.16819280678784543, 0.16837506149642606, 0.16852387628294688, 0.16876287075736007, 0.1690213574532088, 0.1694056154713849, 0.16968730497399873, 0.16996085494964003, 0.17029117975038544, 0.1706396317058889, 0.17102581294153837, 0.17140407901763285, 0.17172874736841173, 0.1721455618720339, 0.17257143321400464, 0.17305004486316977, 0.1734863232120825, 0.17386152651587566, 0.17432439743920147, 0.17479050242431618, 0.1752541189137018, 0.17572579755040205, 0.17620660274585168, 0.17667929493972104, 0.17715250782248257, 0.1776294340833838, 0.17810100457638908, 0.17865330945396343, 0.17911070452231914, 0.17956960755791246, 0.17994631852930926, 0.1804142754280542, 0.18096627719229205, 0.18140746180027992, 0.18184524710421665, 0.1821777739141191, 0.18261744424175788, 0.1830572543334366, 0.18346910971893313, 0.18386806261770902, 0.18426664405249876, 0.18463656610456716, 0.1849861880973446, 0.18532872247397553, 0.18565579462467893, 0.18602292529025716, 0.18631018417695594, 0.18660161384700436, 0.1868573228039756, 0.1870979421357227, 0.18724149180517133, 0.18745904310723988, 0.18767878117849826, 0.18784776628000252, 0.18799508869922812, 0.18813334797629033, 0.18823435022622081, 0.1882517579238067, 0.18831548006910154, 0.18835247807963537, 0.1884332430767327, 0.18840789247534054, 0.1883623238796372, 0.18829033996324804, 0.18819442859988345, 0.18811055826231854, 0.18796049501621526, 0.18770996728502548, 0.1875219745591007, 0.18730479680720394, 0.18708717251019305, 0.1868080615254756, 0.18647923607752667, 0.18614764228870687, 0.18578683518077121, 0.1854242158822502, 0.1850015004409513, 0.1845667586396705, 0.18408647051994403, 0.18357897208171378, 0.18299047613520272, 0.18243453375310265, 0.18186203450923377, 0.1812427328833042, 0.18059387243857639, 0.17986208346585392, 0.17916129334517536, 0.1784270694667365, 0.17766277387007376, 0.17686740440095866, 0.17605974448759254, 0.17520141804176634, 0.17430403784243434, 0.17339007985360583, 0.1725061981240015, 0.17152786355230068, 0.17052487323921983, 0.1694853495704281, 0.16843419271993057, 0.1673901149611568, 0.1662838542520848, 0.16515414634515826, 0.16401265910151622, 0.16283440099479152, 0.1616476622419948, 0.16042191962032923, 0.15917421616884428, 0.15789672938047183, 0.15660618562017814, 0.155189053568594, 0.15386760467315644, 0.15251866897279626, 0.15116299955116705, 0.14976007675372824, 0.1484228446802048, 0.14696342512598742, 0.14548757291336376, 0.14396272908269475, 0.1424584087000026, 0.14086574851024802, 0.139335122680019, 0.13778372107656084, 0.13624920002736488, 0.13465491233547158, 0.13303725031070943, 0.1314135362067789, 0.12977517785612508, 0.12816597207676983, 0.12649505662133936, 0.1247736157725051, 0.12308803961337543, 0.12139088031273172, 0.11963851983862486, 0.11792606075379536, 0.11621612226547388, 0.11447926335044618, 0.11273349612894355, 0.11100971180967359, 0.10924492790122156, 0.10746241374552742, 0.10569048186633445, 0.10391427001072999, 0.1020927011186152, 0.10031526353607574, 0.09854499391802511, 0.09675792571707384, 0.09496891454331671, 0.09327145280361569, 0.09146930713659267, 0.08962455097987566, 0.08783988606697263, 0.0860583018828914, 0.08430383880599658, 0.08252710399910258, 0.08077602571256237, 0.07900936780736612, 0.07725070378472593, 0.07548336096676046, 0.07374375437651812, 0.07198348442482767, 0.07026415199088679, 0.06855236239212265, 0.06685674632916347, 0.06516143219644362, 0.06348818587075233, 0.061812708523045164, 0.06014955783090611, 0.058465363688835904, 0.05683284448094653, 0.055255503733603724, 0.053642593298489805, 0.05204584074545981, 0.050482628824197906, 0.04891730720916058, 0.04728293378980141, 0.0457657525781065, 0.04426268522835953, 0.04279304945511835, 0.041318965710192154, 0.03988121806417932, 0.038441650286264416, 0.03702252653813467, 0.03564128664943108, 0.034262310388545034, 0.032859119430798944, 0.03153191058781554, 0.030225414113649478, 0.02900816363618135, 0.027736469350342664, 0.026543365818160358, 0.02531783484762799, 0.024121630086108927, 0.022937410959365686, 0.021800954852754552, 0.020707624717618195, 0.01962407775390128, 0.018568827658033502, 0.017492177208890167, 0.016499520300720015, 0.015610485603899075, 0.01465895897371102, 0.0137379146192903, 0.012798783203873065, 0.011944020412918116, 0.011188122547274918, 0.010378702178688705, 0.009600878984642272, 0.008770770962551392, 0.008065691709511465, 0.007399667090338897, 0.006745407798302027, 0.006118762434182199, 0.005536962203171862, 0.004964164538813974, 0.004535487754039299, 0.0040067564207395935, 0.0035138185095253, 0.003060994206024749, 0.0026363863947406756, 0.0021932605119485992, 0.0018419598986217285, 0.0015201623281878188, 0.0012747499102899217, 0.0010057206384548752, 0.0007620189286356643, 0.0005570538348840501, 0.0003826877499349438, 0.0002633887574326136, 0.00014612660429654822, 8.604824046970593e-05, 2.7190264492091476e-05, 0.0, 3.650924061206529e-05, 6.679713540490226e-05, 0.00021117554004925466, 0.0002940929667868309, 0.0004121352289952336, 0.0006240905318748043, 0.0008011878882242516, 0.000956005275572934, 0.001209282985129906, 0.0014918981317718967, 0.0018554368592453936, 0.0021883367488211014, 0.0025309508340706026, 0.00292681019531531, 0.0033504409768265295, 0.0038926682110239337, 0.004358745878608071, 0.004818421740109947, 0.00535103943469647, 0.005910825890533899, 0.006568957146726646, 0.007172249935610985, 0.007775073633676477, 0.008440225388207328, 0.009131282993714754, 0.009898556202587889, 0.010633276745325573, 0.011447350223895633, 0.012228910410162955, 0.013038918199909823, 0.013954561476212615, 0.014808328249089257, 0.015609703540577316, 0.016532093152697803, 0.01747699339652399, 0.018533986304116033, 0.019511157699363568, 0.020450662012896498, 0.021487405354043386, 0.022544801378059042, 0.023700811335306077, 0.02478860659811282, 0.025930512671668467, 0.02706179741054752, 0.028217149828836278, 0.029361671803373023, 0.030566656926254526, 0.03181600551838332, 0.03305657401559597, 0.034317310028354184, 0.03568119785508431, 0.03697013659283579, 0.0382707145970715, 0.039606838890019674, 0.04096366952586452, 0.04227650868602812, 0.043680677013337096, 0.0451273674015155, 0.04655829078393889, 0.048005842491659456, 0.04946325584155942, 0.05094418671687831, 0.05256078544642052, 0.054057600381380536, 0.05557649485585083, 0.05711638560908369, 0.058676315099611805, 0.06023064227423533, 0.0618313537104367, 0.06339627114780302, 0.06503603328142255, 0.06668858527098427, 0.06840627319306497, 0.07007821790489521, 0.07181194854671205, 0.07351001892052994, 0.07522617415996587, 0.07688542219705839, 0.07864542738431701, 0.08042951382520679, 0.08221291637780642, 0.08400972075523457, 0.08589962435041143, 0.08771342510323062, 0.08955057237938133, 0.0913994095721851, 0.09326563367046585, 0.095083543450982, 0.09699152288666289, 0.09894993954308572, 0.10087858199737838, 0.10282246396992577, 0.10484678106682796, 0.10681274171399645, 0.10875313422828468, 0.11076180812962642, 0.11278586825920774, 0.11476790382947329, 0.11683006328839858, 0.11899846919316791, 0.1210738532525514, 0.12316784563745597, 0.12523057251127945, 0.12736727473582088, 0.1295439423318538, 0.13170813772602744, 0.1338894736300154, 0.13603191860267655, 0.13825491687754587, 0.14050006601032947, 0.1427513156229779, 0.14501848758695787, 0.14729029959472442, 0.14959216807921097, 0.15201502886364718, 0.1543373598093633, 0.15668309519771098, 0.15899441288344238, 0.16139310587253614, 0.1638710596593144, 0.16630090275966286, 0.16875392139449424, 0.1711333517089409, 0.17364443499092702, 0.17626555813857064, 0.17880044257891917, 0.18135937723042803, 0.1838548414125099, 0.18647274545294115, 0.1890979563103278, 0.1917562118763383, 0.19443433224614165, 0.19713960120630847, 0.1998588470684236, 0.20268266302261795, 0.2054367700585945, 0.20821892478675819, 0.21101852088788453, 0.21385764920360303, 0.21664559566444735, 0.21954893892590152, 0.22247517321094257, 0.22547594760532197, 0.2284437241453009, 0.2313910493609489, 0.23442079466359858, 0.23747605327092014, 0.24055480737203092, 0.24366315736104313, 0.24683898568649332, 0.24999675775361163, 0.2531847791221785, 0.2563914082773513, 0.25964173726179157, 0.26289198319087614, 0.2662062023461076, 0.26954911879469207, 0.2730034104909506, 0.27639466116423206, 0.27971477803273714, 0.28318824994791353, 0.28668981629291646, 0.2902227352465051, 0.293782040769503, 0.29743790539668574, 0.3010492451832679, 0.3046951759387433, 0.30833898194110204, 0.3120582225331529, 0.31577040775662624, 0.31955898392498, 0.32337782087614664, 0.3272182488750863, 0.33110010264947676, 0.33508732431811195, 0.33902210686906376, 0.3429927466033212, 0.34701458195518553, 0.35105401585451745, 0.3550261955469258, 0.3591499862250538, 0.36330311984260183, 0.3675539749248931, 0.3717586756605498, 0.37596782126624007, 0.3802449909780241, 0.3845544429665287, 0.38889226226334733, 0.3932667468540519, 0.39770975510926093, 0.4021435331736217, 0.4066112185454456, 0.41109675312792404, 0.41563305313360444, 0.42009420229012145, 0.42470752029729936, 0.4293461926972559, 0.4340773668229312, 0.4387599745947283, 0.44342610059680937, 0.44817537308862065, 0.4529519259128589, 0.45773100913783543, 0.46256532741570394, 0.46738500921944676, 0.4722761345455136, 0.4771908272624362, 0.4821227805223054, 0.48708598031854644, 0.4921392806756585, 0.49714111939932687, 0.5021700920025216, 0.507141941165593, 0.5122335413085873, 0.5173440668194301, 0.5224762108306208, 0.5276282571320339, 0.5327790790182007, 0.53797275772591, 0.5432338012806398, 0.5484564642195172, 0.5536990275195587, 0.558921501819357, 0.5642062911792817, 0.569477516407658, 0.5747956665375548, 0.5801261705265282, 0.5854790352745368, 0.5908315534461392, 0.5961941957439398, 0.6015690230870445, 0.6069537343381702, 0.6122914234179438, 0.6177005995173283, 0.6231088192225057, 0.6285267441184453, 0.6339476769001461, 0.639337126306133, 0.6447666139227455, 0.6502122772988793, 0.6556375486547649, 0.661061912203678, 0.6664663003330571, 0.6718887139030622, 0.6772935929036445, 0.6827078890238284, 0.6881153097288234, 0.6934811156691421, 0.6988765948615177, 0.704341614742401, 0.7097034159462015, 0.7150569128713109, 0.720370595925498, 0.7257068217915377, 0.7309659938965587, 0.7362801251584933, 0.7415739234864925, 0.7468688553132344, 0.7521169487266621, 0.7573553275032825, 0.7625579188325118, 0.7677374868641088, 0.7729032256385225, 0.7780316756437794, 0.7831221707358278, 0.7881983292555044, 0.7932449070746221, 0.798198004889603, 0.8031895710474579, 0.8081899363273622, 0.8131012016016489, 0.8179687215336419, 0.8228078902607621, 0.8276081849200215, 0.8323488252215222, 0.8370702249695667, 0.8417493164697297, 0.8463822530556299, 0.8509694826066898, 0.8554394034280063, 0.8599407337651748, 0.8643707050661126, 0.8687675694676755, 0.873109040459071, 0.8773945154866506, 0.8816233122866414, 0.8858116446162938, 0.889922620880238, 0.8939754372696336, 0.8979520776975367, 0.9018875474988136, 0.905788099901795, 0.9095944881324811, 0.9133381283347922, 0.9170804290922364, 0.920686955409306, 0.9241274727301964, 0.9276195192826929, 0.9310395446595097, 0.9343816038126981, 0.9376560377124964, 0.9409498507861976, 0.9440624577318084, 0.9471041855407094, 0.9500643303620507, 0.952960830245703, 0.9556914165325229, 0.9584463080766917, 0.9611177999738144, 0.9637981178683399, 0.966289747566155, 0.9686534714517125, 0.9709906935970881, 0.9732431026072912, 0.9753551320565431, 0.9774426027848978, 0.9794595485903138, 0.9813640770971124, 0.9831790375791901, 0.9848882801092069, 0.9865246131809454, 0.9880507494817209, 0.9895051732559009, 0.9908658974755745, 0.9921444274340128, 0.993315524047191, 0.9944423925807923, 0.995419191116156, 0.9963041878685233, 0.9970926978232437, 0.9977923370950175, 0.9983182130452343, 0.9988390481078143, 0.9992601820629308, 0.9995909223284011, 0.9998119810024984, 0.9999825618609224, 1.0, 0.9999214109248595, 0.9996785508652438, 0.999415401116775, 0.9991023250226161, 0.9986314010841704, 0.9980631097056049, 0.9973398909129852, 0.9965837571597287, 0.9957463197503867, 0.9947863930213251, 0.9937275504679484, 0.9926444345759025, 0.9913791214664491, 0.9899258911006268, 0.9884842510453048, 0.9869428639929485, 0.9853728301153438, 0.9836249005523233, 0.9817438671359469, 0.9798130187698812, 0.9777861571872573, 0.9756872571019103, 0.9734668716003143, 0.9711154644657973, 0.9687138840311095, 0.9662177894877739, 0.9635770497280541, 0.9609006726808474, 0.9581514386110076, 0.9552833737479679, 0.9523238818762626, 0.9492700047192031, 0.9461310214154296, 0.942871932788466, 0.9395603307863054, 0.9361601630805733, 0.9327653352272348, 0.9291800269139276, 0.9255150159935108, 0.9217707431386587, 0.9179477313816836, 0.9139395629936854, 0.909974476738022, 0.9059919120595228, 0.9018547718103412, 0.8976418393355803, 0.8933763520472277, 0.8890122131055349, 0.8845715508459778, 0.8800664288661585, 0.8754916872954088, 0.8707962255461668, 0.8660921946093718, 0.8612877183434274, 0.8564510366768961, 0.8515467253830643, 0.8466079591717233, 0.8415699417914819, 0.836515857602997, 0.8313528359860913, 0.8261348406356863, 0.8208551787650423, 0.8155316894232898, 0.8101171940322013, 0.8046962892804899, 0.7992240475423147, 0.7936982713573102, 0.7881289932796416, 0.7825419933510748, 0.7768779393745483, 0.7711724978117669, 0.7653279553069172, 0.7595567230098191, 0.7538343788434096, 0.747968990790091, 0.7420708445009316, 0.7360356709065964, 0.7300897304671012, 0.7241825892930802, 0.7181611994132506, 0.7121142662314547, 0.7060642844107312, 0.6999684674351065, 0.6937604673272295, 0.6876387789275369, 0.6814953031819897, 0.6754171163125018, 0.6692260020065744, 0.6629734851453106, 0.6567691625746404, 0.6505542377507594, 0.6443227105166806, 0.6380930359060432, 0.6318342413886319, 0.6255981001690084, 0.6193586225635289, 0.6131203715201838, 0.6068797011869366, 0.6007081186091473, 0.5944658876146468, 0.5882334840188879, 0.5819990551088954, 0.5757915882493501, 0.5695969179514926, 0.563416445720276, 0.5572515847461297, 0.5509915190931562, 0.54487634501058, 0.5388661239628426, 0.5327689292591609, 0.5266950216638778, 0.520545298159319, 0.5145348353454642, 0.5086518891089299, 0.5026738511786889, 0.4967278091752326, 0.4907548565857322, 0.4848837952064169, 0.4789912756050482, 0.47319272538288504, 0.46742645663386384, 0.46169835263464004, 0.45600195362821, 0.45040761096139936, 0.44478099286239325, 0.43919930032957605, 0.43364264370726663, 0.42815641602359106, 0.4226542649427337, 0.41727054825046755, 0.41193230488956617, 0.40668158852084196, 0.40143387392519003, 0.39629063188223507, 0.39114187513416204, 0.3860503274539795, 0.381016528763115, 0.37604104170624697, 0.37105136178991616, 0.36620349516012685, 0.36144946665175337, 0.35670999404917847, 0.3520309635277093, 0.347334828271421, 0.3427888347130642, 0.3383102264692042, 0.33388088998134247, 0.3295128374966788, 0.32528280320482234, 0.3210307832328129, 0.31680541139743706, 0.31269569752428056, 0.3086524667596812, 0.3047193411256093, 0.30080525390966983, 0.2968624256284228, 0.2931018656791558, 0.28940637991529317, 0.2857820897585672, 0.28221869657331794, 0.2787296093058658, 0.2753015341355291, 0.2719426950218703, 0.2686626121330094, 0.26544218416449744, 0.26227290720424806, 0.25919655187560514, 0.25619006928965643, 0.25329413668743206, 0.25042288469144813, 0.24768038435948592, 0.2449470341455674, 0.24228892297508167, 0.23966355272293974, 0.2371590406310549, 0.23474362065138177, 0.23237815853644447, 0.23008396560175062, 0.22782534641988414, 0.22567677536983582, 0.22359612482875107, 0.22158321740898074, 0.21963783484249744, 0.2177401429055122, 0.21593147359780548, 0.21424446276646741, 0.2125595654479887, 0.21094288068765285, 0.20929314896817128, 0.20782330126553508, 0.20645942269053597, 0.20510443570725884, 0.20381231167791805, 0.20255383247611664, 0.20138950618665344, 0.20028870967824458, 0.19924272712452362, 0.1982557352665754, 0.19730239389067594, 0.19643483788151142, 0.19563615344615295, 0.19487810299356972, 0.1941755689967516, 0.1935173944717102, 0.19292502237389458, 0.1924349016796077, 0.19194082468819712, 0.1915006451822006, 0.1911640297955124, 0.19082152658172752, 0.19044076183373837, 0.19021439241205, 0.19003283496442308, 0.1898979375783645, 0.1898033431828233, 0.18974346027014005, 0.18973403379968418, 0.18976486547022547, 0.1898794240885834, 0.1899824139157835, 0.1901671020178225, 0.19034332720295316, 0.19055914102952295, 0.19076068544422323, 0.19105737140318263, 0.19133763047892718, 0.1917030650928896, 0.19209548044390526, 0.1926042157622563, 0.1930370128706415, 0.19339513494600963, 0.19389900757686457, 0.1944236199347239, 0.19506097408716958, 0.19561330681875447, 0.19613982126340193, 0.19674439772764177, 0.19736685801117018, 0.19796173936181247, 0.19862229884818483, 0.19935759861720864, 0.20003367018471863, 0.20072378615003328, 0.2014553030802479, 0.20216583514717412, 0.20279928116273316, 0.2035428373977224, 0.20429008757470718, 0.20510688216132575, 0.2058509303571381, 0.20663146972766083, 0.20738052985424943, 0.20813382207350586, 0.20878800236795547, 0.20955805349041695, 0.21039656007341068, 0.21114478395821742, 0.21189009387539784, 0.21255685459958806, 0.21330204326010602, 0.21406783507118735, 0.2147870788784447, 0.2154962250228424, 0.21615263057426726, 0.21684422071867004, 0.2175768465571399, 0.21823063183060523, 0.21887136086938463, 0.21944576730883894, 0.22006382612352396, 0.22066671403301505, 0.22124554857812448, 0.22180437839199174, 0.22243784273966777, 0.2229427076650061, 0.2234335962377844, 0.2239035361386902, 0.22435428588735787, 0.22468017573102345, 0.22510204318783278, 0.22553969207389546, 0.2258985755495096, 0.22623094080801198, 0.2265440038134198, 0.22682051703572356, 0.2270796038598974, 0.2272984415396167, 0.2274887833347434, 0.22765911466442545, 0.22778939618979158, 0.2278128537020476, 0.22789260816777698, 0.2279370280632693, 0.2279409783879782, 0.22791560693229856, 0.2278651954388589, 0.22776757140830658, 0.22763508329641877, 0.22751330481076756, 0.22730499201809473, 0.2270992842048337, 0.22682076744545088, 0.22651067647998896, 0.2261552870941919, 0.22578175708199374, 0.22540937019704302, 0.22496284981354364, 0.22448357221484003, 0.2239109745934292, 0.2233722693011643, 0.2228156670881896, 0.2221997210600156, 0.22154776792591296, 0.22081285976126824, 0.22009496635388429, 0.21936471746290712, 0.218567100446868, 0.21773345145735176, 0.21680658705993083, 0.21590886783108654, 0.21497917486566526, 0.21400436886011295, 0.212992858606653, 0.21194002466647477, 0.21085754219414002, 0.2097371797555414, 0.2085850637428492, 0.20739866377300578, 0.20626076251542458, 0.20499706931358094, 0.20364923237347193, 0.20233645274336434, 0.20099231036887166, 0.19968905206428997, 0.19827451877001653, 0.19674272650982633, 0.19528786256318567, 0.19380189892298197, 0.19231958598531698, 0.19076956621131644, 0.18918752718729867, 0.18758506379003254, 0.18597087520515435, 0.1843150142949029, 0.18263505354763515, 0.18095106482851028, 0.1792219447226109, 0.17750010775273245, 0.17572492016365224, 0.17393080033172706, 0.17210758186919978, 0.1702778067402134, 0.16834078198976501, 0.16648576012075011, 0.16460837072998274, 0.1628221782535942, 0.16088978525569736, 0.1588289858782271, 0.15688704462644495, 0.1549269451555438, 0.15305834998610093, 0.15105219911874757, 0.1489790912779512, 0.14696422274708595, 0.14493852045468808, 0.14296031787333924, 0.14090841058395187, 0.1387733004218969, 0.13672193378044212, 0.13466219678220942, 0.13257959245245315, 0.13050855175457354, 0.12849821025589492, 0.12640822465317816, 0.12431845518983155, 0.12219554468612899, 0.12011225447399802, 0.11807346414146296, 0.11598574744843938, 0.113902496820753, 0.11181121151762785, 0.10974022696249203, 0.10760555213517535, 0.10555501564487586, 0.10350757155577783, 0.10156894236669856, 0.09951836342576478, 0.09740349578263409, 0.09538837726748621, 0.09338230577900629, 0.09136150758106701, 0.08937970048249988, 0.08749334907818149, 0.08552319184179194, 0.08357062085391188, 0.08155767422838534, 0.07965124759281365, 0.07779700568212067, 0.07591554524463026, 0.07405264905369574, 0.07226641445798525, 0.07043539878583954, 0.0685224555479765, 0.0667525651291509, 0.06500095322643197, 0.06335880059801847, 0.061635678837137955, 0.05984771966903291, 0.058189401633787004, 0.05655293933256713, 0.055026787880847854, 0.053425957202984965, 0.051784264858172606, 0.05025170096528197, 0.0487450885896409, 0.047276934174274865, 0.045822976779706925, 0.044435628332637596, 0.04303494821644937, 0.04166620868160107, 0.04033351161115954, 0.03902873238698461, 0.03771495043221566, 0.03648116184001539, 0.03527817891020722, 0.03407783197144014, 0.03294168087918596, 0.03181275015561496, 0.030741660330078132, 0.029701236824319636, 0.02870135289355802, 0.027723243101775822, 0.02687879364422805, 0.025954765831595807, 0.02507039896180598, 0.024136492817827294, 0.023341363644855107, 0.022642359920651958, 0.021906680330511494, 0.021208763372882366, 0.020551025895059152, 0.019927742304860017, 0.019318347287403483, 0.01877262506289397, 0.018262637512023536, 0.017737525695002854, 0.01730554493117174, 0.017003086580294747, 0.016625182533655903, 0.016286369965781422, 0.015903917816231027, 0.015652191623322844, 0.015522267097980824, 0.015325679783104696, 0.015167568902127365, 0.015052578858796246, 0.014969071206608921, 0.014862680435672642, 0.01486054764638384, 0.014891189409524282, 0.014916775668661817, 0.015017765360876418, 0.01524200363589571, 0.015392660585891702, 0.015579452757741528, 0.01575472496912854, 0.016017744649020855, 0.016327999890193432, 0.01665197708343679, 0.01700795842596501, 0.017390334067509394, 0.01780980662774439, 0.01831199934688399, 0.018785529772802057, 0.019291743238165883, 0.01982068170435116, 0.02039098763083803, 0.02091019122369031, 0.021549707139297804, 0.02221321546118253, 0.02293468010514504, 0.023641907312979143, 0.02436317569913647, 0.025123027744587974, 0.025907118733032447, 0.026717679775221177, 0.02754875193321365, 0.028529580729682296, 0.02939049063133944, 0.03028068646164236, 0.031190802099919118, 0.032136063377745015, 0.03304584965211959, 0.034046646237864256, 0.03506635704786738, 0.03621014016542076, 0.03725264767223345, 0.03830136627464715, 0.03939096296462221, 0.040500066293071145, 0.04167588573401445, 0.04281472584564727, 0.04392444829022282, 0.04510644623596686, 0.046302421178883904, 0.04750904144001032, 0.048731163542216197, 0.050017234838638965, 0.05125561949583821, 0.05250743964383454, 0.053859118884672076, 0.055123764952364734, 0.05632558049110922, 0.057629529881968955, 0.05894159699357459, 0.06031853980051257, 0.06163761228745038, 0.06302745015477006, 0.06435656888382392, 0.06569653355177696, 0.06711120314732945, 0.06846054559123212, 0.06973834692266762, 0.07111785976218776, 0.07250042222225168, 0.07403157412250806, 0.07539990486986808, 0.0766954991659829, 0.07809150380795023, 0.0794891718909666, 0.0809882986298853, 0.08237455610484165, 0.08373748635605077, 0.08513679951125383, 0.08653733968705792, 0.0880100435999026, 0.08940151774406616, 0.09075811848246754, 0.09215913833570015, 0.09355876462312815, 0.09508818021411061, 0.09646652754031952, 0.09780220204395504, 0.09919360752291805, 0.1005890812082092, 0.10197674030407401, 0.10336207568734807, 0.104744451820931, 0.10612331784368377, 0.10754779224368145, 0.10891200987245585, 0.11027427118289591, 0.11166259680601931, 0.11301533859452739, 0.1144586064335406, 0.11579470378784702, 0.11713265156534967, 0.1184803736312933, 0.11981740520042099, 0.12110668411610459, 0.12244730247350279, 0.1237830195324182, 0.12516063764975843, 0.12648013046706932, 0.12778263883059865, 0.12909829773284676, 0.13040982863265857, 0.1317210417124304, 0.13302356464172427, 0.13433247367881762, 0.13562558776650624, 0.1369153198266373, 0.13831393121286123, 0.13958282500623292, 0.14077262170981222, 0.14205740854958962