0.026171313412571912, 0.02590405965868185, 0.02566807653663702, 0.025482592151791935, 0.025351975807582475, 0.02522083698275535, 0.025113447144028706, 0.02501425395717343, 0.02494557159358458, 0.024850854191748175, 0.024812665151411395, 0.024782196966172336, 0.02478888735857904, 0.02476699650029386, 0.02474669137198998, 0.02473858613524997, 0.02473592713203603, 0.024689351764370003, 0.0247031510452012, 0.024719266032400967, 0.02473820251704076, 0.024760506990234746, 0.024794719317496616, 0.024824508589744, 0.02486256047738379, 0.024903792065169236, 0.02495191437681826, 0.02501544693147083, 0.02507801997769916, 0.025123070006663282, 0.025207528460068893, 0.025300504619926074, 0.02538279979363857, 0.02549741810409839, 0.025620138394127842, 0.02575455810865962, 0.025899834597360432, 0.026061967390281746, 0.026230316000797643, 0.02636929787459811, 0.02656973732883915, 0.026781910448849432, 0.027031838070900968, 0.027266643357910993, 0.027494260194019945, 0.027763078467181873, 0.028046812548727637, 0.028338051306966476, 0.028654234363112038, 0.029004994734218494, 0.029351326632250683, 0.029715663039702432, 0.030082359497406754, 0.03048554783914684, 0.03090134880444149, 0.031341431490978636, 0.031799879053911684, 0.0322916738594179, 0.03278613956394203, 0.03326505501323828, 0.033804825155592105, 0.034363295131738136, 0.03495158855629894, 0.035547605577125746, 0.03612984455515526, 0.036772011406553444, 0.03743363074146387, 0.03813653050241308, 0.03883611470939244, 0.03953412310935928, 0.040281664396715086, 0.04105079918118501, 0.041853965667215255, 0.04266623405373726, 0.0434942086205443, 0.04435514621845204, 0.04523995012959837, 0.046143690112380856, 0.047078019575235226, 0.048010475991323055, 0.048997886123036676, 0.05000924015050194, 0.05105705972628694, 0.05211648985006838, 0.05320083650604701, 0.054313305674430844, 0.05545269796903741, 0.056622035467200744, 0.057816029883211204, 0.059019585448409836, 0.06027252113115051, 0.061553172815251515, 0.0628805686174865, 0.06421562779814463, 0.0655369317813538, 0.06693783649108535, 0.06836678892165879, 0.06983764526252319, 0.07132272819034338, 0.07282496125435807, 0.0743729204167353, 0.07595124918663436, 0.07757364215151961, 0.0792122738329159, 0.08084869898913374, 0.08255651820533721, 0.08429515029622942, 0.08607702615314974, 0.08787719183962173, 0.08967965110154752, 0.09154957532433779, 0.09345111593990123, 0.09540464815306599, 0.09736826317050234, 0.09935923864838284, 0.10139185502052314, 0.10345841791869173, 0.10555646104960846, 0.10769179268970727, 0.10984416546775255, 0.1120504074957562, 0.11429023973108436, 0.11654532365426834, 0.11885536899585185, 0.12121582667740653, 0.12359029997528138, 0.12599942989502066, 0.12840478970476477, 0.13088824799259174, 0.13343881047152115, 0.1359834098326757, 0.1385630918982551, 0.14114061319273366, 0.14379488578489413, 0.14647920105419074, 0.14919937436519365, 0.15195238900902577, 0.15473436133885382, 0.157553809663967, 0.16041267273379048, 0.16329684664438743, 0.16621414438174878, 0.16917505948485292, 0.1721568676541785, 0.17517327646122857, 0.17822118186862962, 0.18130186021525357, 0.18439376465898583, 0.18754172202803984, 0.19067384470636142, 0.1938887275312088, 0.1971710549352824, 0.2004363145653023, 0.20373165669390994, 0.20704482243349337, 0.21040087188696963, 0.21376276479228934, 0.21717819330500676, 0.2206201696882308, 0.22407526750670387, 0.2275715010283715, 0.2311181419946597, 0.23466139152514032, 0.23823083228046346, 0.241779534239448, 0.2454057616715328, 0.24907264940231588, 0.25274053068413677, 0.25643115405453887, 0.26014409247949627, 0.26387888632242973, 0.26761248617047384, 0.2713923464474685, 0.27519124586995564, 0.27903666691140866, 0.28286892043647405, 0.2867138563234936, 0.29058485251938543, 0.294473324921574, 0.2983719480724808, 0.30229412857854226, 0.30621670783855004, 0.310170053955814, 0.3141362147309581, 0.3180880605485293, 0.32208141025860965, 0.3261067913127219, 0.3301157736716265, 0.33413452750904565, 0.3381503745897753, 0.3421879579167677, 0.3462204389099792, 0.3502725227139816, 0.3543293668566673, 0.3584022672851529, 0.36246514516559863, 0.36652212150942703, 0.3705921113079915, 0.37466327707866076, 0.3787427903932064, 0.3828129081557885, 0.3868424037183062, 0.3909150203834024, 0.3949827577956328, 0.39908879965710337, 0.40313936889788415, 0.4071616685448215, 0.4112054050190632, 0.4152412528945245, 0.4192298504937406, 0.4232521385222772, 0.4272922208661186, 0.43128458247330925, 0.4352646553987302, 0.43924343073690353, 0.44319454944989706, 0.4471285104565555, 0.45104988337187024, 0.45495446107241083, 0.45883987480331184, 0.4627079074048213, 0.4664949092432604, 0.47032966345737776, 0.4741389602190506, 0.4779607542433777, 0.4817126226464068, 0.4854394339562089, 0.4891401904068348, 0.49281389078291044, 0.4964130849245856, 0.5000355332022015, 0.5036173417110532, 0.507174809153732, 0.5106978416552624, 0.5141910930875764, 0.5176425782959254, 0.521075090316084, 0.5244511331622214, 0.5277902727421822, 0.5310742638746621, 0.5343387978611079, 0.5375704448223718, 0.540751424161632, 0.5438902894326328, 0.5469940664167121, 0.5500448876604259, 0.5530246936763319, 0.5559889265501952, 0.558905217018784, 0.5617688267532535, 0.5645874506560357, 0.5673954108403184, 0.570107294085402, 0.5727694133910477, 0.5753103426879899, 0.577878583852623, 0.5803753423442369, 0.5828312322279415, 0.5852285249727935, 0.5875947056081392, 0.5898700884902485, 0.5920898195940753, 0.594247536068928, 0.5963456588581246, 0.5983940688363757, 0.6003694636542861, 0.602273063644571, 0.604126651611524, 0.6059169036432641, 0.6076497936414471, 0.6093105632418904, 0.6108586497486981, 0.6123949657791354, 0.613862363076711, 0.615300405489661, 0.616624163760339, 0.6178644987084264, 0.6190546425539805, 0.6201751606598218, 0.6212003913171029, 0.6221835131834244, 0.6231168445539595, 0.6239522052347543, 0.6247160547331155, 0.6253986968555971, 0.626019496642863, 0.6265617922400617, 0.6270365974471761, 0.6274373728448064, 0.6277798363822337, 0.6280299280271594, 0.6281598460563655, 0.6282680532495754, 0.6282993503881329, 0.6282352876278463, 0.6281154822205087, 0.6279711431803896, 0.6276896330381505, 0.6273339372035819, 0.6268772820651463, 0.6263759106088163, 0.6257956254387995, 0.6251421628373398, 0.6244124857941268, 0.6235961117092235, 0.6227157590441588, 0.6217829150505207, 0.6207470393059386, 0.6196366365070466, 0.6184411616580386, 0.6171832931204427, 0.6158200893180762, 0.6144167044758079, 0.6129373155084296, 0.6114461572587782, 0.609808307284712, 0.6080558214894585, 0.6062818285062672, 0.6044346114811177, 0.602486784471212, 0.6004981013415295, 0.5984759261391123, 0.5963363495512555, 0.5941271855025776, 0.5918262803034372, 0.589482045951401, 0.5870417365364634, 0.5845624759620113, 0.5820135729851719, 0.5794052348383897, 0.5767186107435232, 0.5739894630101645, 0.5711678050338411, 0.5682826951201482, 0.5653321034617895, 0.5623223289897152, 0.5592323396426648, 0.5561023771763777, 0.5529112323237535, 0.5496651485056215, 0.5463537792633468, 0.5429617900853517, 0.5395380661172772, 0.5360568565940508, 0.532502033101805, 0.5289113951729435, 0.5253041356533854, 0.5215996650404513, 0.5178447193796398, 0.514012332277631, 0.510162690614463, 0.5062929864761745, 0.5023423393196107, 0.49833187245920657, 0.49429358501920745, 0.4902112009364666, 0.4860513469857441, 0.48188853197270215, 0.4776870853603906, 0.4734399793273465, 0.46915333529070524, 0.46484974641602106, 0.46048540913570785, 0.4560814588017558, 0.4516503371075451, 0.4471869342333796, 0.4426884918456877, 0.4381647052814214, 0.4336213925637752, 0.42904007609498984, 0.424433019334999, 0.41980010190910916, 0.4151453647750113, 0.41044989064654774, 0.40575443769484776, 0.4010382960369434, 0.39632411588889843, 0.39156815342350887, 0.3867796618677864, 0.38199654148048245, 0.3771996198478264, 0.37242610574009233, 0.36760118015606863, 0.3627380573794012, 0.3579027112365796, 0.3530601480998861, 0.3482316457718411, 0.34337624125373145, 0.3384723857131446, 0.3336200357049595, 0.32876546913374965, 0.3239514119615532, 0.31909193630740196, 0.3142186276039966, 0.3093721447735354, 0.3045316812777174, 0.29968396176071277, 0.2948613375482178, 0.29008632992382744, 0.2852785100659681, 0.28048476761660784, 0.2756650102233537, 0.2709077769704436, 0.2662026499164502, 0.26147203050610235, 0.25676123980162574, 0.2520500953149375, 0.24738480422955064, 0.24272008693999553, 0.23810232874760862, 0.23350763563432214, 0.22892144840725873, 0.224378953644847, 0.21986791292092608, 0.21537841481650827, 0.2109180615871574, 0.20650666639708679, 0.20210591803752329, 0.19773230922137244, 0.19340092218037103, 0.18910486806526197, 0.18482258268735682, 0.18060301102500279, 0.17642706112938228, 0.17228173420518025, 0.16817594329359564, 0.16413852784161817, 0.16011116725758226, 0.15607729655391567, 0.1521447996604068, 0.1482546939195357, 0.14445713272586014, 0.14064870419707287, 0.13687249359443612, 0.13316286522524365, 0.12950149198561747, 0.1258876798750309, 0.12232486628335631, 0.11878023036422918, 0.11532208670346573, 0.11191334122663861, 0.10855479854120371, 0.10524721053275769, 0.10199791439939915, 0.09879345544080245, 0.09564228990276112, 0.09255156659735492, 0.08950765556653034, 0.08651619562997354, 0.08358319157699497, 0.08070584138731164, 0.07790969260417914, 0.07514143675075324, 0.07240861183799777, 0.06975924210544995, 0.06716670129424353, 0.0645993709559087, 0.062125179346076045, 0.05972654506354782, 0.05736154563713893, 0.055054068167299755, 0.052806899495029966, 0.05061449682440679, 0.04849466633867783, 0.04641638622765554, 0.04439691115159615, 0.04240689503882766, 0.04050825680929163, 0.0386755864986226, 0.036889177955297565, 0.03516002015271195, 0.03351454209995635, 0.031896164708314675, 0.030287002952260167, 0.02879105403185127, 0.02734984040100622, 0.026015095279993995, 0.02467669071177626, 0.023349258049859763, 0.022130974520314612, 0.02096633310431443, 0.01986043856627698, 0.018801756010828882, 0.0178241417010673, 0.016867965675706705, 0.015965781157633845, 0.015079774585845937, 0.0142883009997471, 0.013562684412745175, 0.012868697297533732, 0.012224764318257914, 0.011627656996159653, 0.011082423579448225, 0.010599907043359303, 0.010148452546001377, 0.009744686570208863, 0.00937589173280105, 0.009066685493666068, 0.008816756158455567, 0.008594367191958802, 0.008416066181025843, 0.008270386578885194, 0.008179050362166958, 0.008179074285920952, 0.008162452170588348, 0.008188027785452743, 0.008200182839930988, 0.008313441048023201, 0.008478244317840678, 0.008660054548420979, 0.00887699808094605, 0.00916271710622704, 0.009442972300000674, 0.009768302054557487, 0.010114965228234938, 0.010494376004790045, 0.010881444896693458, 0.011325793642605596, 0.011825897937177261, 0.01232156995483743, 0.012844834274798484, 0.013397187587115377, 0.013971853881307495, 0.01459342166804819, 0.015212807955874517, 0.015855600320959857, 0.016564337630355645, 0.017244683572479123, 0.01794990009508144, 0.018672843974360708, 0.019415226626412783, 0.020243344049083435, 0.021011959220027382, 0.021821073780433856, 0.022623778519958226, 0.023443536112404087, 0.024261380061793916, 0.025112392803867636, 0.026034390249423733, 0.026899118507618624, 0.02777599219547928, 0.028674002256542996, 0.029569060585864938, 0.030472309576210246, 0.03138234269395873, 0.03229784559017343, 0.03326137919941296, 0.034178664682521814, 0.03511101538169415, 0.036034474279847975, 0.03696031138431243, 0.03790715041487626, 0.03883147098361307, 0.039816745166958586, 0.04073196813537668, 0.04163229029568453, 0.0425500473222327, 0.04346501096505714, 0.0444344200838134, 0.0453330514183944, 0.046255515892591734, 0.04714400077580768, 0.0480286414674326, 0.04890012404856758, 0.04977415593457128, 0.05066409956497161, 0.05151822073575522, 0.05236391231776727, 0.05322143775759137, 0.054044771473436115, 0.05486752058856244, 0.055669046562123535, 0.05645953920554959, 0.05730456220162192, 0.0580623165482715, 0.0588172728069993, 0.05955422664932072, 0.06028005780666431, 0.06097793763490591, 0.06168093606027599, 0.06242128456023785, 0.06308845809094274, 0.06374325471792107, 0.06439685786770456, 0.06502321769370782, 0.06562263150242381, 0.06622275389340551, 0.06680741925106914, 0.06740819380969397, 0.06795713203152455, 0.06846253831348338, 0.06898612532547743, 0.06949307842847409, 0.07003914980468882, 0.07050587336663008, 0.07098047870615196, 0.0714174848833151, 0.07184175423184995, 0.07222507863789845, 0.07262646870386007, 0.07301280358272737, 0.07338421780220054, 0.0737408873661861, 0.07414672460999092, 0.07446652934504701, 0.07479050848164104, 0.07508742293559939, 0.07537442890511117, 0.07563678972472807, 0.07590549836401085, 0.07618057988394687, 0.07642557932908334, 0.07666118206085705, 0.07691943321706153, 0.07713286739599708, 0.07735273599511246, 0.07755093503457804, 0.07774335273705509, 0.07793413195864206, 0.07811504871931298, 0.07829776045166066, 0.07846850612370876, 0.0786355445625142, 0.07878734937565307, 0.07894979364774256, 0.07909999417404458, 0.0792583784449007, 0.0794146676645655, 0.0795683447141696, 0.07972305826890243, 0.07992054656300436, 0.08007137652250772, 0.08022664436283142, 0.08039618706692801, 0.08056085129079464, 0.08072430686720379, 0.08090409997537276, 0.08109147748854847, 0.08128853623393135, 0.08149325495042825, 0.08173722621556918, 0.08195921135522513, 0.08219460125731325, 0.08240954529392473, 0.08267811234790412, 0.08300934393901185, 0.08329988919141389, 0.08360887056575439, 0.08393164255661376, 0.08428020301547304, 0.08466097097393105, 0.08504938286290316, 0.08546042381549013, 0.08586834285563678, 0.08633040042974388, 0.08685189250439519, 0.08735771895141793, 0.08789133676895548, 0.08842168924080147, 0.08901732327918115, 0.08964805824062848, 0.09030091004758233, 0.09098483712867171, 0.09170221162917924, 0.09245124986380586, 0.0932438410202409, 0.09406124365129892, 0.09491544704400812, 0.09582462404710808, 0.09675301205697671, 0.09774581960601415, 0.09875303277950111, 0.09980369254251505, 0.10087054316666831, 0.10201348796145081, 0.10318697193205513, 0.10442013106429379, 0.10569817999153168, 0.1070446821825482, 0.10841264470386212, 0.10982041092263241, 0.11128848293547863, 0.11280662318944577, 0.11437697763520722, 0.11599752888296287, 0.11766001915252022, 0.11938778603381595, 0.12116902229830391, 0.12299260091267801, 0.12488470753040798, 0.1268452503897842, 0.12884684140469427, 0.1309059657370009, 0.13304450439231505, 0.135217933144064, 0.13743205828303143, 0.13972961738232537, 0.14208747839291458, 0.1444902801278419, 0.1469724222026645, 0.1495407977081612, 0.1521424038376927, 0.15480762817372823, 0.15751423853736096, 0.16031052023924486, 0.16318203660229316, 0.16610385379686732, 0.1690905186320041, 0.17211710552527812, 0.1752374924248608, 0.17843138807837153, 0.18167945203900102, 0.18499303054905616, 0.18835909029685674, 0.19180604913347118, 0.19531572199358171, 0.19889398522593854, 0.20253788425004823, 0.20621307469649344, 0.20999303651813864, 0.21387949882367221, 0.21778246099293525, 0.22175236375789104, 0.22574257059698485, 0.22985163211861204, 0.23401774731259561, 0.23825513354063463, 0.24255598056450808, 0.2469176566059965, 0.2513457578100295, 0.255867554442426, 0.26041799019261724, 0.2650329455153099, 0.2696707663468759, 0.27441839186373446, 0.2792332466987215, 0.2841009668705044, 0.28902908008391903, 0.2939959212129952, 0.299046157720567, 0.3041581319050714, 0.3093229739134967, 0.3145449235448103, 0.3198433266017303, 0.32517524322528885, 0.33052904927822285, 0.33597724676141766, 0.3414781432777197, 0.34702579421472607, 0.35263079324245883, 0.3582954049261925, 0.3639991210307366, 0.3697521191449489, 0.3755136566316971, 0.3813674214853304, 0.3872613501703405, 0.39320319180233926, 0.39918745058305544, 0.40520003415177824, 0.41126827418478573, 0.41736624100677167, 0.4235127913195166, 0.4297198655277444, 0.43593572370484235, 0.44218760300646015, 0.44843575785609985, 0.45476073081560237, 0.46109711317392976, 0.4674833736291015, 0.47389644105134343, 0.48038971480880704, 0.4868464173369067, 0.49328462497223513, 0.4997986390873934, 0.5063334612465781, 0.5128732144898461, 0.5194476144250496, 0.5260088371844618, 0.5326176768430203, 0.5392382724021277, 0.5458973456389019, 0.5525344217104039, 0.5591665804341378, 0.5658233038075509, 0.5724857478356478, 0.579153754770607, 0.5858229852176243, 0.5924762101901743, 0.5991485306523809, 0.6058179405328588, 0.6124763190950954, 0.6191362562853028, 0.6257644693180738, 0.6324102292333975, 0.6390437359408433, 0.6456821812705897, 0.6522846256538616, 0.6588529863228498, 0.6654251096066133, 0.6719773523305862, 0.6784909288023229, 0.6850009623526253, 0.691521298171375, 0.6979742810473876, 0.7044007844946694, 0.710771126439314, 0.7171427636607044, 0.72350616412278, 0.7298061584834363, 0.7360709952116229, 0.7422431559331932, 0.7484393931118352, 0.754630530444295, 0.7607334486994819, 0.7667923343417489, 0.7727869431224617, 0.7787551262547221, 0.7846533644033081, 0.7905225041236693, 0.7963375191389478, 0.802101061397526, 0.80780331621402, 0.8134157776756915, 0.8190047620178168, 0.8245311927248803, 0.8300456658666518, 0.8354369394048025, 0.8407198830927604, 0.8459887912471158, 0.851188694707896, 0.856302454789426, 0.8613627100712322, 0.866349399032229, 0.8712614173856551, 0.8760976457633441, 0.880878186978797, 0.8855567549070735, 0.8901334330894457, 0.894657707057401, 0.8991000465430147, 0.903451424843962, 0.9077277120525945, 0.9119277268523451, 0.9160307345513479, 0.9200467425817717, 0.9239415294406134, 0.92778461554258, 0.9315543411176019, 0.9352104831823562, 0.9387742859468419, 0.9422355799024197, 0.9456132558174503, 0.9488968130933573, 0.9520826836887738, 0.9551717047978184, 0.9581180305449863, 0.9610168979667626, 0.9638461145955308, 0.9665376563324205, 0.9691288672578725, 0.9716178307091331, 0.9740068016274588, 0.9762910141067962, 0.9784756060233194, 0.9805569589479757, 0.9825253525169884, 0.9844001347719208, 0.9861898485169331, 0.9878518912589511, 0.989409548707193, 0.9908624293780355, 0.9922101857336505, 0.9934233187648621, 0.99456364860158, 0.9955964319063147, 0.9965257079006244, 0.997343081533229, 0.9980122077488145, 0.9986206348316228, 0.9991198071766987, 0.999487612562367, 0.9997724544171926, 0.999930823598893, 1.0, 0.9999601534123487, 0.9998716915467087, 0.9996082906343494, 0.999222627904856, 0.9987543492499149, 0.9981816717200382, 0.9974638404564374, 0.9966887443824447, 0.9958121552622639, 0.9948264063499387, 0.9937369931803633, 0.9925605892128803, 0.9912640823680166, 0.9898750218234112, 0.9883771114595434, 0.9867804286932568, 0.9850510952251732, 0.9832631403633078, 0.9813684959495238, 0.9793851017275098, 0.9773045506774749, 0.9751279188535787, 0.9728562802241277, 0.9705053072792537, 0.9680450382950642, 0.9654938209013245, 0.9627955686509524, 0.9600726233212412, 0.9572638391102858, 0.9543594384637621, 0.9513671767649402, 0.9482738657147782, 0.9451119390017018, 0.9418854208693073, 0.9385534730041, 0.9351411049473485, 0.9316456299495328, 0.9280768161128558, 0.9244644437324403, 0.9207393211291751, 0.916942044314898, 0.9130458515381119, 0.9091111518567313, 0.9051088348298846, 0.901034710539301, 0.8968933803981394, 0.8926371947748604, 0.8883720264325238, 0.8840412869531575, 0.8796468593154438, 0.8751905898174602, 0.8706875631135704, 0.8661113467920478, 0.8614886854122309, 0.8568014606496069, 0.8520622879509647, 0.8472461789443465, 0.8424111308121197, 0.837547230085976, 0.8326139363181607, 0.8276365575330108, 0.8226073960326289, 0.8175478016552588, 0.8124311394198455, 0.8072957748569008, 0.8021229834133538, 0.7968959973751827, 0.7916561128588099, 0.7864441745453631, 0.7811322796040201, 0.7757944856600695, 0.770360480543434, 0.7649840263895802, 0.7595937343099949, 0.7541662197284201, 0.7487175702044756, 0.7432535902728514, 0.7377676089185204, 0.7322581397539191, 0.7267438252113989, 0.7211996899280017, 0.715664156166117, 0.7101185356696804, 0.7045712914022424, 0.6990101022600691, 0.6934671261873372, 0.6878960557193956, 0.6823252084283566, 0.6767268237338065, 0.6711644171774607, 0.6656128593634297, 0.6600568844065156, 0.6545075408795235, 0.6489557502718825, 0.6434256039480518, 0.6378702126940391, 0.6323673271963621, 0.6268761053519587, 0.621422221463174, 0.6159566051529737, 0.6104879348734864, 0.605062776531773, 0.5996574089160661, 0.5942919417572381, 0.5889283524620046, 0.5835595282394286, 0.5782516194839347, 0.5729697579023447, 0.5677233554732839, 0.5624968790208013, 0.5572891504188104, 0.5521268060164298, 0.5469969259836966, 0.5418715810988052, 0.5368140733695596, 0.5318242322596111, 0.5268328831437177, 0.5218805630762998, 0.516945686693682, 0.5120771739366062, 0.5072267090554582, 0.5024433418000688, 0.4977014239789805, 0.49304591393581504, 0.4883847901275942, 0.48373239420771624, 0.47917118953543836, 0.4746562845233133, 0.4702191169374252, 0.46579564821909125, 0.46142278845046447, 0.45710106232344727, 0.4528309811803299, 0.4485997716066741, 0.44443613407991944, 0.4402996272382026, 0.4362444217190357, 0.4322412245144738, 0.4283252345598912, 0.42442372371599607, 0.4205555224333582, 0.41676886370670874, 0.41303731751623646, 0.4093639533510421, 0.40574350519364444, 0.4021860881473673, 0.39867787745670863, 0.3952269726085228, 0.39177647928244486, 0.3884478825514786, 0.38519770936180414, 0.3819757207398471, 0.3788106377444207, 0.3756827605294057, 0.37263457606721145, 0.36967052695988406, 0.36673158578507103, 0.36385087971448576, 0.36102299192513704, 0.3582590761277228, 0.35554606144433654, 0.35289791725501624, 0.3503066279439435, 0.34777603070475593, 0.3452974820371585, 0.3428569008356852, 0.340493519646898, 0.3381850684042697, 0.3359048303849568, 0.3337090238795677, 0.33158856244840246, 0.32949538897104236, 0.32745603351099345, 0.3254674541921646, 0.3235348753487167, 0.3216878851623582, 0.31985548063908575, 0.31807640895629824, 0.3163180412110274, 0.3146473292864382, 0.31304176620969587, 0.31146698064757344, 0.3099412654648648, 0.3084294224399462, 0.30700411428395685, 0.30562913020601, 0.30429273199886603, 0.30300070072949065, 0.30176838006268625, 0.300561293121573, 0.299365776990482, 0.29824875409192786, 0.29717174746339536, 0.2961633837969437, 0.2951609716898583, 0.29419175207884146, 0.29326891593634474, 0.29238369531405806, 0.29149009951137345, 0.290683191081176, 0.28990872311202154, 0.2891661589811615, 0.28845490885762254, 0.287775661687801, 0.287124913816785, 0.2865207649223591, 0.2859257633654537, 0.2853595124133308, 0.2848210485176201, 0.28430940117287506, 0.28381695879455504, 0.28335684952892176, 0.2829202417182726, 0.28251416282759073, 0.28212073806575066, 0.28173648899963005, 0.28138579158454397, 0.2810535042955451, 0.28076657683536094, 0.280464823764849, 0.28012453218233513, 0.2798630591159224, 0.27961335591041153, 0.2793827173685709, 0.2791535102063952, 0.27893309077706663, 0.2787234579883995, 0.27852220456482885, 0.27832318255738375, 0.2781368282238176, 0.2779546768930473, 0.2777787256586205, 0.2776065700659914, 0.27745595624348784, 0.2772865383865863, 0.2771406750069386, 0.27697221949544987, 0.27680530168616757, 0.27659234272606514, 0.2764310141753061, 0.2763104519433184, 0.2761340620951065, 0.27595453702143535, 0.27577216619384565, 0.27558312693384496, 0.2753933307663268, 0.2751905466783166, 0.27498014119699965, 0.27474261354295487, 0.27451658273769997, 0.2742805514165165, 0.27403102430227116, 0.27376890861701303, 0.2735107949336391, 0.2732193514455806, 0.27286922596110613, 0.27255560369981463, 0.27222440103546114, 0.27190049707609354, 0.2715299251180927, 0.2710917099851787, 0.2706925054427716, 0.2702721178071386, 0.2698821645522711, 0.26941242283995787, 0.26886418129757533, 0.26836378773097536, 0.26784001946102853, 0.26731667080936683, 0.2667428264839795, 0.2661744561280258, 0.2655519429520094, 0.2649078932239759, 0.26420724033033766, 0.263522828148732, 0.2628186751181879, 0.2620833188995981, 0.26132286170528696, 0.26058088028203175, 0.2597640464532386, 0.25888414023605694, 0.2580252816385456, 0.25713991147161924, 0.2562478282105889, 0.25530660663792354, 0.25432377574369236, 0.25333296380022174, 0.25228859648821966, 0.2512470685908192, 0.25017696528540506, 0.24910237243008632, 0.24797268380958315, 0.24680703650452274, 0.2456251645207849, 0.24441608385872304, 0.24319448796188983, 0.24192944299188418, 0.24062373216200741, 0.23930840924862232, 0.23796625233869328, 0.236585502159194, 0.23519175053304864, 0.23376709891585126, 0.23232032710964268, 0.23084704170936501, 0.2293475910596916, 0.22782232271552025, 0.2262954718598852, 0.22471659553182288, 0.22311429569506308, 0.221450255339574, 0.21980650555700432, 0.21814705056210068, 0.21645269802052522, 0.21473498084075976, 0.21302621070856168, 0.21125912648452738, 0.20942806521815005, 0.20762636208055352, 0.2058024791023828, 0.20396235902213675, 0.20209533648669956, 0.20022820632010038, 0.19831920155652466, 0.19639242189310332, 0.19443234295908476, 0.1924732481897538, 0.19052063336319375, 0.18852429214848065, 0.1865130613101761, 0.1844661078208311, 0.18242900797201603, 0.18038904728112223, 0.17832147349154276, 0.17624105500556406, 0.1741417057385364, 0.17203809693924776, 0.16987783628449285, 0.16775750530421663, 0.16562438872122312, 0.16349541799049588, 0.1613376955689601, 0.15920548347201327, 0.15702617842679858, 0.15484133349289944, 0.1526686613610911, 0.15047196210323588, 0.14822967695772443, 0.14603249202918087, 0.1438306101542474, 0.14161553501864607, 0.13940779818217539, 0.13722770159181397, 0.13501116968587146, 0.1327951035165926, 0.13056677553705515, 0.12835496053406645, 0.1261498412554768, 0.12394081461765823, 0.12173483773734942, 0.1195351973852639, 0.1173368832000567, 0.11509987477549491, 0.11291790531525936, 0.11073980038125061, 0.10856652505548312, 0.10639900035996884, 0.10425933947638552, 0.1021032356406704, 0.09995660663957337, 0.09782669427684576, 0.09569998775507861, 0.09357430793849153, 0.09147275933165476, 0.08938331581427564, 0.08728933761615994, 0.08522810774577946, 0.08321298726540778, 0.08117414171354946, 0.07915148702550175, 0.07713745040613003, 0.07514936022780488, 0.07319545539562576, 0.07123952329166906, 0.06930243184295648, 0.06736194420267122, 0.06546636630265194, 0.06360926865079382, 0.06174885450892877, 0.05990917742980642, 0.05807597690715803, 0.05628063371620886, 0.054546038602832, 0.05278799479179846, 0.051054025331234903, 0.04931769780332442, 0.047635582484743366, 0.046029528465066465, 0.04438704499438183, 0.0427712763518944, 0.04119542593481993, 0.03963124828106226, 0.03810904217099, 0.036597698649415415, 0.035114450539341424, 0.033673781837560736, 0.032244581474886375, 0.03087327343660555, 0.029497657606801588, 0.028152181223077655, 0.026863108509742425, 0.0255737846608644, 0.02433666279011266, 0.023106258529072728, 0.021907411087824607, 0.02077423958233017, 0.0196330612282358, 0.01855361985915564, 0.017473356714641806, 0.01642639882771915, 0.015420145822910195, 0.014437193459884132, 0.013486562990267015, 0.012567864014219565, 0.011680772951142896, 0.010879432695575088, 0.010047930067867873, 0.009255740501016636, 0.008491000208993942, 0.007759493614540741, 0.007115166845626063, 0.006441928952892218, 0.005791843192156208, 0.005189584964257149, 0.0046204064426243726, 0.004098462278880772, 0.0035923313769661764, 0.0031813202851968354, 0.0027324026324568296, 0.002318990878602004, 0.0019747875674120834, 0.0016257243767365504, 0.0013027030219659248, 0.0010246658168767615, 0.0007799185508268707, 0.0005971110446862645, 0.00041368570469280444, 0.00027303966400817265, 0.00015481934061602884, 6.948208584271538e-05, 2.179669648189805e-05, 0.0, 6.966561428126533e-05, 0.0001033935120532104, 0.0001714326600962335, 0.0002530667636715889, 0.0003899059048804304, 0.0006241261679359928, 0.0008142289977481089, 0.0010383175756120847, 0.00130349525522251, 0.0015920690606086529, 0.0018955272810446248, 0.0022498896624287617, 0.0026341645625664726, 0.003101046551134629, 0.0035373130317243374, 0.004024001070278042, 0.004520892840549867, 0.005049324335337395, 0.005607253055056974, 0.0061968638568441065, 0.0068345982554846784, 0.0074804538484553925, 0.00815595688954465, 0.008857905456315764, 0.009591453577459325, 0.010387527117571937, 0.011172384841848335, 0.011986492678956438, 0.012831923034582481, 0.01370251228066407, 0.014622166520484713, 0.015545297539191759, 0.01649662118398704, 0.01748490281457569, 0.018489921477553472, 0.019523571230245264, 0.020582581352744548, 0.021665466245291608, 0.022777500640578253, 0.02391521571769069, 0.02511549408979534, 0.026299076337671628, 0.027513661517008976, 0.028750284048005652, 0.03001320765962542, 0.03129271667551831, 0.03260818623594776, 0.033929717746244134, 0.0352965956094451, 0.0366866525237176, 0.03812640360310488, 0.039559386523235755, 0.04100103846911781, 0.042484984229601376, 0.04399218069828511, 0.04557432275150007, 0.04712130297986172, 0.04868896675070817, 0.05028814064598518, 0.05191214224775834, 0.0535460619260471, 0.055220668325365735, 0.05692642565704215, 0.05864631709335018, 0.060389687898677984, 0.06216703341005195, 0.06395567786093445, 0.06578401779626536, 0.0676180396679799, 0.06947644985491395, 0.07138423231537665, 0.07328757881438983, 0.07521216616820779, 0.077166129058122, 0.07914448147601516, 0.08111783009817848, 0.08314809678454174, 0.08521124890959547, 0.08728485352081874, 0.08938160640034105, 0.0914922734512827, 0.09363667272084099, 0.09581185494695083, 0.0980010449566615, 0.10021381236076364, 0.10245422595296749, 0.10471391380146301, 0.10699635591475633, 0.10930444622256767, 0.11163669590129718, 0.11403699623424611, 0.11641233004826639, 0.11880132400384102, 0.1212319597027045, 0.12368835506683869, 0.12614923849064394, 0.128659746907241, 0.1312399011232365, 0.13379395931634933, 0.1363754774411026, 0.13898561717018532, 0.141621434067798, 0.14426318063235757, 0.14695594645969326, 0.1496745942931066, 0.1524232760818463, 0.15519370115536324, 0.15797217698998417, 0.1607983583294335, 0.16365042895162243, 0.16653135081753334, 0.16943577303841947, 0.17234986139410088, 0.17531054430460796, 0.17829765491677746, 0.18136596540486472, 0.18440011634849726, 0.18742097035037644, 0.19052150328898262, 0.19364981595494066, 0.1968207758552484, 0.2000035954975903, 0.20321312047813642, 0.2064550997274098, 0.209726500481702, 0.213042047495317, 0.21637082437176716, 0.21970101937326456, 0.22309471352029445, 0.2265173924095513, 0.22994807712435375, 0.2334321494318094, 0.23696727133808404, 0.24050583349341256, 0.24407483725358878, 0.2476677529596461, 0.25129878457553956, 0.2549535343472157, 0.25864623866230324, 0.26236916134260885, 0.26609856343983007, 0.2698853647239849, 0.2736987691256407, 0.27754469854719965, 0.2814202503799271, 0.2853508569308035, 0.289283082637343, 0.2931964611731531, 0.2971981325937556, 0.30122836664681085, 0.3052980826348338, 0.3093849522260733, 0.3135070330293458, 0.3176530997629694, 0.32182945885485226, 0.3260201417464292, 0.3302589437669531, 0.33452827147021946, 0.3388253218055541, 0.3431516478200242, 0.3474992278013814, 0.3518849046307736, 0.35630710942606986, 0.3607488344755631, 0.36521938763146744, 0.3697052971285166, 0.37423456088911317, 0.37875807038289355, 0.3833462219017386, 0.3879596018676378, 0.3925969404947363, 0.39726105706508347, 0.40194103528315817, 0.40665653047620587, 0.411396411576733, 0.4161526006495975, 0.4209418629547773, 0.4257333376108102, 0.4305719834227639, 0.43543245280942405, 0.4403013635167998, 0.4452067608388549, 0.4501818224686254, 0.45512196433975355, 0.4600850156108732, 0.46503976921569484, 0.47005044155996917, 0.47507759570258135, 0.480126429272058, 0.48519332396242404, 0.490253903479851, 0.4953584403873751, 0.5004754825022875, 0.5056102875792671, 0.5107592816248036, 0.5159312945057457, 0.5211060693051198, 0.5262701597707891, 0.5314737027274915, 0.5366877683419483, 0.5419144967354285, 0.5471476843588677, 0.552380578654071, 0.5576322709002043, 0.5628910812702336, 0.5681324726864246, 0.5734065513349905, 0.5787122159127331, 0.5839896460741825, 0.589271183730872, 0.5945028617007588, 0.5997966534349477, 0.6050928513888033, 0.6103824862676893, 0.6156696964189132, 0.6209578015254497, 0.626237624148967, 0.6315210769839458, 0.636790397964107, 0.6420541386841384, 0.6472715293417097, 0.6525262481372465, 0.657794107040259, 0.6630236208553612, 0.6682422916903049, 0.6734716933195563, 0.678662848151774, 0.6837856751586808, 0.6889574724325259, 0.6941111168712476, 0.6992538142511862, 0.704367828512875, 0.7094829600023849, 0.7145531077978016, 0.7196024032429967, 0.7245845550403794, 0.7295943353124269, 0.7345904872149016, 0.7395439849846481, 0.744455073767613, 0.749353798386802, 0.7542218796081257, 0.7590597266026836, 0.7638635692624339, 0.7686459454592117, 0.7733804497439658, 0.778080178716458, 0.7827333771018551, 0.7873614796474913, 0.7919016908529048, 0.7964573656580781, 0.8009693764213539, 0.8054436826958252, 0.8098654452759257, 0.8142642928916753, 0.8185913811252118, 0.8228724860372509, 0.8271038448944703, 0.8312899941625576, 0.8354174015153213, 0.8395047412264434, 0.8435399521632627, 0.847488861130026, 0.8514210139976874, 0.8553280244247246, 0.8591414316222704, 0.8628981320926953, 0.8665904416306724, 0.8702314306972716, 0.8738175331412765, 0.8773364990781605, 0.8807936496726045, 0.8841468555578412, 0.8874826179790087, 0.8907645968797953, 0.8939639576662767, 0.8970957525895298, 0.9001618678580496, 0.9031558888717277, 0.9060695666189591, 0.9089246853821865, 0.9117079067095472, 0.9144065969491197, 0.917045462073373, 0.9196096892795423, 0.9220986896388348, 0.9245118685295892, 0.9268473016800809, 0.9291072139630958, 0.9312682091712741, 0.9333748588519466, 0.9354014816132781, 0.9373304320751868, 0.9391979894942424, 0.9410059000870128, 0.9427059142605616, 0.9443244146648073, 0.945858257160293, 0.947312609018026, 0.9486692729197598, 0.9499588663155452, 0.9511637191324389, 0.9522636522608725, 0.9533007239928505, 0.954239187765299, 0.9551043454316432, 0.9558819691027244, 0.9565959322386065, 0.9571954143449918, 0.9576661617104884, 0.9580982413117111, 0.9584412246604701, 0.9587350770385493, 0.9588952782333492, 0.9589557599640512, 0.9589445353980766, 0.9588457411544526, 0.958628826628246, 0.9583586878334313, 0.9579992461967337, 0.9575507859693537, 0.957013585218849, 0.9564131333613097, 0.9556960913313719, 0.9548779589866957, 0.953989861493692, 0.9530146553497969, 0.9519366862799594, 0.9507901061895859, 0.9495550660564389, 0.9482348466844549, 0.9468283439007723, 0.945318790392773, 0.9437433638874859, 0.9421007464679088, 0.940352087910237, 0.9385200117796239, 0.9366076764695624, 0.9346099642127745, 0.9325013669681438, 0.9303445157288925, 0.9281054614105766, 0.9257677886972194, 0.9233690149884083, 0.9209187669315397, 0.9183559368922323, 0.9157160105581937, 0.9129665291893823, 0.910178780405326, 0.907289082041453, 0.9043521042004723, 0.9013390749859443, 0.8982698141881277, 0.8951060281251093, 0.8918841465008034, 0.8885769712857647, 0.8852012199884987, 0.8817485267541468, 0.8782395887228276, 0.8746550962175847, 0.8710158625982204, 0.8673119745087664, 0.863524685086535, 0.8596974849177265, 0.8557894233718943, 0.8518413405163568, 0.8478325873659012, 0.8437632978023133, 0.8396377289250198, 0.8354358193343882, 0.8312013032879317, 0.8269120312108486, 0.8225881186777075, 0.8181915663268848, 0.8137458256211283, 0.8092522066762456, 0.8047120199580735, 0.8001504644785962, 0.7955180617626142, 0.7908191647512295, 0.78610852106528, 0.781357475126476, 0.7765422043606004, 0.7717177159727472, 0.7668927430878854, 0.761989870456141, 0.7570546130635155, 0.7520802644313482, 0.7470850311642028, 0.7420156714265294, 0.7369695029972372, 0.7318945507906024, 0.7268045088662208, 0.7216756921670935, 0.7165491150539605, 0.7113727111940226, 0.7061778301867228, 0.7009180136499482, 0.6956961756681433, 0.6904465416246705, 0.6851934160650238, 0.6799259340196482, 0.6746949343517817, 0.6693977021265983, 0.6640289308634797, 0.658728115242541, 0.6534195973341234, 0.648135673074036, 0.6428131598388085, 0.6374977854759738, 0.632174000154951, 0.6268525904574445, 0.6215321987339263, 0.6162197630473951, 0.6109121093168021, 0.6056133689387568, 0.6003232754397729, 0.5950019967949907, 0.5897383083146742, 0.5844967926323383, 0.5792536613943383, 0.5740245955349468, 0.5688269330100187, 0.5636281922096074, 0.5584459008046787, 0.5532868954031094, 0.5481492182902696, 0.5430300782647427, 0.537939115553335, 0.5328435863789311, 0.5278067472703096, 0.5227952287797079, 0.517807746851647, 0.5128512662853896, 0.507931885665896, 0.5030339265176131, 0.4981680136455732, 0.493316671957559, 0.48852047976297486, 0.48373727580247217, 0.47901337166460867, 0.4743247729263807, 0.4696793553610899, 0.46506418672831074, 0.46052273460746906, 0.45598263957236534, 0.45147239723778154, 0.44702087038031635, 0.44261300390956143, 0.4382030884574187, 0.4338906046003939, 0.4296624578815361, 0.42543221448836915, 0.4212494989272458, 0.41709896825078074, 0.4130150478040538, 0.4089821038647929, 0.4049951452658825, 0.4010579277443469, 0.39718959152797595, 0.393351161672048, 0.3895345881510783, 0.3858050974036347, 0.3821269088042193, 0.37847933713059584, 0.37490803683686724, 0.3713777459372447, 0.36791163374375324, 0.3644976808534101, 0.3611457411266481, 0.35783656278945253, 0.35457095669516164, 0.3513718095260403, 0.3482268353898243, 0.3451535987579489, 0.3421156786172224, 0.33913767370824044, 0.33621115227434034, 0.33334083158040895, 0.33053595427446786, 0.32777670103003653, 0.32504344919998285, 0.32240092174619156, 0.319812834029918, 0.31730178914888746, 0.3148198160190016, 0.31239488028751267, 0.31002390082926157, 0.30770817375776105, 0.30545005490803745, 0.3032435888069486, 0.30105310404283425, 0.29896007323050644, 0.2969186123229432, 0.29493660564316815, 0.292996991986855, 0.29110768140562454, 0.2892712072601067, 0.2874856766895337, 0.28574543539724584, 0.2840613918704626, 0.2824188964159555, 0.2808344830894174, 0.2792983053968965, 0.277794040550065, 0.27635511492295234, 0.27499938256089934, 0.273647454475541, 0.2723428479517138, 0.27104631348605523, 0.2698389170530402, 0.2686770307203325, 0.2675545435725598, 0.2664740838193888, 0.2654748911675674, 0.2644717038060866, 0.26347911487606107, 0.2625638632957179, 0.2616873125274465, 0.2608301777881522, 0.26003123669140443, 0.25925317196916964, 0.258526404607018, 0.25783301600914954, 0.25717641491641613, 0.2565475181721999, 0.25596762672083284, 0.255399328534676, 0.2548622673208868, 0.2543395958937505, 0.2538642471757763, 0.25344962995824094, 0.25302438457359444, 0.25262691052764175, 0.2522375113055374, 0.2518945922374893, 0.2516029657779598, 0.25130245137072127, 0.2510250783141591, 0.2507404974301464, 0.2505096601288629, 0.25028897201810796, 0.2500945121976494, 0.2499160025370502, 0.24974069255201048, 0.2495931565306353, 0.24949161078813487, 0.24936475700597216, 0.24925105480045762, 0.24914148348557177, 0.2490519328471171, 0.24896798063767092, 0.2488971466606224, 0.24883378408154658, 0.24874779810814412, 0.24870037336900064, 0.248652111226286, 0.24861082356871814, 0.24857112456569053, 0.24856419660514378, 0.24852162661039529, 0.24844984967749512, 0.24841279150862114, 0.24837340010094225, 0.24836813905066907, 0.24831729056233467, 0.2482428480943188, 0.24818894184013182, 0.24812947568916438, 0.2480450854730949, 0.24797450019708087, 0.2479042707438697, 0.24781403501697355, 0.24771416115416198, 0.2475813921235489, 0.24746300829849543, 0.24736615013942131, 0.24721695399754293, 0.24705571365737322, 0.2468643819391155, 0.24667887472161487, 0.24648601124093172, 0.24626828268081785, 0.24603453532096445, 0.2457722013474138, 0.24550607127481905, 0.24524266597088573, 0.2449363618894155, 0.2446118011396083, 0.24423517822485755, 0.243876440880225, 0.24351171117984416, 0.24310685194502335, 0.24268041468415188, 0.2422014661728223, 0.24173451324693243, 0.2412629867287921, 0.24074443902920198, 0.24020227623001372, 0.23960832619339772, 0.23902155614704657, 0.238419347844295, 0.23777908487414143, 0.23711326692738727, 0.2364602282460199, 0.23573798832922574, 0.23494812406240254, 0.23418331448411325, 0.23339137656804462, 0.23262671965561307, 0.2317736462094655, 0.23082218344722435, 0.2299299216206795, 0.22900860338946316, 0.22808902664177474, 0.22710654146104917, 0.2261226902858036, 0.22508383195249018, 0.22401977676872795, 0.2229316618078272, 0.22181651966786312, 0.22065192934312564, 0.21948861002897846, 0.21829827852839756, 0.21709970650957902, 0.21585359181938782, 0.21457813921430707, 0.2132818925351965, 0.21196025292852347, 0.21060012035231526, 0.2092299078449283, 0.20780229050445198, 0.20638533905240736, 0.2049417436412879, 0.20349335468697294, 0.2019956168666365, 0.20047156005418795, 0.1989272159623001, 0.19735984156145617, 0.19575659147782845, 0.1941461154304425, 0.1925144849387157, 0.19085942943814144, 0.18918306388951928, 0.1875058249999579, 0.1857859146960797, 0.18404740283799848, 0.18229066104495897, 0.18050281265104706, 0.17871249117730717, 0.17690443829282063, 0.17506992499282556, 0.1732292693455305, 0.17138532659777447, 0.16951052794674587, 0.16762121266503494, 0.16573516923994128, 0.16381626184683612, 0.1618336963857548, 0.1598979573219121, 0.1579483001929965, 0.15602278161331407, 0.15404325989864884, 0.15205982912245164, 0.15006172588672653, 0.14805576859061184, 0.14601194949592095, 0.14399570567528094, 0.14197680322812592, 0.13994476833018651, 0.13790667628940842, 0.13586724960084554, 0.13381875663189322, 0.13174539989407766, 0.12969301849474366, 0.12763719096269488, 0.12559602531121863, 0.12353367087191316, 0.12151248002777006, 0.11944563045181227, 0.1173824266922291, 0.11531921317370285, 0.11326482205928604, 0.11116452100126413, 0.10912600899188898, 0.1070901450498978, 0.10505784893649218, 0.10303000906366117, 0.1010220822613315, 0.09900386032717477, 0.09699341299588049, 0.095035199496145, 0.09303675782221955, 0.09102664117299139, 0.08905593714293432, 0.08709672867400478, 0.08517345727501888, 0.08323588846658406, 0.08130088875415802, 0.07939422720877891, 0.07750217669956644, 0.07563321307766573, 0.07377092457930763, 0.07194117517785349, 0.07011056455291531, 0.06829839553385235, 0.0665275778885875, 0.06475051063100344, 0.06305530442765335, 0.06131237495587565, 0.059594166662481116, 0.05789516684842718, 0.05622654475014313, 0.05461781143959253, 0.05299284448732099, 0.05139413707214766, 0.049838821337112635, 0.04829016942639563, 0.046740737362619245, 0.0452497265061922, 0.04378419042189697, 0.04241740767428185, 0.04099448890790723, 0.039610039881516214, 0.038246888200440615, 0.03691429142907281, 0.035621389022919454, 0.0343483488496815, 0.03314860385711263, 0.031931814789594906, 0.030748214588591026, 0.029653259468976265, 0.028528233006260607, 0.02744290075753707, 0.026388284346312588, 0.02536868741721215, 0.024395712216809418, 0.023443707690945833, 0.022533254131585606, 0.021650032616577882, 0.020801747727123763, 0.020040016872720865, 0.01925470571752527, 0.01851361871014564, 0.017802236695656014, 0.017128081039979072, 0.016549236645993864, 0.015941306191148, 0.015359894175916551, 0.014832626937659953, 0.014343320691278057, 0.013915566988168464, 0.013498340856519124, 0.013174122160770832, 0.012826892313826655, 0.01252073415172085, 0.012239081133649694, 0.012015253816119098, 0.01183262014736802, 0.011685285931320911, 0.011576189112385591, 0.011534344671639616, 0.011497529187275065, 0.011555892417161057