0.05529847188227529, 0.0551172958957694, 0.05498953940277826, 0.05481952966237235, 0.05465862854557975, 0.05446666169031319, 0.05432505457695245, 0.05413971872369645, 0.05401039076376112, 0.05388084491688159, 0.053817662113996655, 0.05367929333857524, 0.05355561498787076, 0.05342256037024578, 0.05329286199424244, 0.05315224259553488, 0.05302986532282803, 0.05293957748585416, 0.0528163956136247, 0.05269634897613218, 0.05252923453055683, 0.05242102338548731, 0.05230141047418213, 0.052194279352549736, 0.052086784979443065, 0.05199870157076656, 0.05188906963007969, 0.05180613214446135, 0.0516969344162726, 0.051591137758892194, 0.05143596919625126, 0.0513434676812909, 0.05127902279057899, 0.05118406501312232, 0.051091782689886484, 0.05103836485772192, 0.050947246799544904, 0.0508528714564026, 0.05077276030450677, 0.050696928568061024, 0.05060868420644236, 0.05054339107419814, 0.0504230948924573, 0.05037180639847348, 0.050320761403980764, 0.050317710435269544, 0.050262898960063626, 0.05022366391863156, 0.050176450319513205, 0.050134422085750516, 0.050125273851548934, 0.050089981690903215, 0.050055779923001406, 0.050034230992658045, 0.05001857558049434, 0.049958759814401656, 0.04996087014144021, 0.04995191354704768, 0.04996173373332013, 0.04997424507022758, 0.05000371795697033, 0.05002101761781078, 0.05010390154473679, 0.05012277332160605, 0.05014997124831471, 0.050151868781113, 0.050198965759401665, 0.05027384563184645, 0.05032938217596698, 0.050391889136786897, 0.050389134056676915, 0.05047440959590909, 0.05058455638371584, 0.05067292465327747, 0.05076624704781466, 0.050903622437750075, 0.051002704968450045, 0.05105693445422245, 0.051178281773009995, 0.051304329819985235, 0.05140769505525656, 0.05154769069729349, 0.051700126318905734, 0.05184779288664996, 0.05200096717895925, 0.05216551813320398, 0.05232993408565966, 0.052525998570384896, 0.05270080422405696, 0.05288404039416721, 0.053011849422445315, 0.05321986427649297, 0.053490854470086655, 0.053701428867341465, 0.0539153623646555, 0.05414436628884539, 0.05438180616716303, 0.05457773139517069, 0.05483831232716899, 0.05517662007102356, 0.05543968186633803, 0.055713147327273886, 0.05594126927781624, 0.0562417973937639, 0.056504537068500796, 0.056824148441350135, 0.057148389670510114, 0.057527771471072915, 0.05785662053914336, 0.058208303530282716, 0.05855331473178306, 0.058908045638048905, 0.05926682515976056, 0.0596413422291633, 0.06002493938326016, 0.06041757632977938, 0.060819217629867806, 0.061229832201910805, 0.061649392839325856, 0.06208342397383476, 0.06252010686225302, 0.06296598435544243, 0.06339325460988389, 0.06386085371939379, 0.06433315465490408, 0.06481623716162392, 0.06530697821159254, 0.0657972139382674, 0.0663047773267737, 0.06675058940393212, 0.06728228754916302, 0.0678179951655196, 0.06847766982289928, 0.06900823618884998, 0.06949022595274955, 0.07005288228024523, 0.07062355118284876, 0.07121615908804486, 0.07180124890149277, 0.07238414824457749, 0.07298834791951814, 0.07360062095786109, 0.07422372608593722, 0.07485173799121093, 0.07548235265343214, 0.07612730021212812, 0.07677994615221781, 0.07749019052456384, 0.07815180784309118, 0.07877663483197091, 0.07946449083577262, 0.08015918533200153, 0.08083297267705883, 0.08154482460693051, 0.0822868722249738, 0.08300620584529962, 0.08373249308940496, 0.08448228577664159, 0.08522009050855886, 0.0859072283396545, 0.08666733185382611, 0.08743127458282053, 0.088227040413602, 0.0889958327182799, 0.08979834606290672, 0.09057547499044218, 0.0913599000136319, 0.09217900602995936, 0.0929734674135072, 0.09372306385738764, 0.0945393513810124, 0.09535951731205501, 0.09615579967192243, 0.0969871483878461, 0.09784844188421891, 0.09868084020382721, 0.09951725613722469, 0.1003714060436984, 0.10121363360861653, 0.10202688403686015, 0.10288165894691051, 0.10373831368117942, 0.10463568230446758, 0.10549114886435967, 0.10630342629429143, 0.10717240771147944, 0.10804195282759192, 0.1090147284432685, 0.1098724656114055, 0.11063386662256433, 0.11151630617836489, 0.11239759532880744, 0.11329446581333906, 0.11417157226275414, 0.11503751480496568, 0.1159157368286782, 0.11679295119865195, 0.11765797433181015, 0.11853429348262587, 0.11938369130274186, 0.12025920174551127, 0.12113121588720502, 0.12204421162325456, 0.12290385066997589, 0.12380423656061568, 0.12465649346450945, 0.1255094489533166, 0.12634575324621433, 0.12720014584624137, 0.12804401294826187, 0.1288946188496395, 0.12974171051211406, 0.13060438141029282, 0.13144102255614926, 0.13222990395672327, 0.13306495216570158, 0.13389324718312298, 0.13475912346383423, 0.13556812285484998, 0.13630883371081373, 0.13711646030102717, 0.13791510461207795, 0.13872705092218232, 0.13950515687036627, 0.1402784523778426, 0.14104083729153993, 0.1417953823047784, 0.14254184760483068, 0.143279989417558, 0.1439984641398356, 0.1447206176125817, 0.14543307522142526, 0.1461828317619495, 0.14686942735187006, 0.14751515376543234, 0.14819022188237574, 0.14885472715503315, 0.14953894978451415, 0.1501777652479909, 0.15084586088252291, 0.15146016974362858, 0.15206616909888968, 0.15259377188320075, 0.1531897823763053, 0.1537826716283139, 0.1543488421921601, 0.15490139314622836, 0.15546238565628423, 0.15598448992099512, 0.1564078091530673, 0.15691488401856538, 0.1574037075414595, 0.15797177072766924, 0.15841293584199467, 0.1588339621983342, 0.15925197169354233, 0.15965659350329656, 0.16000302149503148, 0.1603852487641039, 0.1607337788758719, 0.16108402444735911, 0.16141629966835178, 0.16173349097545525, 0.16202977842251062, 0.16231958841828126, 0.16257932603805003, 0.16282209417584353, 0.1630699596511456, 0.1632756006266205, 0.1634207427250451, 0.1635994561038938, 0.16375895968568183, 0.16389101527117364, 0.16401337808376007, 0.16419391738310887, 0.16426754541450908, 0.1643261761288529, 0.16429432132347038, 0.16433072471363264, 0.1644018192360755, 0.16438980271623718, 0.16436043429295177, 0.16428010136602136, 0.16421930125293407, 0.16414950402207776, 0.16404714984557897, 0.16392538999222075, 0.16382854456036278, 0.16366217125662377, 0.16347870707948167, 0.16327775063240246, 0.16305895197939496, 0.16277762254677372, 0.162527886093892, 0.16224316288918716, 0.16195312001966275, 0.16175802835096204, 0.16141039421182204, 0.16104824200442974, 0.16060982725781636, 0.16022431281085395, 0.1597940355253542, 0.15937213450294824, 0.15892914654180257, 0.15848753917059907, 0.15800038168179978, 0.15747197454358242, 0.15694956940306984, 0.15640699450921852, 0.15589722087183563, 0.15530842011038498, 0.15465877946758647, 0.1540424932193895, 0.15340692892975433, 0.15279117885119342, 0.15211290595375254, 0.15141550720268176, 0.15070480862798796, 0.14997749215771447, 0.14922802678520597, 0.14846825459946802, 0.14763065281886648, 0.1468451344448525, 0.14603967791863062, 0.14527596836369758, 0.1444248350435577, 0.14351740180563968, 0.14264218746456186, 0.1417500444668293, 0.14085526281445007, 0.13992874808826145, 0.13903999494469513, 0.1380771810055169, 0.13710289631395026, 0.13606149667282672, 0.13507085432241964, 0.13410968701392537, 0.13308404591423306, 0.13204684094199917, 0.13092322356951483, 0.12987255203505776, 0.1288202387644493, 0.12773753546214545, 0.1266415420871469, 0.12556886351880642, 0.12444332884230805, 0.12324982161849123, 0.12211240264980973, 0.12096238071394522, 0.11981708548873544, 0.11864176537537346, 0.11750386756702669, 0.11630354595178446, 0.11509699281081175, 0.1138121135813913, 0.11260235066094261, 0.1114130279732198, 0.11017997045265686, 0.10893993407100602, 0.10769607851670933, 0.10644288588937469, 0.10520620705154803, 0.10393920255645814, 0.10266846972345009, 0.10138863583784918, 0.10011169766298025, 0.09882299193911964, 0.09754049981472479, 0.09625467610145222, 0.0950019587817162, 0.09370603781389394, 0.09239884235772552, 0.0911040586916705, 0.08980869262336229, 0.08852131762162468, 0.0872245074424292, 0.08592839188133415, 0.08463320779582159, 0.08333921418367579, 0.08203836740240969, 0.08074866046259933, 0.07944946668406716, 0.07816477357820355, 0.07688185383305231, 0.0756317091921764, 0.0743499282571869, 0.07298984203109886, 0.07172863375108222, 0.07046812289245098, 0.06925084498815838, 0.06798917306303506, 0.06670537129705535, 0.06545883679107399, 0.06421716265438236, 0.0630031549994084, 0.06177019979783407, 0.060586698496500425, 0.05936450425494332, 0.05815315846390215, 0.05694155912507584, 0.055753333953660125, 0.054567103746561034, 0.05340074976495216, 0.05224463014763789, 0.05109347674990572, 0.04995937080786042, 0.04885822974274928, 0.04774319358438119, 0.04664083377761026, 0.04553742355124241, 0.0444626185530238, 0.04343070679767209, 0.0423770993395851, 0.041338178867697015, 0.04028902626310867, 0.039282806550003754, 0.03829286625544033, 0.03731362438166222, 0.03634867166372567, 0.03535945041621714, 0.03442882052036296, 0.03361099074149525, 0.03269417287561771, 0.031796996519318284, 0.030919147646883405, 0.03006037390818256, 0.029226026179458946, 0.02840415805297718, 0.027601225387968675, 0.0267727305572677, 0.02601298380313227, 0.025327713127165658, 0.024593386746142573, 0.023879223827975596, 0.023207258446970837, 0.022530180572587596, 0.021882474150955167, 0.021246212052061255, 0.020631054544694327, 0.020009055061419975, 0.019439043356072785, 0.018974091242628572, 0.018431468269845677, 0.017913011424906523, 0.017384880939886944, 0.016917398970273213, 0.01648190519288511, 0.016054747561086727, 0.015649017291749577, 0.015333968178783254, 0.014962055796288976, 0.014604151661768228, 0.014283269005544677, 0.013985789097088797, 0.013797378315786956, 0.013534894022922869, 0.013236003382529959, 0.013035508883155224, 0.01285720658533517, 0.012767545461457662, 0.012624853457372015, 0.012502246481387926, 0.01241094146801807, 0.012343881684323682, 0.012406107632297844, 0.012373143678531266, 0.012388807860089696, 0.012410744876421862, 0.012461001179018305, 0.012555277173241515, 0.012657368836229206, 0.01277239757569557, 0.01292913815089893, 0.013110576754447031, 0.013405081450651224, 0.013623552477450819, 0.01388734080947175, 0.014160121134835606, 0.014460779471966513, 0.014749665982914049, 0.015108675153458944, 0.015535680856459995, 0.015936121440878283, 0.016362350963882114, 0.01684165567996193, 0.01731466586258422, 0.01783606495838556, 0.018358179734869452, 0.01890684929751929, 0.01949265288876509, 0.020091557238707525, 0.020741283920048797, 0.02138834618202608, 0.022061936624900226, 0.022758803425385096, 0.0234844404547875, 0.02427406307795672, 0.02504482167677426, 0.02584242500003709, 0.026688573642961552, 0.02753565544780209, 0.02839846099405527, 0.029300105464089038, 0.030254797108851948, 0.031203286278418844, 0.0321781612399169, 0.03320953396402693, 0.034232172002302254, 0.03531238500834472, 0.03638479317852219, 0.037485061673836806, 0.03864587578966917, 0.0397959290658091, 0.04092975899052974, 0.04214110482897501, 0.04337692542391077, 0.04463988067148035, 0.04592398511712222, 0.04724077867319457, 0.0485724989699888, 0.04992894146657543, 0.05136549150562648, 0.05276409474770032, 0.054145920125499965, 0.05560486470860533, 0.057088021819542305, 0.05863700292746926, 0.060163333259228215, 0.061707916563243204, 0.06328813961807046, 0.06489389720285225, 0.06656664566766825, 0.06821777365458682, 0.06985755005870409, 0.07156814609231021, 0.07330328029409432, 0.07508793209986565, 0.07686903273612022, 0.07870387819995132, 0.08053331484343938, 0.08239001472063885, 0.08430416383535652, 0.0862105961910701, 0.08812019991367073, 0.09008563097189491, 0.09207699699724471, 0.09409141735593701, 0.09613471339051545, 0.0982534864600564, 0.10034154795139431, 0.10245795772391673, 0.10458292062842388, 0.10675741582846872, 0.10897764079908687, 0.11120225155310272, 0.11345418608056483, 0.11571386592259454, 0.11802246292679264, 0.12032641136382947, 0.12269069942666445, 0.12507934768656456, 0.1274732948170405, 0.12991416486684407, 0.13238762324386458, 0.13487641343573764, 0.13739077718203807, 0.13999481549556375, 0.14255312355261468, 0.14513308037703065, 0.1477520981761015, 0.15040009553460998, 0.15308248831057886, 0.15578737437984647, 0.15847407596041665, 0.1612427742904215, 0.16403762416131618, 0.16688391825634646, 0.16972886453719777, 0.1726078101077059, 0.17550900768218128, 0.17843907321306482, 0.18135086055983884, 0.18434467418661935, 0.187353677371584, 0.19040188000957922, 0.19347653184028324, 0.19656973322693755, 0.19969955764172453, 0.2029230768200099, 0.20609907934874766, 0.20930661981241433, 0.2125288015464285, 0.21580079814643177, 0.21905834895960133, 0.2223958052821179, 0.22576065239245463, 0.22922257930303774, 0.23263440860777126, 0.23605067389697018, 0.23953003582737137, 0.24303939937728997, 0.2465343475630513, 0.25010923645990524, 0.25376703508317283, 0.2573900987526476, 0.26104433060688775, 0.2646907004364336, 0.26841162079165465, 0.2721360411770041, 0.2759172235103893, 0.2797257880782016, 0.28348992961231473, 0.28736329515052234, 0.2913135285069884, 0.29522931875056707, 0.29917365698359705, 0.3031383591580492, 0.3071412234248406, 0.31116692739341384, 0.3152273725555529, 0.3193160649420567, 0.3233997936957341, 0.32754938894487906, 0.33179484664160747, 0.33598894021788034, 0.3402138708744661, 0.3443970871823019, 0.3486915571803795, 0.35295056808301695, 0.3573041035687039, 0.3616801386753973, 0.3661624802944732, 0.3705746329491675, 0.3749710011875628, 0.37944558304773424, 0.38394550535108574, 0.3884540964847531, 0.39300667935925787, 0.39759733030295485, 0.4021965408623553, 0.4068206503406448, 0.41141118208239874, 0.4160917664123708, 0.4208071089112512, 0.42552788612370535, 0.4302705925429342, 0.43502681374662405, 0.43981410264285287, 0.4446196522542999, 0.449449194238748, 0.4542992333049758, 0.4591362444748457, 0.46403073751762036, 0.46893748126261514, 0.47386818965966876, 0.4788161522747138, 0.4837756567424453, 0.4887582773296412, 0.4937544010831009, 0.49876964469332824, 0.5038003951696277, 0.5088213297745074, 0.5138851392160164, 0.5189230206594967, 0.5240172831363726, 0.529121663886661, 0.5342249902880165, 0.5393506948727353, 0.5444632201770488, 0.5496095330862216, 0.554763088368262, 0.5599486618432781, 0.5651128874669875, 0.5702516495308595, 0.5754351150509532, 0.5806232598395475, 0.585796241743703, 0.5909948669167958, 0.5961873054941973, 0.6013908153089912, 0.6065950499312052, 0.6118133828513664, 0.6170157606768143, 0.6221819088425709, 0.6273877388031507, 0.6325897973824102, 0.637743154874267, 0.6429415899110583, 0.648159695109165, 0.6533381285649725, 0.65850925512315, 0.6636334940619049, 0.6687926438708033, 0.6738872423489886, 0.679028820324831, 0.6841544274836238, 0.689360898441733, 0.6944414013587408, 0.6994603560387704, 0.7045226108075705, 0.7095678014329873, 0.7145312280182338, 0.7195476382034514, 0.7245711364919948, 0.7295363630332046, 0.7344511051733041, 0.7393734723650038, 0.7442697401658316, 0.7491308560846212, 0.7539737291725361, 0.7587765822274687, 0.7635621934940503, 0.7683165747917, 0.7730749701446037, 0.777759825169638, 0.7823490720504582, 0.7869771493230474, 0.7915673698116041, 0.7961744980633438, 0.8006797783884783, 0.8050897373028564, 0.8095269333998906, 0.8139211706768068, 0.8182577573249932, 0.8225653235592586, 0.826823789901069, 0.8310382310968957, 0.8352044999688298, 0.839332811702004, 0.8433986545102427, 0.847386463732403, 0.8513541686309579, 0.8552678928634848, 0.8591739406386616, 0.8629711408832526, 0.8666949275098188, 0.8703852740225836, 0.8740179247845773, 0.8775557071750332, 0.8810742048317758, 0.88454354550216, 0.8879334367921704, 0.8912594571038622, 0.8945040034546241, 0.8977015065821478, 0.9008673811210286, 0.9039241085013959, 0.9069134890214496, 0.9098954051031741, 0.9127389593969379, 0.915390396213414, 0.9181136121934232, 0.9207595121628057, 0.9232971935801951, 0.9257911070177588, 0.928268488821019, 0.9305933880178062, 0.9328409200774878, 0.9350406961121468, 0.9371269405341461, 0.9391431928063027, 0.9410706606755491, 0.9429181403860558, 0.9446956637241304, 0.9463786239794708, 0.9479237012620232, 0.9494478741253516, 0.950884587629622, 0.9522306231682529, 0.9534914304268995, 0.9546438586348489, 0.9557287716631462, 0.9567227764964071, 0.9575812163005338, 0.9583981882515634, 0.9591458728828743, 0.9597712308340572, 0.9603037898206644, 0.9607460849208097, 0.9610919687319022, 0.9613416937214353, 0.9615008805997585, 0.9615659745896502, 0.9615866645793728, 0.9614565307452199, 0.9612038786675134, 0.96089297819853, 0.960487188004927, 0.9599751621563947, 0.9593802744137864, 0.9586864341580081, 0.957899463403941, 0.9570160220965068, 0.9560194471568225, 0.9549451312076236, 0.9537872789424647, 0.9525165666474902, 0.9511495726881011, 0.9497002389486547, 0.9481391654212108, 0.9464412623583148, 0.9446950469709673, 0.9428513831529545, 0.9408968455443124, 0.9388613705290992, 0.9367955753370123, 0.9345584405534956, 0.9322292472951788, 0.9297858115738361, 0.927275400012233, 0.9247162916711661, 0.922014479036346, 0.9192228619604804, 0.9162749507129466, 0.9133124876883186, 0.9103263331085076, 0.9071698577150474, 0.903925919036623, 0.900564289836646, 0.8971502198836475, 0.8936314081672249, 0.8900439877814743, 0.8863690447270595, 0.8825492550335852, 0.8787094412996929, 0.8748066361448545, 0.8707891880612938, 0.8666880178108018, 0.8625986035212903, 0.8583215329374061, 0.8538807231775675, 0.8494653330438372, 0.8449708730612924, 0.8404457940001424, 0.835791098766901, 0.8310305498939791, 0.8262358380143365, 0.821368548232504, 0.816416075244779, 0.8114091894386423, 0.8063133559963741, 0.8011712777573569, 0.7959613996328788, 0.7907574140481146, 0.7854074966864792, 0.7799735105392422, 0.7745094923314975, 0.768986927866924, 0.7634320558556911, 0.7577930886214086, 0.7520343052905292, 0.7462984415055229, 0.7405079761486737, 0.7347201865392013, 0.7288188666285137, 0.7227881587753147, 0.7168063248977569, 0.7107762832909287, 0.704752784553657, 0.6986257439179402, 0.692503831912916, 0.6862941595717799, 0.6800507311865924, 0.6737275655768026, 0.6674261869532377, 0.6610532877673244, 0.6546931843805621, 0.6483016805804226, 0.6419141102156223, 0.6354616926027087, 0.629002412294412, 0.6225025511911287, 0.615983474678109, 0.6094245441901478, 0.6028745279386456, 0.5963698085900663, 0.5897824022113876, 0.5831862687598983, 0.5764939288946849, 0.5698954975506748, 0.563315136134843, 0.5566960108788213, 0.5500730342886402, 0.5434175302689352, 0.5367962128615127, 0.5302441611041131, 0.5236159459507511, 0.5169955839850038, 0.5103595146984292, 0.5037622684144905, 0.49712030653102585, 0.49055330258169944, 0.4839973361311089, 0.4774711837247365, 0.47094152264804384, 0.4644383733784037, 0.45794586798408604, 0.4514756453270564, 0.44503772809247405, 0.43861609964685183, 0.4321917471482134, 0.425831133924349, 0.4194997380542875, 0.41321045423886715, 0.4069414427783056, 0.4007352835146141, 0.3945345767270098, 0.3883071147487717, 0.38219579134858794, 0.37612319592552634, 0.3700856396027949, 0.3640967127090497, 0.3581793251136862, 0.3522762031221773, 0.3464218078864994, 0.3406646755919913, 0.33490587496850055, 0.3291054079272517, 0.32347066113460604, 0.31788776060947876, 0.3124222545160231, 0.30694012742257154, 0.3015350603829984, 0.2961726586717555, 0.2908736011178924, 0.2856082287184433, 0.28044229543754134, 0.2753572308907903, 0.2703187600348512, 0.2653476540724614, 0.26037270948832897, 0.25554820856323335, 0.25079529842770054, 0.24610363657811019, 0.24148114877708646, 0.23694016649272645, 0.23245825462504194, 0.22811897904624812, 0.2237758015353237, 0.2195116208378764, 0.21530452295894184, 0.21120200091344593, 0.20715593606538382, 0.20321402987211018, 0.19935053392431823, 0.19550507649627713, 0.19180805395991407, 0.18824335644963744, 0.18469403667685702, 0.1812266389763728, 0.17776943149596305, 0.17447615101194439, 0.17126183528662425, 0.16812736437757883, 0.165073514669549, 0.16213148108407838, 0.1592369644782397, 0.15642655614119128, 0.15370043724939397, 0.15105874556729543, 0.14853764054017096, 0.14606049139082766, 0.14367273637636227, 0.14136816614336284, 0.13914975038823457, 0.13702270122897467, 0.13497488214108116, 0.13300418840729913, 0.1311279217224034, 0.12933584157007322, 0.1275915463864572, 0.1259713678577232, 0.12436570710399805, 0.1229160365654129, 0.12154346357078877, 0.12029269535899528, 0.11906955186464399, 0.11797655009926593, 0.1169071451824862, 0.11591997440382014, 0.11498643617415498, 0.11416466523772456, 0.1134653898569683, 0.11279359808242258, 0.11220112104022412, 0.11169246409607232, 0.1112548029485522, 0.11083265462471575, 0.11055474738485706, 0.11034787164182856, 0.11019761794531652, 0.11013288637097618, 0.11011720786299618, 0.11019128925082017, 0.11033151974032827, 0.11054012547671486, 0.11081058674293924, 0.1112509122467073, 0.11163616882196917, 0.11209019050713932, 0.11256964119691028, 0.11316133937971133, 0.11376452829723663, 0.11448415439563107, 0.11525993062939288, 0.11606882483852653, 0.11695713514272524, 0.1179420589143975, 0.11892840044084599, 0.1199677711016665, 0.12100339470414788, 0.12215194591006576, 0.12340475496935, 0.12463706445373804, 0.12591682201037555, 0.12718707428404652, 0.12856433375531767, 0.13000649306240122, 0.13145944695083692, 0.1329516529174349, 0.1344734725726328, 0.13604126828759183, 0.13767713661814215, 0.13930899094531912, 0.14097487749360574, 0.14262048118368928, 0.1443562916186695, 0.1461405953970767, 0.14792506242562428, 0.14973475914862747, 0.15152945633721385, 0.15339033849750391, 0.15528671367795913, 0.15718208485370508, 0.15909498832077518, 0.16101023401522171, 0.16295597977571297, 0.1649338898677527, 0.16690141904582384, 0.16888025506056598, 0.17085507511033615, 0.17285392431708535, 0.17488114679990582, 0.17688822110725927, 0.17890005398645356, 0.1809206720466535, 0.18293677444136575, 0.18490627795398257, 0.18692795422398112, 0.18894454663303792, 0.19096329212539567, 0.1929653836884361, 0.1949539840006518, 0.19693967649242264, 0.19891468047794988, 0.20090278534250203, 0.2028497169447597, 0.204775491318743, 0.20669641742646117, 0.20860129212610123, 0.21044723518952313, 0.21232147987803515, 0.21427345260117478, 0.21608991029100255, 0.21788805036036724, 0.2195829268277057, 0.22134987196420736, 0.22317213585971277, 0.2248719363803718, 0.2265468638988451, 0.22820096229707293, 0.22982100627515842, 0.23129846281588815, 0.2328738562752082, 0.23441141869390925, 0.2359580220330634, 0.23741304190869794, 0.23881521443307666, 0.24019912596487322, 0.24154429917289003, 0.24290557070797228, 0.2441643150392057, 0.24533001685294809, 0.24651956996490912, 0.2476663398174396, 0.2487642591447957, 0.2498246070515482, 0.2508652734307889, 0.251832701438872, 0.2527559518867549, 0.25369262099893775, 0.2545182024964683, 0.2552871214218541, 0.2560278402893713, 0.25672301373688083, 0.25734970155447107, 0.2579544126734698, 0.2584769913348189, 0.25898783877716186, 0.2594472340197809, 0.2598523473510504, 0.2602090195111288, 0.2605527493376144, 0.26080091802296257, 0.26099942217048966, 0.2611673419151602, 0.2612630913863738, 0.2612649992873491, 0.2612670856162429, 0.261216557778858, 0.26114681438809834, 0.2609871862117654, 0.26077439473561403, 0.2605142123758831, 0.26017553729990556, 0.2598173454792804, 0.2594068570901028, 0.2589193914970666, 0.25840833429018323, 0.2578222722636531, 0.2572089132833699, 0.2565425160292841, 0.25587646043563234, 0.25509930944084186, 0.2542129828557917, 0.25334743507415614, 0.25243070862177025, 0.2515134787884529, 0.25049027960780706, 0.24946524122050562, 0.2483442568011606, 0.24718012911779955, 0.24592014330860912, 0.24467645187427622, 0.24337577326911494, 0.24204234029757768, 0.24066367826713495, 0.2392155680203804, 0.23775184864949672, 0.23631309848421056, 0.23475279815533698, 0.23315389633328126, 0.23146127194224525, 0.2297933212636803, 0.2280405161943012, 0.2262982026902934, 0.22451484347685693, 0.22273057557960757, 0.22086406194172545, 0.21898740093804356, 0.2170483542514081, 0.2150773039069263, 0.2130832342095835, 0.2110491414072756, 0.2089994602244826, 0.2069053791129001, 0.20478401840662058, 0.20258608202615824, 0.20041843249942812, 0.19829486760205464, 0.19606317280739366, 0.1938097848115557, 0.19145757692345608, 0.18917232781059895, 0.18692387375495098, 0.18458377166136827, 0.18222549443681188, 0.17986924106244798, 0.17747453268994834, 0.17500969525690058, 0.1725934235192265, 0.17016086542947378, 0.16770216827926301, 0.1652421509162603, 0.16279386179997987, 0.1603054850957581, 0.15780779279927384, 0.15528516093142036, 0.15277400505732147, 0.15028617925829016, 0.1477579506275104, 0.14522654356603276, 0.1426900607061438, 0.14015529270939192, 0.13764483052073126, 0.13510652105577986, 0.13257083309202047, 0.1299469687132947, 0.12743036935902027, 0.1249912514142805, 0.12246599946961546, 0.11994795068968825, 0.11738796054215046, 0.11489301458626461, 0.11241042727091466, 0.10992962760025946, 0.1074583610376271, 0.10497553458556472, 0.10252940794040653, 0.1001336120133574, 0.09770674882613282, 0.09529588444326594, 0.0928629617569841, 0.09049134272099373, 0.08816916038654024, 0.0858267048664828, 0.08350437512663504, 0.0811890230521796, 0.078910859392864, 0.07669025347136456, 0.07445133087252853, 0.07223752848075672, 0.07002435743057656, 0.06786540127524211, 0.06570389842342889, 0.06359955238635989, 0.06152025264422588, 0.05951128407719481, 0.05747911592548757, 0.05548259430832028, 0.05351033256302317, 0.051569308490702584, 0.04962383388619533, 0.04775097701881093, 0.04587796105176927, 0.044070351383807896, 0.04229270191610135, 0.040579151885856396, 0.03885969933529379, 0.03719108125102145, 0.035538306066816766, 0.033921440211836046, 0.03236013283563742, 0.03081331927457612, 0.02924038304351464, 0.027777063028160763, 0.026347981577753803, 0.024981476768490957, 0.02361909860858135, 0.02230800915837534, 0.02101892629719738, 0.019768445870767946, 0.018520566489438634, 0.01735203102678349, 0.016261853256962572, 0.015161879637270621, 0.01410160429982356, 0.0130975808825412, 0.012114325972730431, 0.011104854084599335, 0.010210514134317332, 0.009352359098678382, 0.008619491257469062, 0.007823414896912686, 0.007047130540978263, 0.0063372805411022436, 0.005667111234899085, 0.005016907527720783, 0.004427673219846404, 0.0039011273608335778, 0.0033840538837026936, 0.0029058336917367404, 0.0024106211608529615, 0.002016038340812583, 0.0016644429395814538, 0.0013382318421576369, 0.001047284746544886, 0.0007859725068357975, 0.0005659717375018018, 0.00042217370726122037, 0.00026594356193095195, 0.00014630020763460396, 4.603872989800845e-05, 0.0, 3.233905292385798e-05, 4.826266418906516e-05, 9.983578680340416e-05, 0.0001751676041306067, 0.0002970903301968387, 0.00046561536568484824, 0.0006506231660568902, 0.0008679004655060131, 0.0011222747620208877, 0.0014012462696745926, 0.0017051419854343453, 0.0020450427063508254, 0.002413686683566042, 0.002829850482212987, 0.003251605091911423, 0.0037123789897848935, 0.004187791485176663, 0.004690201172047816, 0.005246514684008156, 0.005796934672395055, 0.006392901170768237, 0.006992134624570544, 0.007616657434388485, 0.008315346331267213, 0.008981017708244875, 0.009718928284422458, 0.01042748501685084, 0.011161235339008166, 0.011943624733584136, 0.012720158992045297, 0.013469131232640768, 0.014295318679991512, 0.015138376095637859, 0.016052988793898503, 0.016920417296948497, 0.01780554449158792, 0.018707224105911118, 0.019624389104084605, 0.020597654626395616, 0.021537602319949556, 0.02255359272079164, 0.02351468543195737, 0.024503071222513013, 0.025493662202287885, 0.02649821738270217, 0.027520948044951893, 0.02854883361557722, 0.029601185286000618, 0.03064743436272542, 0.03170299651703743, 0.032808462162824334, 0.033874408184188506, 0.034932533168654904, 0.03601709691032401, 0.03710738161886467, 0.03829689535194907, 0.03938432457151596, 0.040524901397963796, 0.04162284222103079, 0.04272937456051521, 0.04385132756514113, 0.04496966746279424, 0.046101361797052674, 0.04722757633655084, 0.04835713658274834, 0.04950571267782011, 0.050637041654016036, 0.05181996592262799, 0.052947479760149845, 0.05407790072130962, 0.05525456324643384, 0.05638215599917176, 0.05749570607151681, 0.058629532804984015, 0.05976301157238705, 0.06089268012573774, 0.06202383968890917, 0.06316933742840478, 0.06429335706965422, 0.06541522112312416, 0.06653726415634995, 0.06765321332220738, 0.06883261280957644, 0.06993360295934833, 0.07103468281306521, 0.07210183896060082, 0.07320524183995983, 0.07434938985770899, 0.075439733282283, 0.07652863991273723, 0.07764896218024513, 0.07872955675986007, 0.0797595738671714, 0.08084471112227734, 0.08192552767972969, 0.08304927766736095, 0.08411579894185521, 0.08521429417935968, 0.08627376242044753, 0.08733342382905919, 0.08840124755689777, 0.08945927197889751, 0.09052825070972051, 0.09158440931044726, 0.09264076573746549, 0.09369164571394421, 0.09474879322991159, 0.0958500443924216, 0.09690113109213047, 0.09795470583545166, 0.09903836066161853, 0.10009304109377883, 0.10112659718638992, 0.10219197734311337, 0.10325960445785379, 0.10430196733062527, 0.10537833406025822, 0.10647009181948341, 0.10754833020982588, 0.10863004423226891, 0.1097157216530368, 0.1108058703651029, 0.11188992000082068, 0.11299200893810646, 0.11409957236259959, 0.11521049622389383, 0.11633134075102523, 0.11747613253646486, 0.11861016383849332, 0.1197538026359999, 0.12092146939859223, 0.12208423519837427, 0.12323411639691906, 0.12442468630455755, 0.12562692874887496, 0.12688873692592448, 0.12811055865667348, 0.12934889105547615, 0.13060408083699615, 0.13187652010488418, 0.133122256271566, 0.1344361430336082, 0.1358050327285295, 0.13714723018452946, 0.13850953623669407, 0.13989527025101786, 0.14129910283383407, 0.1427138094050863, 0.14416357417899409, 0.1456358831535998, 0.14710925829304455, 0.14863161035527434, 0.15015799832532067, 0.15173061765733603, 0.15332738631043777, 0.1550464166389257, 0.15668222599152118, 0.15832006549735334, 0.1600249592375117, 0.16176102456962718, 0.16346496628201737, 0.16527299339043114, 0.1671656884160443, 0.16902615505220692, 0.17092103834901873, 0.1728481070440848, 0.1748138163182541, 0.17677106700730497, 0.1788148406640004, 0.18089325026308467, 0.1830100304002721, 0.185160198749861, 0.18740894204166328, 0.18962729831710548, 0.19188822215199092, 0.19417810407942268, 0.19652673169100068, 0.1988791846480659, 0.20131850294612214, 0.20379921864567221, 0.20634707376064698, 0.20890971502382802, 0.2114674350999676, 0.21412688231592453, 0.21682946588436658, 0.21962597140799525, 0.22241100961760715, 0.225175014238106, 0.22806574263736046, 0.2310014650806009, 0.23398302183590833, 0.23701118109694364, 0.2401504486996888, 0.24326578760265286, 0.24643323197843037, 0.24958344396574425, 0.2528639258276355, 0.2562620548240137, 0.25963095987993184, 0.2630531937150174, 0.2664371323662151, 0.269977376404026, 0.2735683860449665, 0.27720494886604813, 0.2808909444318826, 0.2846407388124326, 0.28842526007128627, 0.29221688045749034, 0.29611016410256435, 0.3000527576488172, 0.3040173693109602, 0.3080633531121388, 0.31216651151985403, 0.31630958325689557, 0.3205027502432514, 0.3247351015465285, 0.3290303457909104, 0.33342811438672937, 0.3378163994900397, 0.34225753550287114, 0.34669000890174306, 0.3512431075737667, 0.3558774521302093, 0.3605222407962354, 0.36521675632583867, 0.3699051004906863, 0.37470480970066283, 0.37956090043234947, 0.3844497285487658, 0.3893842881995664, 0.3943088060982775, 0.3993409130910103, 0.4044340148689493, 0.4095468124575332, 0.4147021614238421, 0.41989415545938125, 0.4251341676584551, 0.43040127983630605, 0.43572448779643747, 0.4410868313232188, 0.44654051854716587, 0.4519729054335885, 0.45740963669496115, 0.46292629886876296, 0.4684791472761342, 0.4740229894999675, 0.47965136602652897, 0.4852582026875213, 0.49095502687776765, 0.49671494365289764, 0.5024609931512787, 0.5082354332350215, 0.5140347048210745, 0.5198638613166021, 0.5256798834331496, 0.5315644266710917, 0.5374705834701126, 0.5434087367783571, 0.5493544964742894, 0.5552896016631301, 0.5612779167908016, 0.567282281479248, 0.5732602091586954, 0.5792992370645088, 0.5853741108677654, 0.5914310014879207, 0.5974985998617635, 0.6035369472027212, 0.6096274543960992, 0.6156813590707639, 0.6217861910987266, 0.6278917093252658, 0.6339943705424945, 0.6400991995333737, 0.6461520128786049, 0.6522579601811661, 0.6583568804180108, 0.6645090232490104, 0.6705837176118855, 0.6766188513703354, 0.6826836364037503, 0.6887371107671632, 0.6947751560231559, 0.7008022798934292, 0.7067860282649459, 0.7127839446030196, 0.718761743090541, 0.7247181368181925, 0.7306517858391752, 0.7365807224630685, 0.7424622269165829, 0.748317800969084, 0.754079217593302, 0.7598863970957055, 0.7656367539601551, 0.77137635288555, 0.7770777550380507, 0.7827426590761569, 0.7883640164377003, 0.793932796382739, 0.7994713005211314, 0.80496506549611, 0.8104488624951236, 0.8158446674638635, 0.8211715585852153, 0.8264750290818401, 0.8317271448700462, 0.8368931155762749, 0.842042217167508, 0.8471252417438421, 0.8521586304417322, 0.8571312510523829, 0.8620501731935746, 0.8668964151962633, 0.8716341216947393, 0.876356276598863, 0.8810089830163874, 0.8855634433390462, 0.890077544433065, 0.8945423058585548, 0.8989036854312712, 0.9031902025626714, 0.9073978311472507, 0.9115312048098594, 0.9155497053061012, 0.9195287623365932, 0.9234244678468383, 0.9272885585492455, 0.93100794986072, 0.9346217489535324, 0.9381756733792278, 0.9416420423828386, 0.9449752498358468, 0.948268474097831, 0.9515457136040575, 0.9546409853400487, 0.9576453095210948, 0.9605350164090939, 0.9633558862268012, 0.9660609068755157, 0.9686902605869478, 0.9712199084913948, 0.9735851624697526, 0.9759208309970093, 0.9782227381338208, 0.9803371927522255, 0.9823491286270273, 0.9842464742417203, 0.9860518944381748, 0.9877153159533092, 0.9893126696695053, 0.9908005838235165, 0.9922091705182653, 0.9934731342865737, 0.9946420252503063, 0.9956857009138643, 0.9966199542623149, 0.9974219091611198, 0.9981381259563356, 0.9986862970731107, 0.9991840483006825, 0.999565440722094, 0.9998250707446292, 0.9999748531883716, 1.0, 0.999918332267446, 0.9997201164685057, 0.9994970627281126, 0.9990546559398029, 0.9984125252600128, 0.9977588409309179, 0.9969881206903104, 0.9962116250407582, 0.9951936859135173, 0.9940436222487933, 0.9928080271502042, 0.9914601752882993, 0.989944392089134, 0.9883785456044263, 0.9867164090807884, 0.9849171739610675, 0.9830043022112475, 0.9809837000462823, 0.9788439646873235, 0.9765782187708579, 0.9742163813086608, 0.9717425156676337, 0.9691322735416488, 0.9664393907625082, 0.9636266921558628, 0.9607127748500861, 0.9576887004173951, 0.9545942823750088, 0.9513479113727279, 0.9479743018270399, 0.944521319194256, 0.9409634403172817, 0.9373265779030604, 0.9335586096253399, 0.9296845041551087, 0.9257168750273851, 0.9216500265819328, 0.917504335600032, 0.9132395080238154, 0.9088684495500907, 0.9044156767297099, 0.8998690447773542, 0.8952268999741619, 0.8904963016617151, 0.8856612975719962, 0.8807526406711246, 0.8757552191841406, 0.8706565967885717, 0.8654877194658871, 0.8602641681472402, 0.854922651829564, 0.8495008583758179, 0.8440056983241664, 0.838426773626603, 0.8327582105238194, 0.8270309290647323, 0.8212299897334352, 0.8153459067265082, 0.809403906665716, 0.8033925176881084, 0.7973134983664177, 0.7911686147318452, 0.7849318996588303, 0.7786641251148979, 0.7723509211829587, 0.7659589168264392, 0.7595097995566659, 0.7530054240799259, 0.7464476484953068, 0.7398133679045685, 0.7331575395688715, 0.7264525099089615, 0.7197059042765692, 0.7129079822934399, 0.7061089573318589, 0.6992223263635925, 0.6922992722457622, 0.6853497519517687, 0.6783577403152664, 0.6712820765475129, 0.6642365106639135, 0.6571604181039358, 0.6501058951737884, 0.6429688998987226, 0.6357884079835754, 0.6286133096324468, 0.6213580608494716, 0.614154376872841, 0.6069320268069356, 0.5997295081173688, 0.5924725089052543, 0.5852226414513289, 0.5779464930431898, 0.5706657187074632, 0.5633904696710788, 0.556104885671001, 0.5487734912773413, 0.5414983494152058, 0.5342254825358351, 0.5269681669728973, 0.5197049467006258, 0.5124233051554914, 0.5051842099124226, 0.4979568111720179, 0.49079042605725803, 0.4835868810341862, 0.47637071995855335, 0.469214373032376, 0.46208012358904094, 0.4549477012206076, 0.4478661897177378, 0.44085281915358865, 0.4338211180525827, 0.4268222583862148, 0.419791244315984, 0.4128712313257462, 0.4060544149532057, 0.3991954262350079, 0.3923783104712673, 0.3855323462037521, 0.3788123167386625, 0.37213433986030764, 0.36550040665508765, 0.358912433206325, 0.35241665118210147, 0.3459204572617377, 0.3394836069270095, 0.3330956059318257, 0.32676430854773436, 0.3204326950505782, 0.31422587241498745, 0.3081177795800848, 0.30202160753021484, 0.2959881688009524, 0.2900103438295185, 0.28410701040675923, 0.2782833557987813, 0.27251108727510664, 0.26680777764492936, 0.2611439383781106, 0.25558546678969574, 0.2501111367349808, 0.2446926674529248, 0.23934762369906187, 0.23405758702753826, 0.22886481583141607, 0.22373340675879455, 0.21869390728993168, 0.21373091356094887, 0.20884271001220525, 0.20403619029884595, 0.19931733001036087, 0.19466933020857471, 0.19010287210840293, 0.18557983492800198, 0.18118347557714637, 0.1769350723029171, 0.17269394655077563, 0.1685396479009929, 0.16449734923503734, 0.1605141611719189, 0.1566087065761812, 0.15280456578189755, 0.14908861459591385, 0.14538604825203402, 0.1418562288088887, 0.13843562928768607, 0.13507183028688263, 0.131794939608298, 0.12864686796008043, 0.1255393765741986, 0.1225024494654071, 0.11957719021074811, 0.11674043968800572, 0.11394221611258616, 0.11128862280115528, 0.10873437177657787, 0.10625023020742774, 0.10385278230043933, 0.10158918224745628, 0.09935908464760508, 0.09718207800784057, 0.09513430056946176, 0.0931725542919805, 0.09129102493556221, 0.08950120130520899, 0.08780726803987385, 0.08618528304317093, 0.08464797801559437, 0.08318096025208811, 0.081813172691227, 0.08061085487726544, 0.07939653983067371, 0.07826810454098297, 0.07710223997685386, 0.07615729716090741, 0.07531273328159603, 0.07451530492966736, 0.07379428912738643, 0.07315469720021776, 0.07258413731246773, 0.07209407140975418, 0.07167195941330452, 0.07132357870475392, 0.0710009017632168, 0.070803311630824, 0.07068520562866659, 0.0706224081288834, 0.07062738686159029, 0.07072429633247558, 0.07085918103942111, 0.07100517050942516, 0.07127908533072448, 0.07161413900759629, 0.07202345642029374, 0.07247672633431676, 0.07297559984589015, 0.07354852005625426, 0.07417799227129261, 0.07486299920661792, 0.07560247607887563, 0.07643137836794699, 0.07727187240802944, 0.07816542285914456, 0.07912439599557582, 0.08011779989177037, 0.0811799656362186, 0.08226800472942916, 0.08340330487818491, 0.08455086233167126, 0.08577978573083263, 0.08707402857938239, 0.08837914986368081, 0.08972331733102902, 0.09101896938299284, 0.09244742887592977, 0.09395540477711609, 0.09543589443895742, 0.09694705501047214, 0.09849030216121456, 0.10005837049271786, 0.10165039327749721, 0.103270868472008, 0.10491511286128163, 0.10655400407629562, 0.10824514757189271, 0.10994325516891759, 0.11167075833815901, 0.11341334259309517, 0.11519484753780034, 0.11696102311722834, 0.11879846363308297, 0.12058187960353639, 0.12237875653540485, 0.12416225930218719, 0.12598367554321785, 0.12777012572905533, 0.12960860771011465, 0.13144845314844894, 0.13332185102001495, 0.1351568961248316, 0.13700846803443045, 0.13883976254191072, 0.14066907728581304, 0.14246440159285348, 0.1442891684981868, 0.14608922925591997, 0.14789884039315454, 0.14969718456684808, 0.15147494370897427, 0.1532488081608775, 0.1550273404898567, 0.1567682949264835, 0.15849367119158317, 0.16021343754188117, 0.1619028842157207, 0.16351300409900257, 0.16517240201835262, 0.1668077606528583, 0.1684434190439191, 0.1700256241094156, 0.1716275954860624, 0.17315403456933695, 0.1746565214317013, 0.17611992849726643, 0.1775725480894568, 0.17896076331606048, 0.18036027080609032, 0.18173856305864566, 0.18307140967441435, 0.18437129414496403, 0.18564580966016928, 0.18687654269037782, 0.18808372864347683, 0.18924301734566668, 0.19036680146536297, 0.19140157916274006, 0.19245867322204835, 0.19352496482968654, 0.19449400832833344, 0.19542457065758137, 0.19633814623183035, 0.19718688458851175, 0.19795202425903605, 0.19872718776548817, 0.1994591839295024, 0.20016714136281413, 0.20080948556421055, 0.20137561942805934, 0.2019359144416109, 0.20245062015537596, 0.2029224259970624, 0.20334534615939776, 0.2037974759911054, 0.20411943820892323, 0.20439971101177834, 0.20457102742113292, 0.20477436079913133, 0.20496097189021625, 0.20506606107987482, 0.20512580734318941, 0.20510954888850666, 0.20508206558579592, 0.20500997305008517, 0.20488758008232047, 0.20471837828785333, 0.20448869093157865, 0.204228216084134, 0.20393186128200746, 0.20357636768462506, 0.20317519339201595, 0.20272026387702666, 0.20222953798789212, 0.20169345088449805, 0.20111236176100236, 0.20048663756496637, 0.1998194283937965, 0.19910522145495343, 0.19833382410167485, 0.1975351182663774, 0.19669310383681693, 0.19586934138350895, 0.19493458643925513, 0.19390884015000026, 0.19290423525235165, 0.19185856139199042, 0.19076965103043061, 0.18964401551023788, 0.18852060511958085, 0.18731158456078306, 0.1860668170846054, 0.18478108177115815, 0.18346655286476996, 0.18208657594584415, 0.18070654849685966, 0.17929092711482825, 0.1778349830086667, 0.17635133253427338, 0.17485087767754964, 0.17329908856724027, 0.17171650863541302, 0.17012050637151022, 0.1684764269957181, 0.16679361095449938, 0.1650962878479664, 0.16337199906463368, 0.16163816966910952, 0.1598602007618649, 0.15803361715139122, 0.15621219696241848, 0.15436713105866692, 0.15253265123242404, 0.15063891125052137, 0.14873176660466492, 0.14680009209140793, 0.14485115456767508, 0.1428273887380439, 0.14085339630960844, 0.13889155340280102, 0.13687821809452458, 0.13485068837576927, 0.13282931805828108, 0.13077375103588462, 0.12866905147084814, 0.12659858740527133, 0.1245172332146079, 0.12249824733535686, 0.1203893648422476, 0.11821871044302917, 0.116110649558018, 0.11399683106759911, 0.11186166647127073, 0.1097415898304229, 0.10765400640988436, 0.10552337415087724, 0.10339345441624839, 0.10126504346968282, 0.09913894739443148, 0.09706036621828129, 0.09493573740935643, 0.09281837600082557, 0.090653273138936, 0.08855892818700349, 0.0864841617240414, 0.08440052168277352, 0.08232542935446084, 0.08027918738981737, 0.0782213785010455, 0.07614809200417648, 0.07411901862986596, 0.07210206333395883, 0.07007874775862633, 0.06809128221923438, 0.06608708291527705, 0.06413206805617593, 0.06219114051214129, 0.060287689065023194, 0.05837565140200022, 0.05646292107572519, 0.054591623448257236, 0.05273959654894555, 0.05095492921018363, 0.049138221209479756, 0.04729059843909114, 0.04553045938697335, 0.04379262121251676, 0.0421695106033469, 0.04046729256103787, 0.038703463975298356, 0.03707269597394798, 0.03546678621828504, 0.03388934465188674, 0.03233525533919578, 0.03085846667658923, 0.02935346301725759, 0.027879920086101462, 0.026376994434985576, 0.024974664685006413, 0.023645357328274868, 0.022295401120189736, 0.02097794280473129, 0.0196932330414208, 0.01844151957914919, 0.017220271931799116, 0.016035627428432005, 0.014884537555531525, 0.013761701100487612, 0.012679151983760595, 0.011613908779748792, 0.010601621975169671, 0.009622846625409126, 0.008727870649299143, 0.0078108319601911955, 0.006906099938456025, 0.0060666191553349754, 0.005262738422313976, 0.004508419083018522, 0.0037742453580125674, 0.003126620875249381, 0.0024593071267657246, 0.0018312979311280824