0.03176137614527938, 0.031597255963177855, 0.03145063222425159, 0.03131589798931414, 0.031192918750232362, 0.03109249188063909, 0.030986444935853886, 0.03088204099400686, 0.030791405816346363, 0.030706101200631174, 0.030587698344705087, 0.03051552205490999, 0.030482158948603368, 0.030407481176475227, 0.030335902361648685, 0.03027336866948491, 0.030206306161998108, 0.030127852695206164, 0.03006784927950818, 0.030009517070659266, 0.029902766849830294, 0.029854358922561823, 0.029805103860565764, 0.029755552217020215, 0.02970622141575371, 0.02969991860200311, 0.029647104894531755, 0.029560634989497417, 0.029520561844402785, 0.029465230470341094, 0.029431694404506627, 0.02939992611115175, 0.02938921056827262, 0.029359984738870904, 0.029345860788073955, 0.029323717447569966, 0.029306727448793573, 0.02931849978065365, 0.029309134463238743, 0.029251670709394953, 0.029262673917186184, 0.029277196313684327, 0.029328544658103355, 0.029347077005959493, 0.029342257861732886, 0.029377442194311106, 0.02941744284866058, 0.029473508412389184, 0.029522558728576925, 0.02956682637945579, 0.029629764684537003, 0.029698513158381006, 0.029776404040976777, 0.02985695263296657, 0.029964410873791047, 0.03005557866767479, 0.030154676113629143, 0.030230306970648043, 0.03034910162031887, 0.030461430002852327, 0.030594203913081958, 0.030732821937554305, 0.03087602774030842, 0.0310274378282832, 0.031157242836662012, 0.03132568791961287, 0.03149963581529925, 0.03169989942075152, 0.03188353943465472, 0.03205619456624434, 0.032258013992513795, 0.03246689468676937, 0.032664308804121626, 0.03289050820641782, 0.033123479789054604, 0.03336358366744672, 0.03361114233756212, 0.03388838932936284, 0.03414892040614254, 0.03442675669618072, 0.03470526629946112, 0.034993752578167614, 0.03528905486206994, 0.03559782372789944, 0.035870889271646625, 0.03620493956212691, 0.03654625239296285, 0.036912472653097876, 0.03726729794804771, 0.03763771301249642, 0.038010538849272725, 0.03839333097063325, 0.03879400635195022, 0.039195975619133044, 0.03958036570966522, 0.04000718024080384, 0.04044306709805823, 0.040935295042007575, 0.04138409200785505, 0.04183899692080274, 0.042313145448093205, 0.04279895603639663, 0.04330417616576549, 0.04381206834987588, 0.0442816858555285, 0.044819583417905165, 0.04536636042840438, 0.045894138554329486, 0.046463215276577964, 0.04702482041319064, 0.0476127521898013, 0.04820888642667749, 0.04889208431947188, 0.049496117233141186, 0.0500560418006313, 0.05069487513951396, 0.05134375805989711, 0.05201388320019123, 0.05268210784532439, 0.053349028208379855, 0.0540413556755484, 0.054744295108608176, 0.05544856470088433, 0.05617426291929027, 0.05690877922433883, 0.05765558168260624, 0.058412924673929396, 0.05922322592230523, 0.05999656392290946, 0.06076893042122478, 0.06157001515634744, 0.06238285194592779, 0.06322610238135944, 0.06405962705298464, 0.06490396509797737, 0.06576216614466028, 0.066632115700273, 0.06749320856515958, 0.06838856327247417, 0.06930172238017504, 0.0702159987948657, 0.07114062951290755, 0.07205826916635857, 0.07300547774734543, 0.07390846585808386, 0.07488059007487295, 0.07585883831458375, 0.07686400849652125, 0.07785312071463853, 0.07887093570294675, 0.07987418781691812, 0.08088700662639488, 0.08185907257331695, 0.08289687805240109, 0.08398168799409989, 0.0850270656421086, 0.08608137410483843, 0.08713343261994232, 0.08820635990654904, 0.08927755858644212, 0.09036689442040732, 0.09146309826747213, 0.09257392244207996, 0.09368259503908277, 0.09480296090921608, 0.09592481462711856, 0.09705350300257824, 0.09813860802627895, 0.09928652810769788, 0.10044081908102444, 0.10159495256919546, 0.10275272167559649, 0.10394078693310554, 0.10510245971214173, 0.10629270240114454, 0.10746121121450401, 0.10863548139968256, 0.10980247362593386, 0.1109883753101911, 0.1121559555292405, 0.11335153924813259, 0.11454884089836445, 0.11576337989327247, 0.11696165089023033, 0.11815729626313985, 0.11935998232012553, 0.12056381662394536, 0.12176537170908465, 0.1229710176253494, 0.12415480303470516, 0.12536311388379337, 0.12656971564937816, 0.1278246540628732, 0.1290211293913572, 0.13018224128290737, 0.13138406163960556, 0.1325833975347394, 0.13376589892682436, 0.13496130936192247, 0.1361526811668015, 0.13733985292396167, 0.13852264030472727, 0.1397274851794057, 0.14089750095955086, 0.14207493105498095, 0.14323597418137785, 0.14439314940807185, 0.14553808704284332, 0.1466869422404859, 0.1478393612027033, 0.14897493581782728, 0.15010438692139796, 0.1512037337763931, 0.15232252059128906, 0.15339018359120485, 0.15449648081784292, 0.1555911165814395, 0.15676038283004431, 0.15782098793376986, 0.1588623242711391, 0.1599103050414868, 0.1609493980324109, 0.16194456055111855, 0.1629685899921067, 0.16395982335194445, 0.1649613843022191, 0.16594895481482688, 0.16694911185703476, 0.1679050909092632, 0.16882789644752785, 0.16976048930022516, 0.1706784066000622, 0.1716269066380261, 0.17250911457532692, 0.17337698906337967, 0.17423325661077388, 0.17504570974019204, 0.17587714983103378, 0.17669185775488852, 0.17751154219106216, 0.17828929718506475, 0.1790069364612071, 0.17975735815659302, 0.1804882498286821, 0.18124345878517426, 0.18192958793645944, 0.1826297931146108, 0.18327694269283026, 0.18390766447698814, 0.18444447910735162, 0.18505008797876607, 0.18565033248141316, 0.18620863590577758, 0.18674543881340736, 0.18726218802437836, 0.18775541783507244, 0.18825348600098618, 0.18869956573666974, 0.18912499933048998, 0.18953096672339606, 0.18991377089841963, 0.19022633218452503, 0.19057164310091823, 0.19089192810640113, 0.19120922820794908, 0.19147694598120082, 0.19175398838108013, 0.19197019998463313, 0.1921643486074603, 0.19227174793785384, 0.19242867117494003, 0.19260736004341444, 0.19270468409716285, 0.19277826623580943, 0.1928043335032197, 0.1928326427681264, 0.19286965416728694, 0.1928420274474591, 0.19279052520795592, 0.19271328197231144, 0.1926133647110237, 0.19246046896693556, 0.19231439451439863, 0.19214160409242292, 0.19196725442289395, 0.19173808612656018, 0.19145404031415075, 0.19117830547837997, 0.19087554425429445, 0.19059292216950813, 0.1902305774606067, 0.18977840866572737, 0.1893761454436951, 0.18894571633086446, 0.18852822356584598, 0.18803732436217813, 0.18746821087916454, 0.18693415027277924, 0.18637208144832432, 0.18580749370654556, 0.185187432562475, 0.18460930210954718, 0.18392989609628138, 0.1832290405373803, 0.18244518657720357, 0.18170797936899627, 0.18095268432521985, 0.18016290651767436, 0.1793481787947762, 0.1785134007626599, 0.17764877478998534, 0.1767130442795011, 0.17580637628908072, 0.17487334572054045, 0.1739380355668783, 0.17295098268905315, 0.1719561665608474, 0.1709205386660622, 0.1698629160417901, 0.16876934568554516, 0.1676699957039402, 0.16655934112719062, 0.16541436357322456, 0.16424835184076855, 0.16305369474929843, 0.16184729653135196, 0.16064992173337023, 0.15939856683140988, 0.15812877991523416, 0.15681557558000855, 0.1555124117246526, 0.15418822246108083, 0.15284673091388343, 0.1514864751640343, 0.15008905193499986, 0.14869486557701994, 0.14725856869786666, 0.14583071848197984, 0.14438405391408035, 0.1429725859917674, 0.14148366961558853, 0.1399762739032562, 0.1384605897580475, 0.13693127587413387, 0.1353980203171606, 0.13384112701479098, 0.1323206297830268, 0.13073346418195117, 0.1291373797686003, 0.12749624493286857, 0.12588671112622238, 0.12430538486639976, 0.12266933862972886, 0.12102532924398345, 0.11937033767320343, 0.11771119818224367, 0.11606009326022895, 0.11438397441830819, 0.11270169543609251, 0.1110307213441641, 0.10933465444440606, 0.10770315873544573, 0.10598977957979185, 0.10427632728217265, 0.10257351445501067, 0.10085785738785917, 0.09914384370519788, 0.09742808358256617, 0.09571246226263048, 0.0940237245052163, 0.09230537697791406, 0.09058446206175934, 0.08887105441955158, 0.08715974456701238, 0.08549154313305589, 0.08378010054773505, 0.08209748242870127, 0.08039376617738957, 0.07869690741619748, 0.07707277039436432, 0.07538147889875915, 0.07368696652532646, 0.07201895634042714, 0.07036061381365312, 0.06879195050822821, 0.06714313159759049, 0.06549794660711042, 0.06387937621868099, 0.06227422966262873, 0.060701309749067935, 0.05912070804981366, 0.05759559523327509, 0.05603940615594592, 0.05450051386328055, 0.052952195521576415, 0.05145114189454698, 0.05004276636852663, 0.048564159800319, 0.04710660630883792, 0.0456731169741862, 0.04425700897617609, 0.042887146836427435, 0.04151033621379525, 0.040156445887763965, 0.038891384309950726, 0.03757531753522979, 0.03628005604822097, 0.03501869357943908, 0.033783696072694304, 0.03258293669375505, 0.03139987166827447, 0.030269045277369875, 0.029137326490926214, 0.028034635857296278, 0.026973629155917854, 0.025927829559982813, 0.024938963444237787, 0.023950571423924972, 0.022994427086062794, 0.02213489474817862, 0.021235484704710813, 0.02034891181980337, 0.019524936835939307, 0.018735628128095788, 0.018032869322802174, 0.017306885465490016, 0.01662852072876209, 0.015977675252855227, 0.015365458946414605, 0.014780890347789111, 0.014247369440372396, 0.013783405704680726, 0.013322618845081102, 0.012902402344001347, 0.012508750896625922, 0.012171822649212944, 0.011945681240889221, 0.011680703240514349, 0.011394856988671178, 0.011227972932415646, 0.0111021224779366, 0.011080530040912693, 0.011030395176230542, 0.01102168049421431, 0.011064395905698673, 0.011153046277585767, 0.011331671895990773, 0.011507133283785706, 0.011712740737097497, 0.011988383140199723, 0.012311773490492863, 0.012681508450121667, 0.013101115411396707, 0.013589337189143715, 0.014103095907314199, 0.014666756208062176, 0.015258488860693638, 0.01592510131331215, 0.01664237798404306, 0.017407349189303156, 0.018222225638003874, 0.01911712600233241, 0.02002905080179693, 0.020990405297496937, 0.022007928576608535, 0.023078005944307284, 0.024210176050133734, 0.02538458386550684, 0.02662347423403357, 0.027903595572595, 0.02923801566409043, 0.03068944693692561, 0.032124596897039434, 0.03353458162904547, 0.03509561091619866, 0.03670906913013136, 0.038422337000990694, 0.04013575026085891, 0.041847223697724305, 0.043679981031173425, 0.04556535860200066, 0.04754451491722597, 0.04953115038136708, 0.05156907763421043, 0.05366825142261837, 0.055823071235351164, 0.05805705033460858, 0.0603201901860111, 0.06263872167386234, 0.06501577799465201, 0.06744932324379431, 0.06989688073685466, 0.07244829951776904, 0.07506593425297052, 0.07772332837967656, 0.0804354805711427, 0.08322280055307696, 0.08604196902710722, 0.08895939519360352, 0.0918848921632068, 0.09486831634194275, 0.09782762824586654, 0.10093565943139983, 0.10411124166100885, 0.10732127508336813, 0.11058447238941775, 0.11389926575958963, 0.11726895633098368, 0.12067595403998814, 0.12415351265502071, 0.12768299042798756, 0.13128319079962472, 0.13491406961932487, 0.1385695714034298, 0.14230942132179528, 0.1460999693778835, 0.14999600528490015, 0.1538807574673885, 0.15777663055192387, 0.16177299207568652, 0.16581918997365058, 0.169933788890877, 0.1740765209413764, 0.1782473905538524, 0.18249259311573743, 0.18678570731012167, 0.19114838036293333, 0.1955336260321095, 0.19996077876745322, 0.20444262608565286, 0.20897120962658636, 0.21354760355029886, 0.21816797457121476, 0.22279291498038573, 0.22750855856169103, 0.23226617806872005, 0.2370451845240495, 0.24188864914028713, 0.24678784660712003, 0.2517092664417728, 0.25667120811079464, 0.2617171454945527, 0.26675330409831505, 0.2717919217640805, 0.27691546945709616, 0.28207676845860014, 0.2872706094059332, 0.2925064597686091, 0.2977468543942418, 0.30305791680158195, 0.3084020110820049, 0.31381485447136837, 0.31921939853798337, 0.3246390323938085, 0.33011298556296687, 0.33561824305129, 0.3411463434456635, 0.3467133057614868, 0.352302924831752, 0.35792790987113876, 0.3635801978318077, 0.3692575998709448, 0.37496280022026823, 0.38066975925126567, 0.38642778918367143, 0.3922083785803727, 0.39800001626551884, 0.4038254526637814, 0.409661687700241, 0.4155281532461253, 0.421413118036539, 0.4273222792850362, 0.43324168755448117, 0.43914361603524976, 0.4451006495340027, 0.45107123827793427, 0.45703919077365984, 0.46303726542789814, 0.46902592586555475, 0.47504795997949323, 0.48107867166093865, 0.48710033272870407, 0.4931490554438151, 0.4992085412190034, 0.5052682651221149, 0.5113331978770735, 0.5173995189111509, 0.523473162013626, 0.5295684555540167, 0.5356446166876967, 0.5417230679044981, 0.5477808613483969, 0.5538636485819829, 0.5599037056958509, 0.5659868450531792, 0.5720639974698662, 0.5781424294652517, 0.5842048437037637, 0.590234742697937, 0.5962846587203334, 0.6023241011891456, 0.6083100864775715, 0.6143318943114185, 0.62039357756959, 0.6263780159498606, 0.632349546803269, 0.6382898783853449, 0.6442346184773873, 0.6501074544252137, 0.6560241185557334, 0.6619187880223771, 0.6678050481373181, 0.6736523103245494, 0.6794593635009717, 0.6852620529989346, 0.6910391365637988, 0.6967600893943711, 0.7024874553515478, 0.7081914632139613, 0.7138581654170922, 0.7194943038956356, 0.7250599185069712, 0.7306375254133028, 0.7361924790901856, 0.741697556384981, 0.7471669647256539, 0.7525466322641492, 0.7579490703893389, 0.7633119776293927, 0.7686315765030859, 0.77390920048002, 0.7791834366921261, 0.7843703009591635, 0.7894934834444897, 0.7945985841787064, 0.7996585912850251, 0.8046444095840075, 0.8096151378737462, 0.8145631476767248, 0.8194310827751647, 0.8242497263009231, 0.8289930263933104, 0.8337133418792539, 0.8383471301887043, 0.8429636248912887, 0.8475544683156736, 0.8520524663335489, 0.8564941145408234, 0.860814279304101, 0.8651487486007867, 0.8694958926732708, 0.8736953709538111, 0.877835745814903, 0.8818845994444598, 0.885907555209061, 0.8898586932284076, 0.893753948742774, 0.8975833191392859, 0.9013241864280811, 0.9050225329351833, 0.9086579913929886, 0.9122167164438775, 0.9157055871202057, 0.9190895148505449, 0.9224412151594292, 0.9257490714285338, 0.9289494095730995, 0.9320770681397469, 0.9351078857190356, 0.9380912143511126, 0.9409703970695668, 0.9438049883211191, 0.9465611669357822, 0.9492324228109871, 0.9518318121795227, 0.954354748915189, 0.9567942854030034, 0.9591538207571154, 0.9614737539949603, 0.9636670550979197, 0.9657454872371162, 0.9677849984665738, 0.9697422789581881, 0.9716530294793411, 0.9734402365002005, 0.9751101311716984, 0.9767387386678594, 0.9782828309824065, 0.9797154961602736, 0.9810931344391688, 0.9823777060738665, 0.9835825054600423, 0.9847000612696247, 0.9857491619509557, 0.9866897718931713, 0.9875785675212028, 0.9883420087679159, 0.9890206767466495, 0.9895686535957765, 0.9900821879112165, 0.990532239775447, 0.9908655254603773, 0.991111746760241, 0.9912252897617397, 0.9913026847384767, 0.9912916411467998, 0.991189114733662, 0.9909972288415495, 0.9907303327245917, 0.9903586607040086, 0.9898865815117952, 0.9893408690367418, 0.9887068165535335, 0.9879799590098199, 0.9871705358759203, 0.9862732312927053, 0.985288334812519, 0.9842161397708317, 0.9830788898358587, 0.9818302282881182, 0.9804948545980633, 0.9790762526716588, 0.9775727538088033, 0.9759642116446019, 0.9742942179745067, 0.9725358320269335, 0.970696204184654, 0.9687721195380282, 0.9667656725841862, 0.9646740648285127, 0.9624871537421115, 0.9602321453647752, 0.9578947646862424, 0.9555085968942081, 0.9530043170666821, 0.9503603944169869, 0.9477072355700533, 0.9449730042310366, 0.9421963035636768, 0.9392980980798163, 0.9363206785558074, 0.9332713312892377, 0.930146993817619, 0.9268903641482977, 0.9236254822283183, 0.9203095786909086, 0.9168905451905274, 0.9133992233558365, 0.9098365630390731, 0.9062035117744279, 0.902497881937711, 0.8987272887041592, 0.8948889771024842, 0.8909760920729162, 0.8870062844246007, 0.8829885178800344, 0.8788871866999448, 0.8747237383856565, 0.8704379617808881, 0.866160787730367, 0.8618224509978251, 0.857421086882053, 0.852959974696324, 0.848460867425791, 0.8438817800502039, 0.8392512640011536, 0.8345637867832855, 0.8298241914051809, 0.825049266475542, 0.8202068025277112, 0.8153368429255146, 0.8103970704464248, 0.805412620637721, 0.8003593128459053, 0.7952914188496936, 0.7901755603392123, 0.785022957294181, 0.7798292787990061, 0.7745722897230422, 0.7693032677584353, 0.7639941264600156, 0.758649677661037, 0.753269527528259, 0.74785199688387, 0.74240519157813, 0.7369644490954312, 0.7314512133371787, 0.7259113962207793, 0.7203116243777957, 0.714726364299883, 0.7091222690189412, 0.7034874686626066, 0.697830826483981, 0.6921709706214971, 0.6864726180555564, 0.6807293211525005, 0.6750023103353904, 0.669259468346991, 0.6635132541721012, 0.6577418053476608, 0.6519720903388445, 0.6461787948735763, 0.6403780960621702, 0.6345430243341494, 0.6287348302739765, 0.6229151417309308, 0.6170987877384022, 0.6112798279446611, 0.6054738731520541, 0.5996524032233075, 0.5937865307200404, 0.5879775671627588, 0.5821712150954744, 0.5764114780899707, 0.5706099901620126, 0.564763516308007, 0.5589899082614052, 0.5532254822326866, 0.5474985182529053, 0.5417539303871299, 0.5360122158739653, 0.5303013034395976, 0.5246076108138235, 0.5189214968589112, 0.5132675962770973, 0.507667127016829, 0.5020514336973475, 0.4964607481538179, 0.49082554379330895, 0.485296822793314, 0.4798360746927015, 0.4743515526827117, 0.4688966669898863, 0.4634207815139599, 0.458034962093855, 0.45270260755522207, 0.4473751767447545, 0.4420818616964156, 0.4368253660450884, 0.4316034584197013, 0.42640652202573676, 0.421262247794237, 0.4161568052374565, 0.41110850943122434, 0.40608173144059573, 0.4011245078980485, 0.39618100387114147, 0.391228683186312, 0.3863847895358822, 0.38158504259335635, 0.37684146068970187, 0.37213170958047503, 0.3674932285165606, 0.36287684162758843, 0.3583111444640527, 0.35380611565064657, 0.3493423263276406, 0.34489697831586674, 0.34054388190953994, 0.3362427403568083, 0.3319864752514973, 0.32779247354083363, 0.323669394572698, 0.31958128775665495, 0.3155492153340949, 0.31153762005833535, 0.3076236373685464, 0.3037572496924239, 0.29995584430698674, 0.2962108176452476, 0.29252284337252465, 0.28889253653785835, 0.28531105232955345, 0.2817988975682803, 0.2783454098074838, 0.2749338356115741, 0.2716012747834982, 0.2683559375064882, 0.2651383049983919, 0.2619821582409254, 0.25887822421021867, 0.2558466079312722, 0.25290291624781613, 0.2499906194896161, 0.247141329689695, 0.2443768464183181, 0.24165035781316874, 0.23892026046741074, 0.23632954248479646, 0.23379817666596783, 0.231367148164204, 0.22894996786669705, 0.22661062098761944, 0.2243155134884846, 0.222082910731846, 0.21988105765037824, 0.21777621640783273, 0.2156995683963673, 0.21371763179159808, 0.21179315763586212, 0.20996067428988224, 0.20814683608612627, 0.2063406219085225, 0.20465161938108975, 0.20301823817962464, 0.20148434630668688, 0.19995652814455295, 0.1984551848509101, 0.19704641714371288, 0.19569258111054577, 0.19440588655891847, 0.193159296760704, 0.1919625273128972, 0.19082502920977903, 0.1897406715037061, 0.18872457578836402, 0.18774283336892955, 0.18682591944083177, 0.1859464205071438, 0.18511841183417688, 0.18427833469963467, 0.18355865975817304, 0.1829110398209912, 0.18227846968131806, 0.1816920578858914, 0.1811370242854216, 0.1806426691830883, 0.18021510112340644, 0.1798036943506632, 0.17943558989549074, 0.1790628800045649, 0.17878466849664007, 0.1785648284345213, 0.178359506113186, 0.17819222276021485, 0.17809824258447587, 0.17800009333683234, 0.17794427894293616, 0.17791965944037932, 0.17793067362842752, 0.17795736873951962, 0.17803861853311925, 0.1781259940292528, 0.17827188566528546, 0.17844569121907056, 0.1786560680940372, 0.1788822409006854, 0.17913766302631157, 0.17941476543333332, 0.17971634036971815, 0.18003359945814937, 0.18038225069598668, 0.18077243983064883, 0.18115993143085887, 0.18156790585883004, 0.18199527245935035, 0.18244095214258868, 0.18287879727053474, 0.18336107971056376, 0.18385709331259745, 0.18434405610752874, 0.1848677779724839, 0.18545159930293212, 0.18598815704000637, 0.18653603164875632, 0.1871081638477178, 0.18767341485980496, 0.188222271241708, 0.18880685558285965, 0.18939633825613295, 0.18998037728893788, 0.19057803981553606, 0.19116317134040411, 0.1917649261303191, 0.19236577505308472, 0.19294774123547992, 0.19354673964545469, 0.19414318658996202, 0.19473311642417096, 0.19531772542712994, 0.19592610441247643, 0.19649421718913312, 0.19701580838629176, 0.19757656921520056, 0.19812735770949533, 0.19868168207522344, 0.1992089255618748, 0.1997674574356829, 0.20026652266507103, 0.20075541245108156, 0.20117660720612163, 0.20164905732973876, 0.20215206100746141, 0.20258512651501875, 0.20300334905339, 0.20334782919849304, 0.20374102670902566, 0.2041527147421784, 0.2044992362842473, 0.2048265775410429, 0.20515285802587513, 0.205437412497672, 0.2057002710376873, 0.20594399149813966, 0.20616598536996106, 0.20635146152294756, 0.20652976892464806, 0.20667733939199304, 0.20680703485291685, 0.20691098674451694, 0.20696372848606695, 0.20701821311708876, 0.20709771090866166, 0.20708874392474025, 0.20705417085606792, 0.20696517539271467, 0.20688119827216375, 0.2067824702350087, 0.2066387503525854, 0.2064664895809354, 0.20628886693224513, 0.20605557957267692, 0.20578631442710882, 0.2054972934330317, 0.20517885302918631, 0.20484011081540104, 0.20446081575423763, 0.20403776315694322, 0.20360068778020862, 0.2031326832489949, 0.2026211366182692, 0.20209266059083253, 0.20149634272054764, 0.20090893339200006, 0.20028789488460957, 0.19963832237776463, 0.19895058159185275, 0.19828700371930094, 0.19752788102942861, 0.19674021705740927, 0.19589874377145444, 0.19505665286447937, 0.19419987026156688, 0.1932952199933612, 0.19236141013132615, 0.19136245146728795, 0.1903751001106158, 0.18937879217098869, 0.18832730750732699, 0.18721724985212315, 0.18611220042312004, 0.18497720985623453, 0.18382847856177342, 0.18263318816046334, 0.1814056747759071, 0.18015630599261712, 0.178879898840613, 0.17754709715589675, 0.17622166129516997, 0.17487664722018176, 0.173496072948397, 0.17208986781721552, 0.1707009327066025, 0.16923984495369962, 0.16769922155170944, 0.16620260877005974, 0.16468168322902746, 0.16318109741006423, 0.1616082641661608, 0.16000796745106094, 0.15839722292544461, 0.15676714195001024, 0.15511819450431796, 0.153450868549202, 0.15174372459620905, 0.15004394737968108, 0.1483261226093368, 0.146617624367355, 0.1448625087128153, 0.1430961343046194, 0.14131232740256328, 0.13951530984252375, 0.1376993216272883, 0.135878227085219, 0.13399970727326896, 0.13216104319601782, 0.13030911096405634, 0.1284605910611592, 0.12658312142754247, 0.12468049948973442, 0.12278683630756776, 0.12088436419531495, 0.11897553483157763, 0.1170578744316245, 0.11513407347871624, 0.1132049359581232, 0.11127124910286318, 0.10936983675737383, 0.1074247959342021, 0.10544502204089724, 0.10350428904521018, 0.10156228852053809, 0.09963546655397672, 0.09769124970094237, 0.09577870102876244, 0.09383509880392459, 0.09189627406990829, 0.089912444841826, 0.08799068037300302, 0.08613793705885986, 0.08421509175175142, 0.08230083678458334, 0.08040016045077138, 0.07850339144023685, 0.07658980903494948, 0.07471643646554646, 0.07285215578566587, 0.07104776267838911, 0.06919723299781032, 0.06731505921132082, 0.06549812818651467, 0.06369295716707918, 0.06192216811749233, 0.060139764272152604, 0.058398999049401414, 0.05664367773479117, 0.05490579041908912, 0.05316366490042953, 0.051464269271465614, 0.04983684625224406, 0.04816526887383762, 0.04651494364953046, 0.04493924984293229, 0.04332499721754983, 0.04174792799546446, 0.04018116637927518, 0.03863941620581849, 0.03714603925137819, 0.03565096762552634, 0.034175733903593686, 0.03273354016450779, 0.031316917325241694, 0.02995414165340292, 0.028585330094981685, 0.027245571932544174, 0.025931500895297787, 0.024644996385243468, 0.023461360664631118, 0.02222071324777164, 0.021029417138244452, 0.019850382558209173, 0.018703675192348716, 0.01761870319987531, 0.01653185873504108, 0.015476597453971397, 0.014455889609168479, 0.013467610647056677, 0.012558606283740044, 0.011628772755935855, 0.010755611135839435, 0.009892077601780246, 0.00906383138346876, 0.008311235973291326, 0.0075473284802747885, 0.006871804521087832, 0.006174185684329649, 0.005515253619987776, 0.00486764318760995, 0.0042874244504410046, 0.0037629800362782807, 0.003250806778600061, 0.002774885829637885, 0.0023522275581056525, 0.0019459962685725138, 0.0016658071495292345, 0.0013214574236717043, 0.0010184414863041256, 0.0007559245936286169, 0.0005331989892331007, 0.0003512360896819466, 0.00020620455888132263, 9.954502539612041e-05, 3.0905729417786395e-05, 0.0, 6.616058027423611e-05, 0.0001025456820282059, 0.00017944932343430916, 0.00030411983047717053, 0.0004593892742258685, 0.0007089602536239789, 0.0009357497364723868, 0.0012042748895716238, 0.0014808741476830054, 0.001834900339411531, 0.0022535215164917284, 0.0026798648739143178, 0.0031452674311645535, 0.0036556397161692992, 0.004197340502098956, 0.004816705395509839, 0.005430127495055865, 0.006083705493423968, 0.006784751464514001, 0.0075161400005489465, 0.00833062545972332, 0.009134464571535373, 0.009979193337030033, 0.010829653330068427, 0.011758580260459462, 0.012729375694939262, 0.01373185896249141, 0.014771429918732922, 0.01587768811974155, 0.01698714003654974, 0.01813798953033677, 0.019323192745259683, 0.020546117950457157, 0.02186286330339616, 0.02315313840482868, 0.024467728511306987, 0.025839264830094372, 0.027248587988914472, 0.028685864131595924, 0.03017070754263354, 0.031724568033420546, 0.03327721484350018, 0.03486735909264457, 0.03651334839545438, 0.03817477108691459, 0.039851553867351945, 0.04158987392265924, 0.04336334536098301, 0.04519683406843699, 0.047036814822563375, 0.048882983753276786, 0.050798301523208474, 0.05274721676018979, 0.05474220754546015, 0.05675654541542441, 0.05882537038229351, 0.060905182409642405, 0.06301991842854308, 0.06515358790175092, 0.06733923311503646, 0.06958156498764015, 0.07183046922650436, 0.07411363575658911, 0.07641665659155371, 0.07876925431529973, 0.08118427537500067, 0.08359827139689954, 0.08604634588727714, 0.08850463555592879, 0.09102281818880492, 0.09362922841691138, 0.09620379952191938, 0.0987457861794981, 0.10139798375253407, 0.10408021373494382, 0.1068192418912935, 0.10955850189466404, 0.11235152607062224, 0.11515149449013434, 0.11798421130462303, 0.1208305528325266, 0.12373023203668584, 0.12668425981239687, 0.12964255709411676, 0.13263284873464357, 0.13561568217160444, 0.13867414473872744, 0.1418055672975178, 0.1449167404944981, 0.14805966286399172, 0.15118860353847957, 0.15439997493282695, 0.157633528078321, 0.16090275781441846, 0.164200385611862, 0.16758613746033857, 0.17093348944792444, 0.17425655949179006, 0.17767494709839685, 0.18112156795735285, 0.18461693342906368, 0.18811782247497613, 0.19164214916338584, 0.19520314860309543, 0.19879331078025886, 0.2023937825441533, 0.20604451274717545, 0.20973104222273067, 0.21343679933947945, 0.2171711235210229, 0.22093400260952276, 0.2247254136964911, 0.22853435184589824, 0.23238410725862763, 0.2362616548740628, 0.2402124822817, 0.24413994277873685, 0.24804919762707575, 0.2520431912220726, 0.25606411133920615, 0.26013240440521873, 0.2642047867971572, 0.26830381439676376, 0.27243266406323935, 0.27658932907677164, 0.2807517270179635, 0.28496638401239466, 0.28917429516306464, 0.2934454942802164, 0.29774107098538855, 0.30207852653683676, 0.30642140360375214, 0.3107620369493243, 0.3151603999364749, 0.3195830823415546, 0.3240177055489715, 0.32849104847172095, 0.33298678580474805, 0.33750838351069934, 0.3420540727680077, 0.3466521217395649, 0.3512425471144955, 0.3558539871679427, 0.36049615626187276, 0.36516320609695213, 0.36984391238331854, 0.3745613477994684, 0.3792818941459413, 0.3840486978257735, 0.38883746055158114, 0.3936340217198873, 0.39846829070499445, 0.4032999519598117, 0.40817896478783916, 0.41307744599703067, 0.4180471940809366, 0.4229782304396439, 0.4278877968525386, 0.43286871799117405, 0.4378685977063795, 0.44289043541728856, 0.4479273910884136, 0.4529437763832397, 0.45802265263521535, 0.46311738617677084, 0.46822170423913734, 0.4733488744205222, 0.47847098379713543, 0.48363124018200193, 0.4888053704349116, 0.49396196415812793, 0.499167557594704, 0.5044115401521935, 0.5096372620607617, 0.5148761679572704, 0.5201498487697959, 0.5254112482786106, 0.530652972337461, 0.535944379687046, 0.5412459002481013, 0.5465602825015684, 0.5518804344275368, 0.5571359306768993, 0.5624829076532373, 0.5678336981582376, 0.5732275089155364, 0.5785809359202179, 0.5839119418368236, 0.589279965180661, 0.5946510506871181, 0.6000122656892374, 0.6053898271033874, 0.6107229515508674, 0.6161078567769235, 0.6214902915640169, 0.6269280726230457, 0.6322976061491995, 0.6376451825253585, 0.6430165776545166, 0.6483849456671563, 0.6537119419276433, 0.6590768078202865, 0.6644076310531786, 0.6697605755803605, 0.6751035727554188, 0.6804095801610063, 0.6857347911321349, 0.6910565624869135, 0.6963545130590343, 0.7016393013635275, 0.7069040461446189, 0.7121614126282938, 0.7173875944452102, 0.7226152111375604, 0.7278249687352621, 0.7330318689210714, 0.7382018553855867, 0.7433166408703369, 0.7484519477130993, 0.7535641821079978, 0.7586181703598831, 0.7636864992081321, 0.7687464102077657, 0.7737573533164088, 0.7787409482015556, 0.7837010589032459, 0.7886268100831351, 0.7935040439218006, 0.7983717818835685, 0.8032067840551832, 0.8080364019026633, 0.8127997428854179, 0.8174681151285853, 0.8221703317148616, 0.826832928998423, 0.8314411248351664, 0.8360241878286537, 0.8405960070735682, 0.845089213624772, 0.8495401219754712, 0.8539100580168083, 0.8582779532113098, 0.8625794415454107, 0.8668537486488591, 0.8710778189818765, 0.8752431190622332, 0.8793655690271807, 0.8834492194319665, 0.8874633092944288, 0.8914237181917729, 0.89531068561045, 0.8991632424673259, 0.9029942183219436, 0.9067261148194052, 0.9104007032308592, 0.9139744892883085, 0.9175363130934665, 0.9210318567658952, 0.9244670101569366, 0.9278372661284171, 0.9311637750737347, 0.9343990605611512, 0.9375227889143498, 0.9406306044725058, 0.9436677495437897, 0.9466539777225633, 0.949545304394686, 0.952336932407652, 0.9550879930252041, 0.9577642596394296, 0.9603901822113139, 0.9629117803191786, 0.9653533420957878, 0.9677239851292252, 0.9699890682382672, 0.9722077759074104, 0.9743459440920298, 0.9764312288848377, 0.9784030628379047, 0.9802785556611854, 0.98209022495027, 0.9838187462393849, 0.9854148911318358, 0.9869813587864227, 0.9884976899932496, 0.9898836771137772, 0.9911835597453936, 0.9923716804154876, 0.9935008054045988, 0.9945501338915648, 0.9954993381406185, 0.9963592040170994, 0.9971120746102689, 0.9977942085108948, 0.9983785514721488, 0.9988781928066378, 0.9992854721837047, 0.9996378138127971, 0.9998550253023227, 0.9999625868627583, 1.0, 0.999944569228665, 0.9998038736406732, 0.9995610122542277, 0.9992516883354378, 0.9988189887270639, 0.9982942077500973, 0.997658137297287, 0.9969504353965838, 0.996099984180865, 0.9952100318868798, 0.9942230703448243, 0.993166122927546, 0.9919828863031684, 0.9906723023157379, 0.9893044906722899, 0.9878406712954378, 0.9862828444885094, 0.9846281001891016, 0.982867736821407, 0.9810254881046123, 0.9790887828206263, 0.9770549832720403, 0.9749312493954224, 0.9726924229238806, 0.9703856888563558, 0.9679856202483247, 0.9655054620257222, 0.9629192402729614, 0.9602847867855494, 0.9575126824729671, 0.9546535607617129, 0.9516716283512332, 0.9486438620822939, 0.9454919465359868, 0.9422932544347772, 0.9390058772672116, 0.9356324119967224, 0.9321705353177088, 0.9286325003788206, 0.9249992797941533, 0.921282961115485, 0.9174656228266269, 0.9135881604627203, 0.9096449152718873, 0.9056036307640483, 0.9014839138423604, 0.8973070854083737, 0.8930307763842078, 0.8886784962414014, 0.8842544134795607, 0.8797575501066469, 0.8751762933905552, 0.8705382709709649, 0.8657998692405438, 0.8610255484647975, 0.8561812403872424, 0.8512636519129497, 0.8462841813769714, 0.841255901563094, 0.8361435726634491, 0.8309690016678561, 0.8257491370952411, 0.8204519364317886, 0.8151050769286087, 0.8096930861509577, 0.8042264565026481, 0.7987032440926748, 0.793131342308729, 0.78750046772696, 0.7818286041785938, 0.7761078286898496, 0.7703176301472111, 0.7645061214571539, 0.7586378442166125, 0.7527377855951554, 0.7467946175276791, 0.7408210410784137, 0.7347954369882383, 0.7286901574440473, 0.7225967944356063, 0.7164668984770683, 0.710343162842112, 0.7041408248470866, 0.6978723211901179, 0.6916191481936645, 0.6853383321684964, 0.6790442392047285, 0.6727120033858195, 0.6663268788540336, 0.6599571795906947, 0.6535674776969133, 0.6471627981371012, 0.6407383277331881, 0.634345049952455, 0.627888069144009, 0.6214228811361444, 0.6149414352396261, 0.6084651101841467, 0.6019606756219582, 0.5954796279144995, 0.5889956713626797, 0.5824917014737302, 0.5760094033847485, 0.5695423122880675, 0.5630622373091763, 0.5565876346701274, 0.5501028914206758, 0.5436462860429407, 0.5372052984081982, 0.5307683204860448, 0.5243444603357087, 0.517929062347151, 0.5115370522070722, 0.5051406439751098, 0.49878810515327715, 0.4924550637695411, 0.4861651952993354, 0.47987352213808426, 0.4736358533533837, 0.467393621363168, 0.46118160490956767, 0.4549351423554681, 0.44879540929032014, 0.44275158209370236, 0.4366654014466809, 0.4306163901735347, 0.42456801417258716, 0.41860136576963475, 0.4127091168280585, 0.40681602171768494, 0.4009660960681996, 0.3951008362822685, 0.3893479649235236, 0.3836725944013233, 0.37800293967368026, 0.3723812611451419, 0.36677578657821847, 0.36125763436661407, 0.35580151931919224, 0.35038211990497853, 0.3450155529939458, 0.33971862776569567, 0.3344591101478175, 0.3292612994895148, 0.32411609597356855, 0.31902994127494316, 0.3139676072478225, 0.30900656346144395, 0.30408615823640783, 0.2992474518513655, 0.2944692087920742, 0.28976664287799214, 0.28511079386260807, 0.2805396942831963, 0.27601081204347955, 0.2715489988460723, 0.26710307710245734, 0.26278356786312207, 0.2585517533731288, 0.2543618712351379, 0.2502406994583931, 0.24619038711718014, 0.24220813935156882, 0.2382963063168013, 0.23445533172123498, 0.2306856219574739, 0.22699538451314705, 0.2233682887509341, 0.21980920095798645, 0.2163283245158494, 0.21292027758410495, 0.20960092651305284, 0.20633710200831978, 0.203172552105608, 0.2000539243960921, 0.1970108411681964, 0.1939881896309074, 0.1911023866121555, 0.18826950945886226, 0.18552976247503794, 0.18286105384855572, 0.18026363363370745, 0.17773768279179886, 0.17528174978925237, 0.17289922239895458, 0.17063213295856378, 0.16838710947045105, 0.1662159556132042, 0.16410563137198925, 0.16208229792810114, 0.1601431571369703, 0.15826112920842408, 0.15645060751295198, 0.15469849514478998, 0.15303089139840342, 0.15138536796024363, 0.14986143249674921, 0.14840296593329289, 0.14705997014482036, 0.14572555758065373, 0.14442426589968113, 0.14322866498220377, 0.1420972092031368, 0.14101686158021676, 0.14001374601613625, 0.13908655854880958, 0.13820478097861447, 0.13738452667549123, 0.1366329046784574, 0.13593249260230744, 0.13526356028103273, 0.13468523111005787, 0.13416325059972387, 0.13372985672970703, 0.1333143315375284, 0.13298775472393412, 0.13267906590356787, 0.13242612438630624, 0.1321711678298636, 0.13203288449721223, 0.1319432662841485, 0.13190151151586754, 0.13190678177201143, 0.13197858165941154, 0.132072676841521, 0.13222477123938872, 0.13240707662807352, 0.13263329440733126, 0.1328457631851496, 0.1331632504433801, 0.1335538598218665, 0.13394017135144673, 0.13436400865689493, 0.1348493053070743, 0.13534157953354628, 0.13582230780826857, 0.1363901193863454, 0.13698806192993646, 0.13764183502155497, 0.13829379837541728, 0.13899013389117085, 0.13969626799234755, 0.14042949971737284, 0.1411289073871149, 0.14191981183170432, 0.1427884532146251, 0.1436106842790843, 0.1444542240724653, 0.14527224699404728, 0.1461600681827242, 0.14708768932165675, 0.1480008441223055, 0.1489282284413747, 0.14989060093940415, 0.15084011811615614, 0.15177647767345687, 0.1527516662946262, 0.15373471199261576, 0.15472139466001575, 0.1557172961216915, 0.15670508682556392, 0.15771037705731475, 0.15871728382761127, 0.15974523276144473, 0.16074993251160996, 0.16175294469764875, 0.16275646578569766, 0.1637575229592218, 0.16477540406681584, 0.16576570529633755, 0.16671071224284936, 0.16769588072651606, 0.16867184793235648, 0.1696268349837482, 0.17058335924833523, 0.17156210987209783, 0.17248902385684398, 0.17340413463693913, 0.17427819584874127, 0.17517020003453512, 0.17603640145244995, 0.1768960767142022, 0.17773738023343105, 0.17855182676529643, 0.17935542693541223, 0.1801696028022333, 0.1809270944046826, 0.18166436952133236, 0.18239310739896114, 0.18308581279629804, 0.18370635501117957, 0.18436052102639455, 0.18498816323194117, 0.185595161984311, 0.18616778291633307, 0.18669892242529965, 0.18721811138813657, 0.18770820336240884, 0.18822371454175965, 0.18864763426789743, 0.1890005950390761, 0.18937512723062053, 0.18971858923016618, 0.190032214507241, 0.1903123429526161, 0.19060126404659186, 0.1908119964629846, 0.19099242743719202, 0.1911105878924901, 0.19123257654184192, 0.19135842978758405, 0.1914079449481122, 0.19142541756131096, 0.1913570773399573, 0.19131582877036565, 0.19124298165887937, 0.19112864431674312, 0.19097847820789057, 0.19080664894110919, 0.19058321967947972, 0.19034218086380397, 0.19004682685337848, 0.1897175278698582, 0.1893447427133132, 0.18894837251871638, 0.18849999296850747, 0.18803631875618754, 0.18753703489430315, 0.1870274580868981, 0.18645450200282024, 0.18583083333493117, 0.18519317410665562, 0.18452122666337117, 0.18381995692363537, 0.18307964318269573, 0.18230770579582697, 0.18150108052029934, 0.18066190935419355, 0.17978735233584064, 0.17888439108020407, 0.17797786808759125, 0.17700816748210957, 0.17600905065089276, 0.17493054406949432, 0.173879536426969, 0.17278757683834736, 0.17167537469025249, 0.1705325042025142, 0.16938950647812137, 0.16818379234367084, 0.1669497368187529, 0.16569114383697714, 0.16440664922992815, 0.16306542366246918, 0.16173466496316402, 0.16041860549426032, 0.15903140162058613, 0.1576220477588038, 0.15612987102722273, 0.1546853493509926, 0.15321043444770108, 0.15171948717551317, 0.15020608310565436, 0.14868063342903595, 0.14712410952715269, 0.14558305532201957, 0.1439849765450814, 0.1423714717956885, 0.14069761333834394, 0.13906061338549058, 0.13741042533478784, 0.13574134166940985, 0.13405800146139246, 0.13235345012781774, 0.13064521788261285, 0.12897190931178262, 0.1272344288615558, 0.12548926305564542, 0.1237180846969808, 0.12196140478973928, 0.12015363292093797, 0.11838881510569944, 0.1166643646315403, 0.11487803490967485, 0.1130883278223075, 0.11126920909895126, 0.10947796956808754, 0.10768060422958352, 0.10588464687600523, 0.10408724167436953, 0.10231119474909349, 0.10051068708791375, 0.09868585118068222, 0.09689398743982663, 0.09510422970721133, 0.09336290060010836, 0.09157418484399635, 0.08979423022683479, 0.08802014528559993, 0.0862542533701662, 0.08453935788244256, 0.08278596982098542, 0.08102585252876346, 0.07929920563755943, 0.0775840446821181, 0.07588866719972845, 0.07419689304605037, 0.07250909233626557, 0.07084572540271818, 0.06919615455868985, 0.06759387484702128, 0.06596947508974105, 0.064360901760011, 0.06277181303563198, 0.061200712999222785, 0.0596542695397957, 0.05811956990433173, 0.05665148999516706, 0.05515043778275166, 0.053672440539577246, 0.052239497303291256, 0.05080505646973515, 0.049393663163556055, 0.04800867907232272, 0.04664833773273945, 0.04534257144711337, 0.04402824353745635, 0.0427345309971645, 0.041474784749533214, 0.04024166288953335, 0.03913565266098675, 0.037943637831145384, 0.0367264847216786, 0.035606965690102715, 0.03451606175322388, 0.03352444370780826, 0.03248228968554775, 0.03144656127410122, 0.030473572008645238, 0.02953154824221397, 0.028672244419085918, 0.02778573525274718, 0.026977179439159768, 0.026152961202466976, 0.025364766408670372, 0.024646574381831914, 0.023924649935087524, 0.02328490844014852, 0.022630166568844624, 0.022013755355335445, 0.02141929739830085, 0.020879541428701784, 0.02040525623401527, 0.01993285392772762, 0.01949735885908295, 0.019143848564619502, 0.01877535985338204, 0.018456382534638206, 0.018163038015476862, 0.017907847474861915, 0.017657432193787275, 0.01748140576235409, 0.01741733531402838, 0.017301909555395775, 0.01722598474763889, 0.01717017571490181, 0.017173989260074785, 0.01724297957281628, 0.017316948755856685, 0.017429095936527864, 0.017585327632110376, 0.017771999923545386, 0.018024474299824456, 0.018282474149356964, 0.018579121258749602, 0.018951595750628315, 0.019319517686392184, 0.01972860242389347, 0.02017491494511446, 0.020659777763310568, 0.021188978699220776, 0.02174875825180202, 0.02236339340852804, 0.022995830607684817, 0.023666111205339877, 0.024420806994583412, 0.025159519220466768, 0.025948463779730462, 0.026763600675364325, 0.027617273448451312, 0.028526071487492095, 0.029452747758102506, 0.030429710431051398, 0.031429688404345776, 0.03246696844709798, 0.03354566608482454, 0.034655256582220725, 0.03580082923557285, 0.03698192163108556, 0.03819811678583133, 0.0394333624516714, 0.04072064609752755, 0.04203954946461335, 0.04339324177502888, 0.04477971076844729, 0.04622859565217798, 0.04767642499215851, 0.049184921443168446, 0.05069703810867831, 0.05224392995779911, 0.05382348275507464, 0.055438530280624, 0.05709616648703589, 0.05877598540393901, 0.060488732908353694, 0.06224965996718739, 0.06402504559149456, 0.06581425646929905, 0.0676568304408117, 0.06953010340094849, 0.07145264996634826, 0.07338424974251974, 0.07534850088161839, 0.07734171519944076, 0.07936541759666041, 0.08143653233931275, 0.08351809980778088, 0.08561142486095985, 0.08775610864562658, 0.08992954443844778, 0.09215819654231483, 0.09438522716039234, 0.0966216026939646, 0.09891027728792946, 0.10122680931516508, 0.1035851537284748, 0.10595516567538908, 0.10839100491658121, 0.1108124258426814, 0.11326368261725918, 0.11572858202447452, 0.11823998906368441, 0.12078051624934169, 0.12334658046376344, 0.12593980826664755, 0.12855527824077403, 0.13120279080726932, 0.13384211996734577, 0.13654646715620006, 0.139274935324467, 0.14206374451343293, 0.14483637486044082, 0.14764968456219088, 0.15047348208018443, 0.15332427314595287, 0.15620491772563908, 0.15910850267056995, 0.16203851379503212, 0.16499472764521933, 0.1679769449270943, 0.17094580156369907, 0.17398446758866407, 0.17703549012091815, 0.18012239160589, 0.18323236249332708, 0.18636563421737082, 0.18952240689626246, 0.19271695960826057, 0.19591944087826293, 0.19914665711739307, 0.2024017334248177, 0.20567798974816093, 0.20900576311494498, 0.2123283456755391, 0.21567720514344318, 0.21905835471808086, 0.2224582333585657, 0.22587151283724272, 0.22932462796413486, 0.23280254706978595, 0.2362785460598134, 0.2398092204180794, 0.24334575770720138, 0.2469249851626456, 0.2505391958019662, 0.2541619882958836, 0.25780842148624405, 0.26149897100506125, 0.26519038989392696, 0.2688943053613526, 0.2726372760394047, 0.27640437577819815, 0.28019561629425327, 0.284011004028119, 0.287797246614696, 0.2916676664939996, 0.29555923247102206, 0.2995037095049189, 0.3034347935299875, 0.30741024009805873, 0.311386725753069, 0.31538834317546843, 0.31936945730958344, 0.32342656052439983, 0.32751044170148563, 0.33161131647276576, 0.3357349224070963, 0.33988606592044773, 0.3440548245589338, 0.34822956912065883, 0.3524469553306815, 0.3566865686165842, 0.3609391029765693, 0.36522462471445855, 0.3695696704120042