0.030611345793803344, 0.030411995595947615, 0.030244304728670422, 0.030108036491159867, 0.029946761774034585, 0.029862413330013916, 0.029793108236214654, 0.02969982452380762, 0.029658633994144486, 0.029615839810537194, 0.029588719385237734, 0.029566186331722557, 0.029556258701565606, 0.02954011219127338, 0.02953195287308979, 0.029522325595725086, 0.029516175473711107, 0.029515563271450114, 0.02951588829860013, 0.0294960212316277, 0.0295065732975224, 0.02951962969075607, 0.029501054123957836, 0.029524720367154565, 0.029537257022922227, 0.029566922484794592, 0.02959907917049764, 0.029638796883557313, 0.029677600705103013, 0.0297234188675476, 0.029772247633881522, 0.029827191939921227, 0.029880117119266938, 0.0299498575780115, 0.030007213860038788, 0.030093988604719492, 0.03018765600988672, 0.03025856742204994, 0.030371521313345765, 0.030465350780163547, 0.030595829963950452, 0.030732939515081492, 0.030890397193734057, 0.031041341557041944, 0.03118011208799072, 0.03135305741121588, 0.031535042016967156, 0.031776248721190246, 0.031971559786722795, 0.03212398301776786, 0.03235285440404214, 0.03259177998564567, 0.03286495396813276, 0.03312227782049961, 0.03335981098862507, 0.033646548615537765, 0.03394432097041692, 0.03428373353674789, 0.03460085985623794, 0.034892895236173414, 0.0352425167925641, 0.03560381909949337, 0.03598364749015467, 0.036368566717301695, 0.03672984401894826, 0.03714575649897281, 0.03757312178670217, 0.03802755461034692, 0.03847737523326972, 0.03894086962907568, 0.03941829476301255, 0.039909890830028466, 0.040392135668805285, 0.04091574172618542, 0.041483053870719586, 0.04203018701802676, 0.042593239228549844, 0.04318524965438719, 0.043778765782333195, 0.044330913912589476, 0.044965646253490275, 0.04561405033082291, 0.046306856439477045, 0.04698025680760432, 0.047638035700695025, 0.048349203296820326, 0.04907561166875023, 0.04983493972193732, 0.0505908361918303, 0.05138134253089656, 0.052169913079154806, 0.05297714640653899, 0.053792277582369395, 0.05463830218099925, 0.05549387167024353, 0.05637749781543064, 0.05727911462299882, 0.0581967762781652, 0.05913527547672063, 0.0601311111111256, 0.06110184808852752, 0.06209362913149085, 0.06308904805208675, 0.06412472512306443, 0.06516288413815914, 0.06624033210511941, 0.06733672769475128, 0.06842854602047915, 0.06956649211420224, 0.07077880463649841, 0.07194648919666034, 0.07313625318758718, 0.07430476050401996, 0.07554369276101508, 0.07681267003064718, 0.07808898955663697, 0.07938563997735407, 0.08067466610884272, 0.082015845346991, 0.08338902560028663, 0.0847669590123207, 0.08616522052365684, 0.08755801860827689, 0.08900053677215261, 0.0904816426412062, 0.09196028240614762, 0.0934596532879635, 0.09495603096489479, 0.09649992051322878, 0.09805675177457042, 0.09964046268668557, 0.10124352152813912, 0.10287254947029623, 0.10451387995452112, 0.10611479288115779, 0.10780381606069543, 0.1095094263132209, 0.11129681715781677, 0.11302861074012696, 0.11477087695514739, 0.11654625650360495, 0.11834167582858741, 0.12014828199224692, 0.12198421380890245, 0.12383686922489107, 0.1257106712391752, 0.127602884504215, 0.12947662907028093, 0.13140975525242993, 0.13341046848460572, 0.13536866542936674, 0.13734564660613097, 0.13934529714235624, 0.14135801468320836, 0.14343815020551343, 0.1454796801740652, 0.14754090195429947, 0.14954544295028038, 0.15165322921774324, 0.1537698873979181, 0.15590455414848564, 0.15805204459592292, 0.16018421731872154, 0.16236064348602716, 0.16456958245794312, 0.16676518290180853, 0.16897297723680535, 0.17119706188434014, 0.17342800983067916, 0.17564475257629197, 0.17790205675081835, 0.18016894823741614, 0.18243233038816206, 0.1847195660371623, 0.18704102658101998, 0.18934147704464446, 0.19162545913017814, 0.19394762769231325, 0.1962769022953608, 0.19860656188126216, 0.2009501006602224, 0.2033125040522238, 0.2056659424990068, 0.20802541766008834, 0.21039479787139254, 0.2127644389356077, 0.215158402707473, 0.21753485224737365, 0.21991623983642664, 0.22227381351648132, 0.22466658243661936, 0.22703695118791994, 0.22943499808929788, 0.231832201767096, 0.23424988832247767, 0.23664184855213774, 0.239028959127374, 0.24141986084267508, 0.24380890002678626, 0.24621282901578256, 0.24859439277154752, 0.2509367766219907, 0.2533173397680266, 0.2556920062250782, 0.25808631274380733, 0.26044477127020005, 0.26278464073349034, 0.26513281055331445, 0.26747331229135024, 0.2697926511464069, 0.2721178220097058, 0.2744178367187616, 0.27672437057173754, 0.2790190730225863, 0.28132315842654576, 0.2835903139069658, 0.28587586280423055, 0.2881149047493032, 0.29034255346227017, 0.2925039650410223, 0.2947130693165249, 0.29691386430124683, 0.2990876349820842, 0.3012442115770383, 0.3033615266478321, 0.30548499437165194, 0.30759289481586527, 0.30967570071372036, 0.3117381406794533, 0.313799204591092, 0.3158171144721426, 0.3178122101041424, 0.3197884320293097, 0.3217425831738197, 0.32366108974351404, 0.32557088051097505, 0.3274603437343824, 0.3293197956106734, 0.33115383237336254, 0.33295758553640015, 0.33473968562959866, 0.3364836814071361, 0.33821201218063623, 0.33991139575201773, 0.3415943541614064, 0.3432329002963104, 0.34482678873320993, 0.3464075925141886, 0.3479568853219107, 0.34947855920633325, 0.3509629998058657, 0.35242566975153006, 0.3538431387446962, 0.3552276978486617, 0.3565658357931996, 0.3578845542593005, 0.359168006362587, 0.3604157817791528, 0.36162747124430766, 0.3627746016857142, 0.3639164491696492, 0.36504964856624467, 0.3661097587373756, 0.3671323298034731, 0.3680780468943599, 0.3690291040186721, 0.369924007817084, 0.37079479389269815, 0.3716234660953116, 0.37247260843786917, 0.3732090309177972, 0.37388725668368733, 0.37454799126070076, 0.37516768846748666, 0.3757675651594899, 0.3763013598777693, 0.3768029037296407, 0.3772533434533639, 0.37766244086815154, 0.3779692639881015, 0.37830191625588233, 0.3786165804185164, 0.37885370229981263, 0.3790465731454401, 0.3791583467486777, 0.37926693237542947, 0.3793050568035761, 0.37932340125954095, 0.37929403942240775, 0.37928638310928153, 0.37915381216675414, 0.37892645943700703, 0.378714167349648, 0.37845536908899824, 0.37818045247530013, 0.37782529600034886, 0.3774300992374077, 0.37698556915474335, 0.37649672535419954, 0.37594619961033865, 0.3753706492299685, 0.37476256116775364, 0.3740945131835769, 0.3733819538084937, 0.37261196429472493, 0.37181214631276605, 0.37101259735102854, 0.3701171146312835, 0.3691795237204064, 0.368147866512088, 0.3671322321241253, 0.3660475599422802, 0.36494477226866784, 0.3637962009103107, 0.36263482942542147, 0.36139236773063965, 0.3600817522402075, 0.35875833948587604, 0.3573917751540814, 0.3560408554985409, 0.35458212412414514, 0.3530655698460215, 0.3515325223073351, 0.3499600708877823, 0.34832689973951936, 0.3466792174287961, 0.34500261465723925, 0.3432746621261349, 0.3415086515301263, 0.33967911833972314, 0.33784160872809044, 0.33597243348454725, 0.33405851258493635, 0.33210818494499356, 0.33014149821004024, 0.32811775090011247, 0.3260605355217253, 0.32397031162521783, 0.3218475597194797, 0.3197273229473428, 0.31753666832733807, 0.3152630096302353, 0.31302139423057307, 0.3107483244442527, 0.3084554036370425, 0.30612047562103717, 0.3037203924538718, 0.30133389125009025, 0.2989182680401354, 0.29646156630301806, 0.29399229547458944, 0.29150255009673126, 0.2889795726826783, 0.2864320021148994, 0.2838995955166942, 0.28130059454751893, 0.2786753351851011, 0.27603811997283473, 0.27338184549334105, 0.27070930221708533, 0.2680165465869478, 0.265265774183766, 0.26254486822748485, 0.25980599388299536, 0.2570955047438224, 0.2543179825101211, 0.25152368657711105, 0.24872237523284557, 0.24590954454969913, 0.2430448352448067, 0.24021614919359904, 0.23739725975328996, 0.23454329450092534, 0.2316807909110317, 0.22878033194244435, 0.22590699454732918, 0.2230582239317872, 0.22016620360001, 0.21729830880869408, 0.2143955841335216, 0.21149195043756494, 0.20857712462954045, 0.20567460515763514, 0.20278731330906366, 0.1998838008805581, 0.19698263929827806, 0.1940174918900214, 0.1911312871246622, 0.18828221735623185, 0.18539343064612077, 0.18250946945813545, 0.1796095437399957, 0.17674035413396524, 0.1738879510067368, 0.17103033351708652, 0.16818119171505955, 0.16536940327784486, 0.16253608604880138, 0.15967635416327167, 0.1568733886345512, 0.15408179710167683, 0.1513175799637925, 0.14854946202239305, 0.1457464939054175, 0.14301495213861262, 0.14029679686169635, 0.137692409035545, 0.13499162543504137, 0.13227182687925845, 0.12962035171235706, 0.12698885954975406, 0.1244038025043228, 0.12181063778204186, 0.11918873495739439, 0.11664861080913752, 0.1141293537346154, 0.11166630431748586, 0.10918677308827669, 0.10672370356165217, 0.10429588090361731, 0.10189352020484502, 0.09948905564850909, 0.09714266060471592, 0.09478277030834523, 0.09249272114607272, 0.09022722308015438, 0.08801528375551916, 0.08579809260022986, 0.0836528207987308, 0.08148816919785887, 0.07935568702185491, 0.07724253544208917, 0.07517639167081061, 0.07314856157984755, 0.07114553655555471, 0.06917523637317467, 0.06724866007217603, 0.06534305957463928, 0.06342822753751033, 0.06159609707142582, 0.059795732280736265, 0.058036246195644965, 0.056299713270999516, 0.05461401716754561, 0.0529427270347468, 0.051306537991757585, 0.04972714744043931, 0.04815875019657723, 0.04664208549571388, 0.04514493365128663, 0.04368509562672808, 0.042236483692387645, 0.04085403008898034, 0.039511278538817196, 0.03819913425120168, 0.036922777239805554, 0.0356649621162289, 0.034462431729109545, 0.03331419833435481, 0.032179079236167744, 0.03108015772785615, 0.030051898907138393, 0.029020765914478983, 0.02795843046240811, 0.027011420096044923, 0.026097684875835123, 0.02526494485913982, 0.024412375468773104, 0.023632970477293805, 0.022848385792168274, 0.022101728741002, 0.02139673222895033, 0.020723669170214426, 0.020069863179142788, 0.019471524389772187, 0.01890774195963394, 0.01832422065430906, 0.017835411871667376, 0.017463529832153588, 0.01702506101342921, 0.01662219071946073, 0.016267191439072758, 0.015931876743711867, 0.015656864611494962, 0.015386384198460945, 0.015150429553461159, 0.014915800156257313, 0.014750596149882613, 0.01467409930746102, 0.014561947820937251, 0.01448266827777535, 0.014431071865195001, 0.014415528765413773, 0.014473352343314299, 0.014512048900970803, 0.01458203762686554, 0.014701791454261598, 0.014829106107499794, 0.015029312211353648, 0.015209667594708563, 0.01542037440158285, 0.01568403470307386, 0.015949099497586376, 0.016311772342865533, 0.016624067503386238, 0.016966692556905583, 0.01733602392563007, 0.01773532766411851, 0.018184598825284424, 0.018632267101189023, 0.0191054406670395, 0.019628945469899864, 0.02014670972275189, 0.020716540862488832, 0.02127773244894756, 0.021862541407432944, 0.022579996886667574, 0.023194994189578086, 0.02383685387941794, 0.024503885705321946, 0.025194579048794477, 0.025972351222254615, 0.026698271571588387, 0.027499665922559438, 0.028264868659001876, 0.02905383118218186, 0.02984553216167705, 0.030679879799171972, 0.03155423920338082, 0.03242175620585625, 0.03330712346078011, 0.03428714624566858, 0.03519574619954734, 0.03612627527126697, 0.037072883655172945, 0.03803701491747242, 0.03903278757409876, 0.0400271922980577, 0.041043809673900034, 0.042068072319048355, 0.04310694214390682, 0.04423100042383455, 0.04528817086263039, 0.04634276640887132, 0.04743508845551103, 0.048541271123804054, 0.049662854277894485, 0.05079470937767923, 0.05199073755929037, 0.053140340205136014, 0.05430442898181189, 0.05547148287137242, 0.05666382621389051, 0.05786599157498839, 0.05908219003461456, 0.0603095464002258, 0.06157371386299606, 0.06281939223626148, 0.06409647576077032, 0.06536330047489056, 0.06664255282808786, 0.06801155678547494, 0.06930471144461452, 0.07060069859181071, 0.07192621637905305, 0.0732652245494772, 0.07458051598791325, 0.07594971674513591, 0.07738090096307283, 0.07876391801142081, 0.08016009702063151, 0.08147411013562664, 0.08290769005799603, 0.08438284948200488, 0.0858267626394385, 0.0872808639331629, 0.08874542414831095, 0.0902207148646213, 0.0916767837192476, 0.09317817517205641, 0.09470237463033042, 0.09622235622885396, 0.09775392875480662, 0.09931040708646882, 0.10086459888627636, 0.10239978373073341, 0.10398505847446488, 0.10558237079593023, 0.10718575590712603, 0.10880947424188166, 0.11052405506076993, 0.11216473202556193, 0.1138238958947197, 0.11546252501351674, 0.11716315496471527, 0.11888194878447861, 0.12061463987336993, 0.12236411545751241, 0.12409615953715504, 0.1258845630828248, 0.12774927662721272, 0.12956239633888017, 0.1313960221264724, 0.13322219635908517, 0.13510074989899146, 0.13699652371222334, 0.13891455925266424, 0.14085275883267728, 0.142798646300456, 0.14478024609375872, 0.1467546561459792, 0.14878214526351516, 0.1508301017619589, 0.15296624606544795, 0.15504902166367793, 0.15712807383431043, 0.15926783257364188, 0.161432755013962, 0.16361900302681795, 0.16583624128571098, 0.16801292339629242, 0.17029188698643646, 0.17259450833584916, 0.1750125179241435, 0.17735408965290314, 0.17972737613024783, 0.18213251704810993, 0.18456969157307873, 0.18695923450534285, 0.18947125130526474, 0.19202666593424103, 0.1945942837072647, 0.19719285880172954, 0.1998015104092892, 0.20246682118286635, 0.20518117574537267, 0.20790863640423018, 0.21067036814687884, 0.21339784346370827, 0.2162385019664527, 0.2191500190700987, 0.2220508075969735, 0.22498778126912744, 0.22790537455157842, 0.23092347955019973, 0.2339826933016657, 0.237070164218695, 0.24019438861099152, 0.24334096291884988, 0.2465426683308402, 0.2498534656992841, 0.2531225158382973, 0.2564346631371124, 0.259781235942744, 0.26318058010026474, 0.266600893215452, 0.27008816540085956, 0.2736169514424126, 0.2771227442673372, 0.280743506602501, 0.28444820276651506, 0.2881411453040828, 0.2918765835808902, 0.2956180102094327, 0.29944363715926936, 0.3033166834832663, 0.3072237923858896, 0.31117297945049466, 0.31514074620038335, 0.31917779641357086, 0.3232993884082583, 0.3274140219035039, 0.3315730132482992, 0.33577837424180645, 0.3400253585033142, 0.34429260638433673, 0.3486304249246552, 0.35301053083302647, 0.3574091580837856, 0.361876753840344, 0.3663721974823003, 0.37092311012566853, 0.3755141965284581, 0.3801541694835494, 0.3848246831399032, 0.3894948917850537, 0.394251860264174, 0.39904688016766654, 0.403845499642501, 0.4087211847593548, 0.4136805247317034, 0.4186226753030664, 0.423603860760699, 0.42858264926163514, 0.4336458196186825, 0.43874654473954133, 0.44388005497543515, 0.4490486547332279, 0.45422826544854733, 0.4594689977052992, 0.46470562483712075, 0.47001588964153884, 0.47535601954490375, 0.4806978079471658, 0.4861006978208433, 0.49156355745689384, 0.4970173435883851, 0.5025000681818074, 0.508024047436765, 0.5135610464657268, 0.5190436059962203, 0.5246452882016014, 0.5302681608126784, 0.5359033039548579, 0.5415686894689878, 0.5472924767037948, 0.5529915230488578, 0.5587111854743335, 0.5644224066223587, 0.570183840035891, 0.5759526013912616, 0.5817461905701132, 0.5875534767617983, 0.5933800369988141, 0.5992111445668717, 0.605034024258464, 0.6108888916538096, 0.6167516329057856, 0.6225694218000009, 0.6284513762861559, 0.6343329588583293, 0.6402180305706294, 0.6461032199556394, 0.6520221882451717, 0.6579005266413286, 0.6637024981176194, 0.6695874178465361, 0.6754645459327406, 0.6813352463956209, 0.6871940413044955, 0.6930230831266335, 0.6988626263285465, 0.7046885656381574, 0.7105171421835563, 0.7163105278450502, 0.7220512795574112, 0.7278160788273967, 0.7335601281758567, 0.7392736614071648, 0.744973848467641, 0.7506146855295971, 0.7562683960548021, 0.7618928496933295, 0.7675301743907047, 0.7730874289742972, 0.7786101646954651, 0.7841059657165901, 0.7895681201173151, 0.7949583490944393, 0.8003531104004323, 0.8057397941706839, 0.8110482376755983, 0.8163153970782384, 0.8214878253102382, 0.8266740718506598, 0.8318306692098753, 0.8369150980053986, 0.8419490887606805, 0.8468729090719852, 0.8518090545802023, 0.8567065566774257, 0.8615230919795447, 0.8662805680697738, 0.8709690678650153, 0.8756056444283384, 0.8802132944180396, 0.8847172817292691, 0.8891571481908441, 0.8934837944349695, 0.8977966344420076, 0.9020508916492337, 0.9062178607664017, 0.9103116734488597, 0.9143007931177873, 0.9182481754508302, 0.9221275563370299, 0.9259149107235268, 0.9296024769287946, 0.9332303682735839, 0.936774398745251, 0.9402874873614696, 0.9436537930319641, 0.9468842439075815, 0.9500874928140882, 0.953200789904907, 0.9562101690403716, 0.9591421568724763, 0.9619609850047642, 0.9647070562535088, 0.9673564705699215, 0.969895503683342, 0.9723509096255286, 0.9747475842504179, 0.9769975918695898, 0.9791487118403118, 0.9811718077600785, 0.9831255228262091, 0.9849821410970733, 0.986727147110015, 0.9883674638445956, 0.9899044720824599, 0.9913328222978841, 0.9926931907076401, 0.993902211830589, 0.9950051365021925, 0.9960117717037683, 0.9968982445600867, 0.9976138587762536, 0.9982908707956285, 0.9988544374353454, 0.9993431857659423, 0.9996742512320033, 0.999893364804107, 1.0, 0.9999936815999544, 0.9998567131619739, 0.9996254448622247, 0.9992445814694682, 0.9987874330398325, 0.9982130369580053, 0.9975194275086338, 0.9967113845138968, 0.9957908616958672, 0.9947488874206972, 0.9935907826775169, 0.9923448019155175, 0.9909514692524026, 0.9894096542747088, 0.9877928270927376, 0.9860602067371461, 0.9842467305318848, 0.9822793546320272, 0.9801432213851423, 0.9779578579250309, 0.9756571068387867, 0.9732395356319474, 0.970710457666798, 0.968070201622362, 0.9653149208346391, 0.9624479176843702, 0.9595303823497847, 0.9564345271775936, 0.9531959068311949, 0.9498928686307903, 0.946482395659957, 0.9429479732077225, 0.9393271205462482, 0.9356239906544513, 0.9317890892186478, 0.9278515231249617, 0.9238207811598698, 0.9196793989343198, 0.9154126249365704, 0.9110764658967228, 0.9066412533829228, 0.9021362785683119, 0.8975031079022697, 0.8927610875833897, 0.8879434196108875, 0.883033350688205, 0.8779544485400996, 0.8728733020163557, 0.8677403723564461, 0.8624704411008995, 0.85711397511045, 0.8516811988676763, 0.8461553447679876, 0.8405115274919565, 0.8348293350976167, 0.8290669303283226, 0.8232931192480328, 0.8173674511670997, 0.8113234260515552, 0.8052633463452303, 0.799132410981164, 0.7929324245457345, 0.7866651976172933, 0.7803325479637871, 0.7739363015650093, 0.7674782934720952, 0.7609474150107935, 0.7543730660265552, 0.7477698599811833, 0.7410800976587717, 0.7343389481669115, 0.7275200994361433, 0.7206850144879214, 0.7137850422867998, 0.7068589698987932, 0.6998884293659126, 0.6928928839737547, 0.6858377799104904, 0.6787435381710064, 0.6716167515497268, 0.6644568734125789, 0.6572724086941195, 0.6500516154389343, 0.6428085033262251, 0.6355358737305554, 0.6282408243373696, 0.6208260096614927, 0.6135045814861422, 0.6062172163638123, 0.5988473447866427, 0.591464044855668, 0.5840414148440118, 0.5766412790501221, 0.5692304143042148, 0.5618157448082508, 0.554397006554756, 0.5469958954382231, 0.5395733204397357, 0.5321501308025264, 0.5247375079920303, 0.5173323339933648, 0.5099430967942313, 0.5025580196062751, 0.49518674196400136, 0.48783117737946924, 0.48049323119926923, 0.47319854817296, 0.46589851713853664, 0.4585971923903039, 0.451351339897907, 0.44413201211752545, 0.43694327460846444, 0.429782423984928, 0.42264308667591793, 0.4155500475118131, 0.4084923542478005, 0.40148484164478854, 0.3945018164756004, 0.38755610141244434, 0.38065856725642017, 0.3738057814104976, 0.3669778460948974, 0.3602223383433774, 0.3535110561277177, 0.3468549772417003, 0.340250746122328, 0.3337346464649205, 0.32723491964196516, 0.32075088466126267, 0.3143756842320136, 0.3080595759069651, 0.30182580354719224, 0.29563005812607807, 0.28948646187614785, 0.2834238797021047, 0.27742828519576457, 0.271464343922323, 0.26561142407344807, 0.25987706208499056, 0.2541572070598364, 0.24851203956946422, 0.2429080058498819, 0.23741952794249196, 0.23200670556618577, 0.22667074239311907, 0.22141278400807954, 0.21621664871566357, 0.2111200983956335, 0.20609073841117811, 0.20115718469748484, 0.19630512355638652, 0.19160036751944717, 0.1869061643976226, 0.18227194144363343, 0.1777576939766217, 0.1733305488925084, 0.16898025161148453, 0.16473026285197004, 0.16058987986477588, 0.15651372121957668, 0.1525277993033342, 0.14858488272241197, 0.1447862120421953, 0.14107152258019962, 0.1374505733144905, 0.13395114630316884, 0.13050484944697502, 0.12715037780101143, 0.12387916792464883, 0.12070962370489023, 0.11760347601680844, 0.11462045138050382, 0.11172736549031588, 0.10896326932746632, 0.10624565161813904, 0.10359461893002503, 0.1010649460182935, 0.0986256619889768, 0.09629389120634957, 0.09403271276714599, 0.09185799258755409, 0.08977848828327901, 0.08778864383414585, 0.08587506413930728, 0.08406482125802349, 0.08233561651639335, 0.08070079184420212, 0.07915221400910143, 0.07767862413596058, 0.07630246447404274, 0.07504279633663587, 0.0738302438224734, 0.07270253592625169, 0.07164800119356088, 0.07068870147147215, 0.06981528118679778, 0.06901772051604943, 0.06830025909416751, 0.06764469671873542, 0.0670868078486657, 0.06662030575274829, 0.06621219614792524, 0.06587945178418306, 0.06561237906013286, 0.06542826208323954, 0.06535896705874225, 0.06531162718702593, 0.0653362236517782, 0.06537085256752997, 0.06554261822634981, 0.06580667667307837, 0.06610241925681186, 0.06646205482968212, 0.06691023540533521, 0.06739059930444646, 0.06788068012620786, 0.06848914322643607, 0.06915321172350404, 0.06989339510448986, 0.07066266016055094, 0.07146162178615084, 0.07233939870210386, 0.07326651299471747, 0.07430003815167345, 0.07531476925941435, 0.07631790209934913, 0.07743619310752485, 0.07859640165266661, 0.07979944419749438, 0.08103945154149034, 0.0823586851347443, 0.08366856234292348, 0.08501620929627861, 0.08640205208381696, 0.08781978898234304, 0.08925516989333991, 0.09073864090446912, 0.09225066069139534, 0.09376379170406061, 0.09533159446025144, 0.09694565349231438, 0.09855415373339857, 0.10018383937224344, 0.10182884250840703, 0.10349680120982112, 0.10518323167634219, 0.10688204843954001, 0.10859431319490838, 0.11028397871860696, 0.11202300002920522, 0.11378199175796368, 0.11553220466707578, 0.11728772672633131, 0.11904720168482781, 0.12080926802619024, 0.12261142164983682, 0.12436966287569041, 0.1261285821672228, 0.1278821880365265, 0.12963803184152997, 0.13136567044226335, 0.13311408743240716, 0.1348537172730645, 0.13657034708484694, 0.13829026923215587, 0.14000555708024803, 0.14169671718346816, 0.1433728293918537, 0.14503485127421406, 0.14667700195008446, 0.1483373584999638, 0.14993669651660657, 0.15151725404483438, 0.15304952467318866, 0.15459180363883668, 0.1560750262824619, 0.15757158824154427, 0.1590396032720905, 0.16051935088108782, 0.1619228524701841, 0.16325683313931888, 0.16460741864222492, 0.1659250397889298, 0.16722627318751326, 0.1684736931073542, 0.16967622847759903, 0.17085599512720043, 0.17199941120013834, 0.17316837775734367, 0.1742290670579649, 0.17522245337560446, 0.1762162312821375, 0.1771710178865807, 0.1780558366968161, 0.17893424564744975, 0.17978709795141148, 0.18057727155966466, 0.1813248011012651, 0.18201405389362757, 0.18267667267965898, 0.18331806912532753, 0.18388742884988157, 0.18441253274546868, 0.18487778967512208, 0.18531489626193015, 0.18571853461757498, 0.18606091934038102, 0.18635715009334644, 0.1865982912399257, 0.1868024421777575, 0.1869591624314783, 0.18706832786381522, 0.1871298398224598, 0.18712635400614386, 0.18709454953478155, 0.1870334109782719, 0.18690176474145423, 0.1867227406413682, 0.18644021372105032, 0.18617358265839073, 0.18591266895951672, 0.18553866240167952, 0.18511846645062896, 0.18465645117572915, 0.18414352681522644, 0.18358924740677138, 0.182984563874351, 0.1823347550337732, 0.181583865736745, 0.18085147443064445, 0.18008225376112755, 0.17925399565595967, 0.17838019115782028, 0.17745066859443387, 0.17648900292599648, 0.17551759287421295, 0.17446369619923383, 0.1733688654252731, 0.17219682123640825, 0.17102606201738613, 0.16986548637282894, 0.16860572705426383, 0.167308861546272, 0.16594288930692203, 0.16457710430086592, 0.16315209958369253, 0.16171456392558034, 0.16023975540887322, 0.15875671017533127, 0.15720670543683665, 0.15563899044225762, 0.15402214346733062, 0.15237477174469152, 0.15069103418754357, 0.14898537413808105, 0.14724867743680964, 0.14548632146153298, 0.14369656180558663, 0.14191910562730864, 0.14007218273696082, 0.1381659267377513, 0.13627896434814663, 0.13436853001236038, 0.13244207976007813, 0.13048682763520464, 0.1285546041266564, 0.12655454068632485, 0.12453865773137192, 0.12246871845405367, 0.12042803371773332, 0.11839512110811967, 0.11632056139408088, 0.11427885440402502, 0.11217448124951605, 0.1100619663910223, 0.10792460486179292, 0.10579975218422963, 0.10370221197580033, 0.10155940574177347, 0.09941308347182366, 0.09729843509002462, 0.09514271009011964, 0.09301125593236365, 0.09085408978451134, 0.08869988285890582, 0.08652750641891489, 0.08438340827494928, 0.08230095876715726, 0.08015705189353302, 0.07802149766159876, 0.07592063987770845, 0.07379990692646198, 0.07172722600734413, 0.06962499693604617, 0.06753714468829171, 0.06546828530502465, 0.06340963275867749, 0.061399157819481444, 0.05936851944345826, 0.05735660302091466, 0.05543720062613493, 0.053454697698101565, 0.05149860142875605, 0.04956433839702661, 0.047654605590081694, 0.04579338883199226, 0.04393052648289379, 0.042159292877076794, 0.04034227153788724, 0.03855644872142527, 0.03678450317138406, 0.03506324044878367, 0.03347173850544615, 0.031799250462365085, 0.030163713783613554, 0.0285519317946362, 0.026991353026227898, 0.025503393305825323, 0.0240102580692811, 0.022555682203749185, 0.02117647731918236, 0.019794807350799977, 0.018486748824126698, 0.01718350735378653, 0.01592354286164418, 0.014780245656925116, 0.013597619392234342, 0.012441058041770484, 0.011356135333618267, 0.010317124175726694, 0.009343551441820776, 0.008394278855614161, 0.007514121537480395, 0.006657322530216313, 0.005849630993084304, 0.005151598598900803, 0.004434853923735603, 0.0037905409501912016, 0.003177133319095126, 0.002617498690483628, 0.0021244103962691874, 0.001670236189764087, 0.0012227901479417128, 0.0008830248779799923, 0.0005947980598746918, 0.0004190241555747708, 0.0002276273162282841, 0.00010335095349433457, 2.3212642383504054e-05, 0.0, 2.0737458814298127e-05, 0.00011299296624322561, 0.00027230333981092896, 0.00047590941045981105, 0.0007367820584513178, 0.0010766358037902536, 0.0014497014963718473, 0.0018902929512587005, 0.0023800262800987904, 0.0029291160730695095, 0.0035591025340717007, 0.004224050967836593, 0.004947323408096699, 0.005733340602953208, 0.006579410071989204, 0.007453051040851108, 0.008423046123994528, 0.009476940928791252, 0.010559850312904833, 0.011702589340432208, 0.012864083303163487, 0.01413150221324019, 0.015501618565975131, 0.016878294876063616, 0.018315368060684768, 0.0198256067606458, 0.021381285631125103, 0.022978114308013897, 0.024657127760603716, 0.02639507808500525, 0.02817458854200286, 0.030032267142747548, 0.031966988297172386, 0.033937428935299066, 0.035966529929741045, 0.03804327513364255, 0.04019038896325336, 0.04241213964079394, 0.0446716411214968, 0.046989138477557264, 0.049327593365404966, 0.051764711672567694, 0.05425243455631955, 0.056799896739947085, 0.0594019054190781, 0.06205837166527574, 0.06476916807617986, 0.06755572092287891, 0.07037192678008039, 0.07324309053350431, 0.07614719631858337, 0.07912972132891495, 0.08218197164768329, 0.08526695555025537, 0.08840480633383682, 0.09158643489402116, 0.09482974646030264, 0.09814781458793329, 0.10148974339296878, 0.10488320642131635, 0.10832543215056963, 0.11182041147136143, 0.11527648699670157, 0.11888131900406149, 0.12252967624375304, 0.12625410196069686, 0.1299858092931445, 0.13377820458771497, 0.13759882084374417, 0.1414651673169762, 0.14534866691906548, 0.14930847869036012, 0.15335406104653607, 0.15739328534260263, 0.1614768644417775, 0.16553066844604056, 0.16971007165922955, 0.1739232529371065, 0.1781792953753032, 0.18247293143021395, 0.18684499683679087, 0.19120802741426707, 0.19556490466316448, 0.200011371404947, 0.20449315039738544, 0.20902289685264613, 0.21357272345873743, 0.21811007001837374, 0.22273541174451628, 0.22739204037036018, 0.23215318252863767, 0.23686251285468304, 0.24158926958353938, 0.24636924565546994, 0.251181112387867, 0.25599606516998646, 0.2608730529843303, 0.2658040690674323, 0.2707335322084583, 0.27569156586390786, 0.28060618558508105, 0.28562815601883906, 0.29068977474972163, 0.29575417233446494, 0.3008415660557303, 0.3059666649389826, 0.31109689572430976, 0.3162151187128978, 0.32139416938013776, 0.32659257258289565, 0.33182076610167877, 0.33705539799824286, 0.3423174344187019, 0.34758795804084125, 0.35287660867035386, 0.3581503448772862, 0.3634773654625993, 0.3687755289722854, 0.37413624025087844, 0.3795079921096272, 0.3849359909289789, 0.390323628297535, 0.39571129929228666, 0.401125862142107, 0.40654267096113683, 0.4119794967886915, 0.4174255192012713, 0.42284348381488607, 0.42831086048126826, 0.4337879734594771, 0.43926532836986815, 0.44474766806449867, 0.4502259139448569, 0.4557179504719383, 0.46119146591220317, 0.46669189909107056, 0.47219321712171786, 0.47768858479284965, 0.4831913684405769, 0.48868266599700116, 0.4941849975281204, 0.4996851242211323, 0.5051739884204992, 0.5106694894896444, 0.5161565966013951, 0.5216440272274913, 0.5271261738052875, 0.5325723117508774, 0.5380461789331258, 0.5435071522349236, 0.5489640675757054, 0.5544114204213672, 0.5598293698522018, 0.5652587763236903, 0.5706848007004932, 0.5760887026168701, 0.5814802660498244, 0.5868136109434522, 0.5921845695371803, 0.5975540382833376, 0.6028896198458715, 0.6082088575865098, 0.6135155610701473, 0.6188000032862911, 0.6240537587839214, 0.6293037310115062, 0.6345339398576366, 0.6396747245692174, 0.6448723866861575, 0.6500402823529965, 0.6551874979897416, 0.6603087445397772, 0.6653951595226772, 0.6704648048593456, 0.6755092597566024, 0.6805235764241282, 0.6855098901863748, 0.6904288517224476, 0.6953625609918999, 0.7002666478942684, 0.7051362247427069, 0.7099734784741015, 0.7147844410293221, 0.7195548432138908, 0.7242551000269014, 0.7289626201101526, 0.7336333382993, 0.7382690204229333, 0.7428646250005578, 0.7474027733424845, 0.7519242190319173, 0.7564053841889157, 0.7608522691366942, 0.7652505780389909, 0.7696138821490385, 0.7739277566138291, 0.7781991835756911, 0.7824295721490133, 0.7866135708175445, 0.7907119439434879, 0.794811123319421, 0.7988618052572292, 0.8028311385786494, 0.8067874766671652, 0.8106725491213953, 0.8145273572802157, 0.8183285482898832, 0.8220974392524564, 0.8257877844992128, 0.8294311954543201, 0.8330132795418215, 0.8365410526987862, 0.8400289128624594, 0.8434440007122556, 0.8467365304742541, 0.8500479595217558, 0.8532982982758454, 0.8565131584921684, 0.8596371011053977, 0.8627284313101556, 0.8657268219408908, 0.8686648056772042, 0.8714961553977852, 0.8743164104921411, 0.8770538404480683, 0.8797447118697301, 0.8823681159836582, 0.8849582289090225, 0.8874411969229633, 0.8898185774946759, 0.8921722711307456, 0.8944556023937401, 0.8966919244180164, 0.8988303185964032, 0.9009070632558424, 0.9029031463994477, 0.9048281412869522, 0.9066338541299663, 0.9084206044673129, 0.9101574739741582, 0.9117891158563844, 0.9133458811045831, 0.9148380467562418, 0.9162421474453583, 0.9175682854084959, 0.918820469063036, 0.919995583203404, 0.9210844674237816, 0.9221049778906436, 0.9230313008234292, 0.923895169759222, 0.924678320607623, 0.9253675386174699, 0.9259901030354538, 0.9265196334679691, 0.9269789203444105, 0.9273550237849502, 0.9276715958093876, 0.9278780256055301, 0.9280260201952126, 0.9280647565080428, 0.9280220114460335, 0.9278498097122432, 0.9276487117776389, 0.927344882662416, 0.9269750720516359, 0.9265188682451386, 0.9260044809855067, 0.9253723519538428, 0.9246708875725811, 0.9238678177389158, 0.9229808974124235, 0.9219991130812487, 0.9209452342391804, 0.9197782787879956, 0.9185578952490461, 0.9172508831106762, 0.9159006563853735, 0.914415628465428, 0.9128470859545104, 0.91119490685331, 0.9094590140123806, 0.9076264197281905, 0.9057246756583147, 0.9037039672374759, 0.9016379353210764, 0.8994859427690635, 0.8972269128298, 0.8949072544352299, 0.8925062478680651, 0.8900153728082262, 0.8874403727038133, 0.8848422806348927, 0.8820931274988076, 0.8792282631487321, 0.8763258076781265, 0.8733424954285424, 0.8702766547154448, 0.8671333801400114, 0.8639041630709892, 0.8606033324016057, 0.8572238019783701, 0.8537640551064367, 0.8502293361764025, 0.8466026459026609, 0.8429168169207842, 0.8391546873906296, 0.8352890357146214, 0.8313803856127608, 0.8274179815139929, 0.8233569894447422, 0.8192239912278935, 0.8150220055529634, 0.810747308872551, 0.8063731056769963, 0.8019645362507526, 0.7974867408337082, 0.7929754023441071, 0.7883581936547274, 0.7836706011328246, 0.7789272261110892, 0.7741212679659583, 0.7692342358448448, 0.7643084078384369, 0.7592980409084443, 0.7542547935316029, 0.7491560614264507, 0.7439940184677987, 0.7387751072122123, 0.7335092497103457, 0.7281793614060829, 0.722794768918051, 0.7173612640081597, 0.7118775022472905, 0.7063404003622256, 0.7007603817261623, 0.6951400669120223, 0.689466977058315, 0.6837500700331048, 0.6779992343549458, 0.6721973731759464, 0.6663581374129637, 0.6604781601974219, 0.654561240517515, 0.6485999923332884, 0.6426140506010213, 0.6365599532423308, 0.6305125347104221, 0.6244323379630043, 0.6183512666659964, 0.6122067035452262, 0.6060317051957336, 0.5998368228719527, 0.5936183335308715, 0.5873625551374139, 0.5811030611275659, 0.5748126306895177, 0.5685157910538872, 0.5622013415419324, 0.5558968327489076, 0.5495488013513503, 0.5431463161139338, 0.53678258105416, 0.5304079365547844, 0.5240457317984342, 0.5176517864470613, 0.5112749182561069, 0.5048707173866203, 0.498466209766118, 0.49202601331969437, 0.48562950988859216, 0.4792173814867042, 0.4728280190015272, 0.46644263856657525, 0.4600781094879448, 0.45370401507303515, 0.44732911585816365, 0.4409778957994409, 0.4346391048211354, 0.4283294430836833, 0.4220183385471099, 0.4157252033151361, 0.4094514354025071, 0.40319842775348425, 0.39693734295704036, 0.3907338333567549, 0.3845923914411865, 0.37843199345335526, 0.3723001669814247, 0.3661851837630973, 0.36011581936833437, 0.35409957925444346, 0.3480918962290354, 0.34211962892927833, 0.3361774424683974, 0.33028025939525424, 0.3244107820009019, 0.31859317573625057, 0.3128158816572225, 0.3070866628785936, 0.3013930146401072, 0.29574168578639276, 0.29013844445136033, 0.2845819018954782, 0.2790818615012091, 0.27362111091342417, 0.2681591815861335, 0.2628072979948347, 0.2575052221779473, 0.2522371224183289, 0.24704109966575508, 0.24189372511605867, 0.23680557469463798, 0.23177286473141562, 0.2268206330513102, 0.2218996032942575, 0.21703254137240213, 0.21223412867512445, 0.2074975829771289, 0.2028432322685515, 0.19823062037658384, 0.1936727555891031, 0.18919322685295054, 0.18477989002163367, 0.18042480234949365, 0.17614699327346076, 0.17195200281104367, 0.1678083782840233, 0.16373463901071822, 0.1597053705898974, 0.15577613687367328, 0.1519340279987373, 0.14814296145681582, 0.14442395917116782, 0.14075152852237252, 0.13718114777087365, 0.13372356281126527, 0.13029209409088993, 0.12693574323184445, 0.12362871809113454, 0.12042621670210069, 0.11731281517503672, 0.11425667627663419, 0.11127593195950979, 0.10835341337655874, 0.10552592848487485, 0.10278390760655293, 0.10010457355577523, 0.09750082841222088, 0.09495973004579517, 0.09250880761211991, 0.09019314992991614, 0.08788424964613738, 0.08565358718849132, 0.08345313751818666, 0.08138339214865893, 0.07942439800891801, 0.07749801963170137, 0.07564752935367475, 0.07380769889444286, 0.07211579196720398, 0.07050770874655132, 0.06895595851144751, 0.06747584223125715, 0.06612114440012949, 0.0647768569672246, 0.06345254745720164, 0.062262220930702064, 0.061141297213274784, 0.060141277338817654, 0.05915162019181554, 0.05817274044649942, 0.05733231070266583, 0.05655798563747922, 0.05587098659026697, 0.055224981425985455, 0.054675248275005355, 0.05415681591624643, 0.05370470190167892, 0.05329848386602181, 0.052978493430981634, 0.05270350072851939, 0.052509409314335856, 0.052374953049145884, 0.05231668148672958, 0.05229711085161716, 0.05229917276512052, 0.05239994871505864, 0.05255506193677716, 0.05280699759052241, 0.05306319721274671, 0.05336961540530676, 0.05373425593662708, 0.054150838791649884, 0.054607432820698236, 0.05512585262576356, 0.05562526385430392, 0.056246920868965274, 0.05691060373114202, 0.0576546204442898, 0.058395703632557715, 0.059163989102049494, 0.059990526725593483, 0.06085633767604948, 0.06172803220507915, 0.06267343282896878, 0.06367044567096412, 0.06468150789427272, 0.06572615057411275, 0.06683567433625356, 0.06794010581140535, 0.06907228616852426, 0.07023997791621338, 0.07143666878589902, 0.07272576712068013, 0.07396819786669583, 0.07513558082994112, 0.07644641729599276, 0.07777637632692841, 0.07920013345595942, 0.0805560811653134, 0.08188511153448302, 0.08328661225053277, 0.08470285193378475, 0.08611757719028629, 0.08756177364029118, 0.08904879654699459, 0.0905087427855981, 0.09197884766778328, 0.09342539066239759, 0.09491591549212615, 0.0964151441568337, 0.09791287253049599, 0.0994153276480608, 0.10091683334868788, 0.10241885144274271, 0.10393969968109243, 0.10543694860010244, 0.10689792223167097, 0.10839480927073472, 0.10988552059991695, 0.11142740701835724, 0.11289556533520705, 0.11435580799261633, 0.11581129021832788, 0.11725807774378233, 0.1186344079811551, 0.12006755555603521, 0.12151719420396143, 0.122913763513773, 0.12429483856870288, 0.12564862584606484, 0.12699709810875928, 0.12833732147775223, 0.1296454837103733, 0.13093349940004118, 0.13217237418546332, 0.13342088064569274, 0.13464062444622896, 0.13584014657245091, 0.1370136931897429, 0.13820598416621815, 0.13931998970425974, 0.1404346046190238, 0.1414937488610679, 0.14252711599632079, 0.1435314414338217, 0.14451027964776775, 0.14546010631370684, 0.14638002856094773, 0.14726920877273597, 0.14808152417500123, 0.14891264482319522, 0.14972985569298553, 0.15048696687274607, 0.1512092232809828, 0.15191559503393776, 0.15256432761827776, 0.1531326464858496, 0.15371640986641297, 0.15426149724821892, 0.154750534892046, 0.15522013948087893, 0.1556799973994442, 0.1560658605405833, 0.15641347792623408, 0.15670317015458024, 0.15697602615288297, 0.15724988105179463, 0.15743748087758813, 0.15758730723534656, 0.15767310212229688, 0.15774965163525806, 0.15776663096572743, 0.15776535056412852, 0.1577228417311513, 0.157654397783885, 0.15752806146413836, 0.15741153729925786, 0.15719929615805378, 0.15695013665681512, 0.15664864593327274, 0.1563267288830297, 0.15589510453698088, 0.15550528565530006, 0.15507307999342715, 0.15461858783240276, 0.15410112832774997, 0.15361121284977056, 0.1530069545350634, 0.1523679253122502, 0.15165731526705736, 0.15095312983743742, 0.1502271070931932, 0.1494474947437776, 0.1486325674061504, 0.1478236460856241, 0.1469338420012148, 0.14594294674626285, 0.14499793589316373, 0.14401725236555865, 0.1429865437501478, 0.14193869594177017, 0.14091487106545894, 0.1397919762967712, 0.13863978335718274, 0.13746512410584596, 0.13625462618853706, 0.13498184778838798, 0.13372066976548283, 0.13243071379488294, 0.13117969319075903, 0.1298260821248778, 0.1284023198774515, 0.12700965980156573, 0.12559226075602495, 0.12423077389922944, 0.12275612227741971, 0.1212354954071325, 0.11972873427629314, 0.11820289897424463, 0.1167276307043956, 0.11515662539182216, 0.11361540112656913, 0.11201226668231072, 0.1103985102844245, 0.1087762639427988, 0.10714103653691065, 0.10547832331206189, 0.10382514886413828, 0.10216148058204812, 0.10050088588132709, 0.09881649089459736, 0.09723228081927567, 0.0955193777158086, 0.09380614738891484, 0.09209679954186935, 0.09038219215427722, 0.08869566876031777, 0.08697780359604539, 0.08526214955903032, 0.08356837102061393, 0.08185549800937097, 0.08013831929817451, 0.07843557681645766, 0.07673753345524294, 0.07510526780598957, 0.07341093200511918, 0.07177641710419404, 0.07009644850552228, 0.06843016148158224, 0.06682947550127119, 0.06518444475477392, 0.06357827725554302, 0.06196509348024777, 0.06037059040591184, 0.05884453791215222, 0.05728159118020861, 0.055717078398733584, 0.05420155398881216, 0.05270712520481688, 0.05129905952113746, 0.049840213080492336, 0.0484596396065553, 0.04704734656930213, 0.0456649073781374, 0.044264809106987574, 0.04294816981694954, 0.0416957650722203, 0.040430278931917404, 0.039195884013475915, 0.03802547519876572, 0.03685076640397401, 0.03572579604845296, 0.03461884425101105, 0.03354826766310916, 0.03253823748383596, 0.031538743080814925, 0.03061079474663511, 0.029685929002965128, 0.028802901697808265, 0.02793174019525924, 0.027137043542407188, 0.02642879919719298, 0.025711291443713653, 0.025038841235980148, 0.024411802344401882, 0.023830580342414913, 0.0233236901445811, 0.02283193647539938, 0.02238902314735356, 0.02199957985381829, 0.02165478260565394, 0.021388199149772955, 0.021140541699824978, 0.02094542195331063, 0.020809536960658393, 0.020719381080123667, 0.02063974076850297, 0.020662717390345847, 0.020737567859141045, 0.020890890036150342, 0.021068262887172534, 0.02129665040314019, 0.021585647519841426, 0.021930563176746142, 0.022299462208010903, 0.022761646960196343, 0.023313795029529648, 0.02388313330225029, 0.02451114511277165, 0.025202462457412263, 0.025948211459720295, 0.02675811579027963, 0.02762324966790157, 0.02853817430249423, 0.029526051082494696, 0.03057431768833689, 0.031657350683132364, 0.03283050476316988, 0.03412383974592129, 0.03540925002220593, 0.03675861318485487, 0.03811566235921139, 0.03959964384342713, 0.041146240204422, 0.04275122818890736, 0.04441748294823664, 0.04620571614256454, 0.0479876097926593, 0.04981972520246881, 0.051733866878484046, 0.0537118608923516, 0.05571468978877632, 0.057824835957519735, 0.0599746066055429, 0.0622100740781545, 0.06450583282745824, 0.06685566711658102, 0.0692735534161564, 0.07178436751812955, 0.07431940170586358, 0.07691705368762995, 0.07956632239509655, 0.08228994275482647, 0.08503389860291424, 0.08788525751753135, 0.0907953307716359, 0.09374481444479596, 0.09677508950498258, 0.09986318477588381, 0.1030092094495065, 0.10621320426724908, 0.1094794650150728, 0.11279873049729855, 0.11617813331515756, 0.11961286717611745, 0.12310522954041381, 0.12666570522777099, 0.13027099886277937, 0.13394429967724703, 0.13766216958295713, 0.14143687569758953, 0.1452527076177462, 0.1491412011823208, 0.15306877083691436, 0.1570670691090839, 0.1611177235658164, 0.16519443046445906, 0.1693518512427303, 0.17361502417759397, 0.17786431330138938, 0.1821657719445557, 0.18643222046268712, 0.19084648095561643, 0.1953725600986804, 0.19986804947615655, 0.20441192194987642, 0.20897533162060442, 0.2136171811392353, 0.21827975688495715, 0.22301300802619084, 0.22778827381186265, 0.23261593680384757, 0.23747258375947689, 0.2423532061270844, 0.2472939015977777, 0.2522735919567712, 0.25726367309657594, 0.26232324854499095, 0.26746817193378264, 0.2725924369993501, 0.27775428888113585, 0.2829182596186716, 0.28815687950398566, 0.29345860492753173, 0.2987585251262555, 0.3040917107530139, 0.3093687021613398, 0.31477678101639706, 0.32020601675868776, 0.32566536672590063, 0.33114941421960953, 0.3366772354323036, 0.34220708439266934, 0.34774201197385063