0.04025323271659067, 0.039771646155644796, 0.03936999879080946, 0.038974070113338664, 0.038611257942826244, 0.03826216865488661, 0.03789858917609137, 0.03757431164706279, 0.03724978323240898, 0.03693908944385143, 0.03663291554779846, 0.036349605867713415, 0.03604821826503443, 0.03581735593043962, 0.03551510985316469, 0.035219820525330646, 0.03486419611568128, 0.03458908873182311, 0.034453155417832906, 0.034163541744580514, 0.033883426943185975, 0.03355493016553024, 0.03329861142058826, 0.03294907401185706, 0.03271349647691469, 0.032476770686089236, 0.03225407025077422, 0.032015940528434914, 0.03188696013847898, 0.031640411786707776, 0.03140333148326929, 0.031158794036434078, 0.030941945735280366, 0.030728212165955268, 0.03052773392155076, 0.03033496092840106, 0.03015953294204641, 0.02998139631639723, 0.029807209651834976, 0.029647186184026907, 0.029495835473475597, 0.02921078509583563, 0.029095365378126615, 0.029116623652333144, 0.028987930969116227, 0.028870653307549496, 0.028705392141677114, 0.028618476191801637, 0.028487433092131562, 0.02842394800278977, 0.02836669822146973, 0.02839733621971126, 0.028344866504658, 0.02819622798417561, 0.028183807593614402, 0.028178357297191856, 0.028287685651614186, 0.02828523630536468, 0.028148472672702395, 0.028195464888958074, 0.028322671073079418, 0.02837452341646983, 0.02843905919864823, 0.028597301353095603, 0.028677693842196515, 0.028657174581820367, 0.028787900416204236, 0.028928998304823414, 0.029021699090849295, 0.029192878423174307, 0.029382311796334288, 0.029570732902632357, 0.029770220982365148, 0.029986200354843225, 0.030209166492748893, 0.03054268821637625, 0.030780062778379334, 0.031036883492492635, 0.03123194193485524, 0.031536651961280526, 0.03193120786653815, 0.032254332432705125, 0.032596300010452495, 0.03281665509887473, 0.0332132583477502, 0.03367243050827059, 0.034084011655317964, 0.03451070370472002, 0.03499802657122903, 0.035450333633368386, 0.035954592259914285, 0.03644000401009375, 0.0369458622354138, 0.03738872133201551, 0.037945176737253145, 0.03843592031757472, 0.039033253828432535, 0.03964212678822873, 0.04034916031843247, 0.04097344149406305, 0.04169063634468124, 0.04234420355765167, 0.04302132202818803, 0.04361455997354577, 0.044350828323483686, 0.0451983519868262, 0.045955581055319036, 0.04673539113378486, 0.04739965277321447, 0.048241123538597, 0.04918214451192774, 0.05004174969465134, 0.050921901981906534, 0.05186065003269449, 0.052777191743000246, 0.05373314871739971, 0.054692884432010515, 0.05567583373825707, 0.056491587733017774, 0.057544041041165776, 0.05870083155631803, 0.05976623417610713, 0.06085098203864178, 0.06188643871426804, 0.06301934724768157, 0.0642254398746164, 0.06538417307768732, 0.06656359174908989, 0.06775663216304706, 0.06897849058225719, 0.07024689016157794, 0.0715063093717609, 0.07278768260254667, 0.07396725488075812, 0.07530754311721401, 0.07672877087461376, 0.07809027070281843, 0.07947138921974381, 0.08084364575545952, 0.08226766509949762, 0.08365980319386666, 0.0851263264857676, 0.08660834611256245, 0.08816572755349664, 0.08967253683302658, 0.09119217697918959, 0.09273953972522832, 0.09430592134641061, 0.09598613390524807, 0.09757784624851724, 0.09907914863601593, 0.10073152347960004, 0.1023991626654105, 0.10406073242603937, 0.1057617076788811, 0.10751715519849545, 0.10924128335072453, 0.11098189860922848, 0.11282182581469175, 0.11458389681804892, 0.1164064993361541, 0.118202729847861, 0.12001941795951888, 0.12180072888246812, 0.12366178161000324, 0.12540153454105016, 0.12730750048305453, 0.12921907892141635, 0.1312200844594336, 0.13313422235442757, 0.1350887678309336, 0.1370227492361885, 0.13896953009583385, 0.1408501140389429, 0.14283065630355862, 0.14480600447500355, 0.14680151206951533, 0.14880315711382472, 0.15083238505008065, 0.1528437206390669, 0.15486000982536618, 0.15688601248992445, 0.15891859766239724, 0.16090754196146118, 0.16295858818127754, 0.16513115047403, 0.16717261434134859, 0.1692233948986977, 0.17124676627487675, 0.17331748803618435, 0.17527127290581987, 0.1773651550467647, 0.17945521685408314, 0.18170338085663823, 0.18376633648544305, 0.18572123978345578, 0.18780935132804685, 0.18989463384249955, 0.19205055576348612, 0.19412025990322176, 0.1961454218699966, 0.19822112000816175, 0.20029309133679996, 0.20233946913032744, 0.20440522527417, 0.20650257496968197, 0.2085503283408071, 0.21059305466292305, 0.2125207399125581, 0.21456507974800432, 0.21677194878372277, 0.21876766666137534, 0.22076023967748026, 0.22274112645792654, 0.2247241651704426, 0.22666880695504507, 0.2286396343541956, 0.23059908774095936, 0.2324110102443534, 0.2343626744069949, 0.23637639605938535, 0.23827576004643294, 0.24015939989616375, 0.24209335915302044, 0.24393567595703777, 0.2457882702151373, 0.24759956232336927, 0.2493966492457529, 0.25100019599758966, 0.25278805485347683, 0.25463877887211195, 0.25636086479762243, 0.2580614388078473, 0.25965686169911023, 0.26132346985209465, 0.26299568273780444, 0.26460292283622683, 0.2661845895405665, 0.2677522776167389, 0.26928040125364655, 0.2707731461066591, 0.2722502365306627, 0.2736999345531568, 0.2751550687129226, 0.2765444534915979, 0.27794972236597687, 0.2792791850336949, 0.28058269001383596, 0.28181879902321605, 0.28307241778346814, 0.28425684240524374, 0.2854523644188046, 0.28661349353726706, 0.2878730628475308, 0.28894789723027225, 0.28999744491958157, 0.2910152941885678, 0.29200301158914094, 0.29294993750923687, 0.2938752248650458, 0.2946478723574843, 0.2955196877415003, 0.2963613250524293, 0.29714779608827513, 0.2978933583265723, 0.2985600526631303, 0.2992287320008367, 0.29993520460515094, 0.30050794900904876, 0.3010426866599512, 0.3014913844838826, 0.30195460429348286, 0.3023852007932181, 0.30276291873390393, 0.30309892931138027, 0.3034144540366465, 0.3036638550453613, 0.3037819630584342, 0.30396042055288836, 0.3040921358070894, 0.3041632756204932, 0.30420450581044794, 0.3042420252246837, 0.304185242983363, 0.30408502234690155, 0.3039673902269004, 0.3037766594008855, 0.303536495450934, 0.3032617330976914, 0.30294365030322823, 0.30253452092619276, 0.30213520380731346, 0.3018342712165962, 0.30132377010828515, 0.30077530184561263, 0.30003820572656825, 0.29942992599479223, 0.2987774701445475, 0.29807130906722773, 0.2973175857909231, 0.2966783046370557, 0.2958103163308327, 0.29484328277482613, 0.29390761808231713, 0.292929465952588, 0.29196804630226236, 0.2908969302027559, 0.28967224571232203, 0.2885360049086914, 0.28735294918501314, 0.2861284487294307, 0.284852990399144, 0.28352088185846896, 0.28215789405935215, 0.2807504754456531, 0.2794251331398945, 0.2779146586164305, 0.2763637601304539, 0.27478206356134804, 0.27316358596934004, 0.2715366187150156, 0.26984040620103433, 0.26814663572706743, 0.266374274561464, 0.2645681806194241, 0.2626591390502275, 0.26079347338859604, 0.25886585885175134, 0.25692738584454544, 0.25495054492053315, 0.25299315517957977, 0.25093475108249064, 0.24897422533259453, 0.2468340224373147, 0.24466904893033778, 0.24245491732678492, 0.24024169710733195, 0.23804613901251642, 0.23577228835662006, 0.23347367353659754, 0.23106938894685553, 0.22873121893948486, 0.2263613815716052, 0.22396580665605328, 0.221542575239156, 0.21924229274731763, 0.21674759365897625, 0.214188904524921, 0.21166700807648675, 0.2091256008976337, 0.2067028981762171, 0.20410635508232883, 0.2015137465086488, 0.19889427048466873, 0.19626448981551706, 0.19358140104696495, 0.19093587853033517, 0.18827743293364185, 0.18560662878048678, 0.18292410885874635, 0.18031611894133764, 0.17760154948324977, 0.1748657440091359, 0.17214425398384353, 0.1694177228159102, 0.16671046681895907, 0.1639726028855115, 0.16121393319052404, 0.15847546195539275, 0.15573537724749656, 0.15305634205722343, 0.15030792810480667, 0.14767344881855246, 0.1449210026487674, 0.14218042808147505, 0.1393778640397437, 0.13666990284712446, 0.13397195057214115, 0.13127981905305025, 0.1285972343294348, 0.12595127390211136, 0.1232873454515809, 0.12075141835454362, 0.1181018199284783, 0.11547430336081188, 0.11291165123490239, 0.1103230898840664, 0.10768584222605224, 0.10515660788980957, 0.10264851358876013, 0.10014825424381721, 0.0976871367432705, 0.09525408370061307, 0.09284016352451172, 0.09045217836009099, 0.08812454222470134, 0.08578768188307898, 0.08359851791275838, 0.08131038721764809, 0.07906189712199603, 0.07675090702686382, 0.07459482927800178, 0.07257530008893781, 0.07047628896573957, 0.06841982498662964, 0.06633263772495344, 0.06437182431415701, 0.06253399958642188, 0.06064355357444128, 0.05880003358259204, 0.056980206607244475, 0.05523519022088424, 0.053537541357953425, 0.051888155640555225, 0.05028794826579387, 0.04879962403955757, 0.04729276504530032, 0.0458176130215597, 0.0444251479092925, 0.04308779288067609, 0.04178968172604963, 0.04056696856891189, 0.03934852072188547, 0.03824644120007975, 0.03719986197761804, 0.03631943224142244, 0.03537403967461616, 0.03449653965773785, 0.03368217939956671, 0.03293412450341596, 0.032150594899038556, 0.031549267998407626, 0.031005041044566403, 0.030529336075223366, 0.030117774157280418, 0.029861847630131506, 0.029570704060244597, 0.02931653972061614, 0.029175417396835032, 0.029105501163721542, 0.02906464572488571, 0.029144399330438962, 0.029356553714739015, 0.029570668803198176, 0.029860656701758442, 0.0301222838185774, 0.03057816737268094, 0.031228552256439755, 0.031811885295221554, 0.032475332798245965, 0.03319748524705911, 0.03402382212065548, 0.034929094644293654, 0.03591353770078289, 0.03697738485340101, 0.03799731704481877, 0.03923627710189037, 0.04061965526422889, 0.04199708219079769, 0.0434539135779454, 0.045033284868184524, 0.04664458074255623, 0.04831965341370631, 0.05009882409969248, 0.051831222808547836, 0.053789736639901206, 0.05582268667223071, 0.05790499325054572, 0.06009313887443069, 0.06250904840063072, 0.06483023204698102, 0.06723722639476551, 0.06958684081966333, 0.07218161224946885, 0.07494267367257901, 0.07767863721085151, 0.08049674861836897, 0.0834156558865383, 0.0863945690720667, 0.089310648970597, 0.09247153460112607, 0.0957052891500932, 0.09912182764672281, 0.10248922274865604, 0.10594894625148175, 0.10947508432918539, 0.11308103200071831, 0.11673039889688529, 0.12049822629603611, 0.12426797733589177, 0.12819582531991472, 0.13219418775423375, 0.13627502120678223, 0.14041303599814858, 0.14462215563441846, 0.14890207069337041, 0.15325240167049692, 0.15769408781214697, 0.1621811545189178, 0.16673595375885572, 0.17136275544652563, 0.17605794135836306, 0.18077080235047727, 0.1856065957950445, 0.19056009915193847, 0.19551462134464045, 0.20053422435016888, 0.20550142010324932, 0.21066269636764756, 0.21587929588939847, 0.22115106322764874, 0.22647771758231114, 0.23190875846376346, 0.2373375882171169, 0.2428368712879799, 0.24837521165972312, 0.2539683561389038, 0.2594938788054745, 0.2652081822889666, 0.27093343416259746, 0.2767400543985959, 0.2825882636590818, 0.2884872696789487, 0.29441642538506013, 0.30041729032845077, 0.30642342572780107, 0.31247050305235713, 0.3185692132006454, 0.3246930592840091, 0.33073363929035277, 0.3369472089672684, 0.3431890407643148, 0.34948716642433253, 0.3557803401661061, 0.3620516400213901, 0.36840607864235886, 0.37478349420777896, 0.38132086898360407, 0.3877242406181598, 0.3941294102834016, 0.40058973462390485, 0.407072149975643, 0.41345121683948616, 0.4199877891771592, 0.4265624330918012, 0.4331136948619753, 0.43967436177368696, 0.446136265928672, 0.45272545508749285, 0.4594448161958578, 0.46601593619695386, 0.47259266664094973, 0.47917077081719495, 0.48575345529763714, 0.49218877104955777, 0.4987881621840943, 0.5053756414882712, 0.5119482416742741, 0.518510287729765, 0.5250414892359956, 0.5315762732642118, 0.538093933657483, 0.5446029812982311, 0.5510821195722503, 0.5575271604992567, 0.56396709669124, 0.5703836938734653, 0.5767590112773778, 0.5831270506160153, 0.5894667321448278, 0.5957767368596946, 0.6020556946440744, 0.6082879358814263, 0.6145023230662119, 0.6206472523257767, 0.6267920617438512, 0.6328959864133411, 0.6390386171143992, 0.6450469279075234, 0.6510674222056066, 0.6569869626787287, 0.662865421992872, 0.6687171160036265, 0.6745044584652334, 0.6801214367430974, 0.6858285868212362, 0.6914777146829703, 0.6971462151908753, 0.7026663081385894, 0.7081296212989233, 0.7135344008904494, 0.718878944917961, 0.724090321960198, 0.7293184934284074, 0.7344918604557462, 0.7395791595166703, 0.7445962669209143, 0.74962046546423, 0.7544838986361867, 0.7592615189106312, 0.7639869244760139, 0.7686387584579646, 0.7730919898209948, 0.777607906903748, 0.7821245576055705, 0.7864597165034756, 0.7907141099279141, 0.7947820167571948, 0.7988845823158544, 0.8028970491469825, 0.8068191505961188, 0.810650539980148, 0.8143836729599286, 0.8180332294487915, 0.8216187630068787, 0.8250791311664544, 0.8284474918615382, 0.831794300117775, 0.8349671639061175, 0.8379758997220179, 0.840975742033098, 0.8438782843778037, 0.846694768472017, 0.8493992935932474, 0.8520551659794963, 0.8545555607908497, 0.8569587752646056, 0.8591971977744213, 0.8614112800725521, 0.8636497088314896, 0.8656393188270828, 0.8675314888896626, 0.8692773254778693, 0.8709766317369914, 0.8725174471315913, 0.8740153497518867, 0.8754051502976632, 0.876736671668109, 0.877903742371729, 0.8788940155579309, 0.8798585906518817, 0.8807127638257826, 0.8815066431891516, 0.8821343243402641, 0.8825813352771892, 0.8830040638691873, 0.8833152196482894, 0.8836102841273696, 0.8836875773780957, 0.8836883840271701, 0.8835516785436682, 0.8833108593116902, 0.883001094297118, 0.8825462284342698, 0.8819738746191884, 0.8813138712592526, 0.8805490028178774, 0.8795912258351869, 0.8786274281225376, 0.8776012039450986, 0.8764123235059057, 0.8751177793798166, 0.8737678700820615, 0.8722569394443083, 0.8705019131144677, 0.8688060412374021, 0.8670009390241822, 0.865218703655262, 0.8631828105575613, 0.8609635499172689, 0.858742992899548, 0.85639888173865, 0.8539777289270211, 0.851455278384161, 0.8489135078650443, 0.8461818101319537, 0.843216684304858, 0.8403167001210811, 0.8373166389204997, 0.834389312586948, 0.831172621758486, 0.8277279044000735, 0.8243584600117718, 0.8208959887111539, 0.8174323140239294, 0.8137769470638426, 0.8099430829546648, 0.8061335240859494, 0.8022366607792372, 0.7983087444384568, 0.7942351417117868, 0.7900677593261577, 0.7858379866949812, 0.7815300759375012, 0.7772023080894346, 0.7727347052098071, 0.7682340109509777, 0.7636202459496073, 0.7589392991772521, 0.7541182160399414, 0.7493144208973764, 0.7443846894057224, 0.7394518542240531, 0.7344500668057422, 0.7294669101061282, 0.7243225012683904, 0.7191223209797679, 0.7138625472019519, 0.7085472718864199, 0.7031754304031521, 0.6977534332453996, 0.6922893759875859, 0.686764510018108, 0.681191569073631, 0.6754627099772065, 0.6698118262117779, 0.6641967288984825, 0.6584379688438416, 0.6526390480337653, 0.6468086879431318, 0.6409333459397017, 0.6349874450824446, 0.6290483627095621, 0.6230755692341554, 0.6170971228436596, 0.6110593543470908, 0.604995061066698, 0.5989059098622747, 0.5927935811057837, 0.5865172105167847, 0.5803816375666311, 0.5743031495384178, 0.5681077802164057, 0.5618965966299366, 0.5556406477311582, 0.549407520595282, 0.5430889159117409, 0.5368435592104578, 0.5305864012671846, 0.5243841869947866, 0.5181029814745692, 0.5117521142695065, 0.5054798596633538, 0.49920647094334175, 0.4929413424545982, 0.48667149540963395, 0.4804145846305586, 0.47415742128792826, 0.46791034381555036, 0.46178682053487513, 0.4555511523887668, 0.4492444547509475, 0.4430645573256652, 0.4369027532185205, 0.43071558743406774, 0.42460071313155323, 0.4186109209568512, 0.41252588185012845, 0.40647112568087684, 0.40044052539948727, 0.3944502854124017, 0.3883837718167719, 0.38247457088922676, 0.3765946408983873, 0.37068193260830684, 0.3648748646887781, 0.3591137507084773, 0.3533706311252435, 0.34766457914726767, 0.3420926055007517, 0.33645448939067046, 0.33090478630092196, 0.3253585343001774, 0.3198644407861082, 0.314347106314557, 0.30896888465423245, 0.30367860452465867, 0.2983968011676799, 0.2931697569342176, 0.2879865713560569, 0.2828734822477126, 0.2777580139060192, 0.27276753299676404, 0.2678328355813812, 0.26304094954538615, 0.2582114051662308, 0.2533896651765904, 0.24869756197001708, 0.24406825847352476, 0.23942203990483274, 0.23493170347045783, 0.23049556505395308, 0.2261303591398637, 0.22182911022514393, 0.21754569525954226, 0.21338244175489496, 0.2094292645461863, 0.20537943469901093, 0.20140566627122422, 0.19747710358311743, 0.19365948602019212, 0.1898142048344637, 0.18615885756822556, 0.18257295970761908, 0.17920020321750574, 0.17573846609914245, 0.17234535439901585, 0.1690457856477719, 0.16582541485628016, 0.16254152477331837, 0.15949711354826343, 0.15653298107670238, 0.15362995362762427, 0.15080017117518152, 0.14815125192552983, 0.14545643884310103, 0.1427476289384477, 0.1402264625004024, 0.13778012309849946, 0.13545885840555397, 0.13315684231962524, 0.13098792150045063, 0.12883561854847014, 0.12676426569910174, 0.12467570287157653, 0.12277636432971142, 0.12095987788453784, 0.11920616400352509, 0.1175265141807625, 0.11598498322046184, 0.11444500590297943, 0.11300361939920608, 0.11161457820234623, 0.11030241001719794, 0.10907332307398931, 0.10791127068551841, 0.1067050194479918, 0.10570628037305939, 0.10477368742804322, 0.10390020309477822, 0.10310096872501281, 0.10246010338461889, 0.10178042083758783, 0.10117126088552361, 0.10059829321236714, 0.1001311970768183, 0.09970108384546733, 0.09936781472012528, 0.09909687936050106, 0.09891382124294443, 0.0987624187748662, 0.09872752790367165, 0.09869199129202018, 0.09871945900151403, 0.09879899755498092, 0.09894942357057261, 0.09903934072107534, 0.09932010643086872, 0.09964999254627789, 0.10009049515222115, 0.10050986590969764, 0.10090938838705993, 0.10143955168430861, 0.10201496207158713, 0.10264932284015904, 0.10331167587138894, 0.10400864722159787, 0.10475952670054772, 0.10555210090010453, 0.10651609827613245, 0.10737264021463813, 0.10816829036824706, 0.10912825496903115, 0.11027135005314707, 0.11128321910693002, 0.11233691630040836, 0.11337543571427658, 0.11451274180094669, 0.11570584247304905, 0.11690262441741932, 0.11812962890288066, 0.11932099004860804, 0.12061145555207385, 0.12201620762118845, 0.12333714642481353, 0.12468276281094047, 0.12605120095405714, 0.1274406757305062, 0.12869502943639513, 0.1301409961673164, 0.13159433239523124, 0.133232907229332, 0.1346773603236574, 0.13607372799839734, 0.13755635857537665, 0.13904742278639567, 0.1406049543940433, 0.1421012970375567, 0.14343429051177048, 0.1449659006840308, 0.14649210251849926, 0.14813378181807046, 0.14963287385972238, 0.1510799047519481, 0.1525844647506583, 0.15408322241700204, 0.15550859224416277, 0.1570009633642245, 0.15855898271353927, 0.1600153616802969, 0.16146218323484138, 0.1628886118552991, 0.1643135465475823, 0.16577435483464859, 0.1671637483844823, 0.16853955286043434, 0.16981942076103995, 0.17117362818484114, 0.1725646023052225, 0.17386529954272537, 0.17514519818603558, 0.17636977090434672, 0.17760852639745714, 0.17884945613993072, 0.1800310535918175, 0.18118615918515552, 0.1823279288576202, 0.18342498482494926, 0.18445276475584532, 0.1854960470510737, 0.18650600335046877, 0.18756272148909517, 0.18849373233521835, 0.18937724751237228, 0.19024730465704062, 0.19108299714826993, 0.19183816038815574, 0.19260782720412123, 0.19337572542451636, 0.19406053250308763, 0.19470672396660066, 0.1952398685972685, 0.1958158575702908, 0.19644669538791731, 0.1969201366116622, 0.19735410704435605, 0.1976455315598117, 0.19801082677135318, 0.19838306368246833, 0.19864617007589172, 0.1988648613962433, 0.1991052857267629, 0.19922562940307845, 0.19923058848095582, 0.1992759563410478, 0.1992738994047895, 0.19913645419117418, 0.19905050942002217, 0.199045122673209, 0.19883804686216686, 0.19858723059265554, 0.19817097204485393, 0.19784648506032743, 0.19760552260542225, 0.19716076400960744, 0.19667296404273282, 0.19601803840955964, 0.1954582635994686, 0.19495884900800756, 0.1942830550146976, 0.19356360734734102, 0.19281924582338567, 0.19200936183797182, 0.19108978865280216, 0.19020178729573492, 0.18926656564327268, 0.1882157115325532, 0.18719623572694047, 0.1861366610311705, 0.18501783905171906, 0.18385200868939627, 0.18264479273954126, 0.18138692131301792, 0.1801465924485805, 0.17879318747663187, 0.17740048351821663, 0.17597820127742422, 0.17450640192945027, 0.1730227805129503, 0.1714720544000777, 0.16988547771797485, 0.16838916478013607, 0.1667156090837018, 0.16486675048940608, 0.16315521794448967, 0.16140638300200696, 0.1596900728909639, 0.15786070275137506, 0.15610760948017452, 0.15420383246717395, 0.15227627682809916, 0.15033650234278875, 0.1483590986977386, 0.14632960930612338, 0.14430871281614235, 0.14226288287852867, 0.14012851320583863, 0.13804264363379148, 0.13604178516781756, 0.1338897669312956, 0.13171992761114532, 0.1295302733148017, 0.12732634580537866, 0.1251890793428543, 0.12294233562327254, 0.12068522077720616, 0.11832523861922421, 0.11605973599385988, 0.11388173526847689, 0.11157528134697027, 0.10926249313245091, 0.10689396346831385, 0.10457638414452315, 0.10224906369522345, 0.09991822674516379, 0.09758225962463186, 0.09527090829951947, 0.09292479350131229, 0.09061452931155127, 0.08826536877805215, 0.08592052848219305, 0.08362121321784391, 0.08128240807324459, 0.07895518045389698, 0.07663512612235734, 0.07432578284260621, 0.07208970461993841, 0.06979637586742415, 0.06769794461945362, 0.06541594304542994, 0.06316165664332575, 0.06094618475291544, 0.05874374546930146, 0.056501572884440576, 0.054360954749552104, 0.05224323932208, 0.05027032768343803, 0.04818536869693269, 0.046092156610360376, 0.044076562008836744, 0.0420909772803393, 0.040202565306048134, 0.03827059429793991, 0.036341287147170456, 0.03448572628810525, 0.032665052176883265, 0.030953771920266823, 0.029196179169687038, 0.02753736311612248, 0.025856485731446804, 0.024221504412785515, 0.022634955073906126, 0.021092082516814166, 0.019586609342080355, 0.018139245895158085, 0.016739346087533993, 0.015390033012069024, 0.014087058033580848, 0.012869720146695908, 0.011663103730070255, 0.010510254758254978, 0.009473586459179771, 0.008422431720106979, 0.007473346177251862, 0.006535664991694383, 0.005660329115575459, 0.004764280671517745, 0.0040245578525599365, 0.0033003558059803424, 0.002683664852022935, 0.0021653351071553905, 0.0016608364606769729, 0.0012192288033725624, 0.0008818121351136521, 0.000563587456599039, 0.0003583314174518388, 0.00017057265991878996, 5.423416722226198e-05, 0.0, 2.831943806827567e-05, 0.00017338070574142341, 0.0003395873036563734, 0.0005807405045854564, 0.0008280071499562864, 0.0012280275778347764, 0.0016709794619873335, 0.002218251952834655, 0.002836852405148219, 0.003489680547131385, 0.004258421452485789, 0.005241461972323419, 0.006136696074400137, 0.007113641832117951, 0.008050828868770198, 0.00920568602081616, 0.010463243589023397, 0.011763704600128853, 0.013141531362643382, 0.014623297093725864, 0.016153819009779694, 0.017807119569122745, 0.01949235495111558, 0.021260183283097457, 0.02310320215898412, 0.02503632111989653, 0.02695584830895717, 0.029063724789626797, 0.031247418488026483, 0.03355269452556791, 0.035884087014820286, 0.03825265269425376, 0.040749327547805074, 0.043323500683174206, 0.04611562972422413, 0.04882783521047823, 0.05162365208754265, 0.05450708353160653, 0.05747435324905561, 0.06039153362644356, 0.06354073879452332, 0.06676861668189714, 0.07006541597457139, 0.07343701498011873, 0.07690730624140597, 0.08042582341210716, 0.08395412217155689, 0.08763339405383919, 0.09138465659668438, 0.09516057760312155, 0.09906228770919598, 0.10318802062594329, 0.10720966516395809, 0.11131001267498093, 0.11544747738477079, 0.1197068024174986, 0.1239274510328243, 0.12834613992269725, 0.13283006466604644, 0.13751241781609194, 0.14211029078270263, 0.14674054487776703, 0.15148780891848113, 0.1563030991511282, 0.16119743706319958, 0.16614469439985433, 0.17104162264481096, 0.17613480296425077, 0.181285581385303, 0.18662221578581592, 0.19187172312159495, 0.19717368124692675, 0.20255195795636724, 0.207991151027018, 0.21333560107390073, 0.21891250220181022, 0.2245926822893967, 0.2302600042249885, 0.23597901325213294, 0.24180133309468205, 0.24761510282763322, 0.25333405853631874, 0.2592701998454342, 0.26524808699205954, 0.27134369756823773, 0.2773951608743011, 0.28344929129178165, 0.28959597139483184, 0.29578353670209534, 0.30211337827483786, 0.3083674058248921, 0.3145087212377715, 0.3208689968483251, 0.3272610669409159, 0.33367025764514224, 0.3401263511727751, 0.346614231607018, 0.3531282355156438, 0.35967046458633783, 0.36633989454661336, 0.37292344061642463, 0.3795025153673484, 0.3861510866526638, 0.3928252398525211, 0.39945225748777047, 0.4061822735148189, 0.4129794622354317, 0.41973687403470467, 0.42651259536360125, 0.43317694878337204, 0.44000137856213056, 0.4469705851859634, 0.4537911859839183, 0.4606256657763027, 0.4674675740084806, 0.4743253523152784, 0.48104444326071494, 0.4879365278712953, 0.4948258682045332, 0.5017216369066663, 0.5086031674553949, 0.5155524063480619, 0.5224170370984361, 0.5292805221839939, 0.5361295096274123, 0.5429877969134232, 0.5498351288144198, 0.5566802601809175, 0.56351622028527, 0.5702015151646485, 0.5770329123516494, 0.5839763730521473, 0.5907487754701697, 0.5975071297676937, 0.6040930978305059, 0.6108386264354372, 0.6175520409811763, 0.6242432436169008, 0.6309062759683068, 0.6375240837265449, 0.6441314969556238, 0.6507390987232609, 0.6572806180565333, 0.6637918953430864, 0.6702267709029949, 0.6766801795784286, 0.6832401999887302, 0.6896029351537806, 0.6959361385993458, 0.7022258982032193, 0.7084955348854308, 0.7146103481586685, 0.7208212723496071, 0.7269862048442025, 0.7331496832244432, 0.7392150446511416, 0.7452729630870412, 0.751241465616397, 0.7571643745849094, 0.7629357156256971, 0.768776400955525, 0.7745780894156361, 0.7803049486828254, 0.7859761138043145, 0.7915480930528273, 0.79711106848109, 0.8027182189893737, 0.8081467756727612, 0.813519834706029, 0.8187718214689171, 0.8240377813332648, 0.8292524203824477, 0.8343897320604714, 0.8394630040876966, 0.8445283908464597, 0.8494637724481694, 0.854167029441413, 0.858995561697419, 0.8637486325617075, 0.8684501680961811, 0.8730496993120916, 0.8776132920528482, 0.8820597843973121, 0.8864337523036503, 0.8907510965561248, 0.8949757190152657, 0.8990861656333918, 0.9031674642459312, 0.9071710111822829, 0.9110915625966806, 0.9149387133262105, 0.9188013583404502, 0.9224769114368965, 0.9261081420562911, 0.9296280942412136, 0.9330721088966982, 0.936324792235337, 0.939627414821337, 0.9428202135513937, 0.9459535820493791, 0.9489992658080592, 0.9519548982512342, 0.9548254973687258, 0.9577412344766928, 0.9604190973969057, 0.963016316268151, 0.9655316858501812, 0.9679641148693124, 0.9702603465060619, 0.9725306419325609, 0.9747123882221702, 0.9767435136571322, 0.9787551041872506, 0.9807902784970565, 0.982601743128837, 0.984327402164078, 0.985821582685408, 0.9873918204573956, 0.9888685263256878, 0.9902473123774005, 0.9915315759282244, 0.9928667502908297, 0.9939450901712059, 0.9948552238235274, 0.9957731690849504, 0.99659988279118, 0.9973140456168541, 0.997961201376004, 0.9985969282433901, 0.999049714967948, 0.9994153484956534, 0.9995983931094166, 0.9998006189152755, 0.9999949219972565, 1.0, 0.9999175488535246, 0.999695129522074, 0.9994437858261048, 0.9991420467933183, 0.998704448883635, 0.9981791806714417, 0.9975164469225261, 0.9968224874218172, 0.9960028410261746, 0.9951339119532087, 0.9941741603202655, 0.9931339703428925, 0.991993969083006, 0.9907756970646923, 0.9894596340860162, 0.9880576897578808, 0.9865324290554572, 0.9849652669611937, 0.9834330004885249, 0.9816788505375221, 0.9798469659865734, 0.9779443280253517, 0.975955731563267, 0.9738302499585457, 0.9716942600704188, 0.9694776741893726, 0.9671859544819096, 0.9648097197390487, 0.9622816716945529, 0.9597591427305027, 0.9571557617687512, 0.9544704915741484, 0.9517096666982564, 0.9489881313933526, 0.9460595326348921, 0.94306271508472, 0.9399859995650243, 0.9368549356245162, 0.9335703097852829, 0.9303145430394794, 0.9269870817041099, 0.92368667442384, 0.9202074759588322, 0.9165756646337194, 0.9129836836333277, 0.909325294353068, 0.9057063611127568, 0.9019058786165692, 0.8980439931306984, 0.8941312207585072, 0.8901624410939011, 0.8860099704502441, 0.881947317646739, 0.8778947851916408, 0.8737026401788941, 0.8694569332293908, 0.8651350240727624, 0.8607885651471836, 0.8563525841199482, 0.8519092578661275, 0.8474149572554913, 0.8429164443369456, 0.8383192965777914, 0.8336879300301413, 0.82900326312813, 0.8242776740185205, 0.8194979815779655, 0.8146955947330508, 0.809845266179206, 0.804968452424272, 0.8000551648710195, 0.7950140712834647, 0.7900435337433699, 0.7851184495676545, 0.7800640462439951, 0.7749806245440236, 0.7697886094256909, 0.764660990968518, 0.7594749459097566, 0.7542929734890343, 0.7490831534950777, 0.7438450671456704, 0.738585634384421, 0.7334416376714831, 0.7281217796640235, 0.7227906919883433, 0.7173229531723377, 0.7119869229525524, 0.7066272258083428, 0.7012607668657522, 0.6958808034419663, 0.6906173245168411, 0.6851991380378064, 0.6797082697517605, 0.6742967922248093, 0.6688810057279073, 0.6634859124010642, 0.6580622323265836, 0.6525442676623242, 0.6471351613291376, 0.6417235998372958, 0.6363066892203982, 0.6308963145817003, 0.6255265816407364, 0.620118337895845, 0.6147181593959818, 0.6093819509567086, 0.6039947540687938, 0.5985036254821279, 0.5931619586845375, 0.5878300906228662, 0.5825407223278924, 0.577229902496755, 0.571857401385754, 0.5665912749971168, 0.5613400992417094, 0.5560986397850636, 0.5508838386263594, 0.5458386376461521, 0.5406463974113325, 0.5354856950767694, 0.5303568144449582, 0.5252601161854161, 0.5200273378627015, 0.5150176821860618, 0.5100322051280658, 0.5050871092509367, 0.5001539005916852, 0.49537468986424493, 0.49048824128788115, 0.4856420595912185, 0.4807058003223858, 0.47595772528147695, 0.47135302812781665, 0.4666608289200154, 0.4620118047690572, 0.45738979078349534, 0.4528306493860627, 0.44825346001133204, 0.4437902587070536, 0.4393686708149256, 0.43495185377048146, 0.4306217518568183, 0.4264104873833025, 0.4221576835855888, 0.4179544564792904, 0.4137276631426534, 0.40963443417157386, 0.4055572882842905, 0.4015629985661416, 0.3976160524312122, 0.39385781809087933, 0.389991299189078, 0.38611911460573795, 0.3823774631321027, 0.37869033261224794, 0.3751009099637865, 0.3715186579842873, 0.36798978697811785, 0.36452442907963006, 0.3610433640430935, 0.35770332536800953, 0.3544173372877645, 0.35118137310462344, 0.34800619451343234, 0.34482024893557145, 0.34176557149510095, 0.3387640003425475, 0.3358331533182015, 0.33293852982525146, 0.3301076797184964, 0.3273259642868313, 0.32460225307398555, 0.321910722002322, 0.3193071979523838, 0.31675146681692223, 0.31426409232082997, 0.3118341158948267, 0.3095473594259883, 0.30722215594189944, 0.3049146599246737, 0.3027202641735806, 0.3005850121628134, 0.29850871852807026, 0.29649117336351855, 0.29462242905904107, 0.29271024291337255, 0.2908611059037312, 0.2890502349495632, 0.287327199097349, 0.28552995622654087, 0.2839407861855889, 0.2824017203328545, 0.28109379184614164, 0.27963337068406807, 0.2780845444705287, 0.27676429156011767, 0.275494373633609, 0.27433661812527627, 0.2731596377525927, 0.27199123896552074, 0.2709267467215538, 0.26991210561163, 0.26906817624848867, 0.2681369297868876, 0.26726125203418877, 0.2664397177085251, 0.26567098232928216, 0.26495614910563775, 0.26428895645079115, 0.2636259175915242, 0.26306190190676754, 0.2625424456595195, 0.26198846417980437, 0.261565991709851, 0.2612505061548194, 0.2608954029162946, 0.26058198239800057, 0.260269034105014, 0.26004161772787265, 0.25993428725311585, 0.25976968790410565, 0.2596455836693712, 0.25955355660128143, 0.2595075133555808, 0.25940989984622, 0.2594465232544082, 0.25951231680211007, 0.259540368572012, 0.25967168265895224, 0.25991259345319717, 0.26008116283705784, 0.26027836076206357, 0.2604200511777629, 0.26068206997475213, 0.26106248283927824, 0.26135379261907415, 0.2616707488239896, 0.2620880659702745, 0.2624427764152829, 0.26267858297995056, 0.2631018071833013, 0.2635392821218748, 0.2640783904042757, 0.26453160172046214, 0.2649000518806449, 0.2653995700167223, 0.2659079581791872, 0.266500721260985, 0.26701559120791024, 0.26752281355319035, 0.26806148313852146, 0.2686078257199168, 0.269234376803522, 0.26978340190495376, 0.27018883313838676, 0.27077232256123196, 0.2713524349754383, 0.2719359778037697, 0.27250738838612343, 0.27314351610475357, 0.2736972377609246, 0.27424937494239865, 0.27475827734609864, 0.2753086030843971, 0.27587751932473153, 0.2764085983649732, 0.2769318793018316, 0.2775009194096585, 0.27799844390104406, 0.27838110328836846, 0.27887477325036103, 0.2793516117559714, 0.27994894290873235, 0.28037320858164755, 0.28071790419253273, 0.28112784075312114, 0.2815199409109575, 0.28191939776338304, 0.28226971752508095, 0.2825320087676628, 0.2828517041777837, 0.2831462866162392, 0.2834200700866255, 0.2836624851043529, 0.2839309340867144, 0.2841137221119347, 0.28427210748463555, 0.2843267016578581, 0.2844432947349068, 0.2846589528921693, 0.28469558215734797, 0.2847074596963834, 0.28461484135318776, 0.2845832178725973, 0.28462089572281624, 0.28451020598544574, 0.284371548637899, 0.28406113458879534, 0.28388097663246326, 0.28368522762849896, 0.283423576663154, 0.2831242744878789, 0.2828965265579585, 0.28250781974600325, 0.281923335695527, 0.2814906666256747, 0.2810150272581116, 0.28056581223551663, 0.2799969186061175, 0.27934027659512306, 0.27870171371184005, 0.278021971941509, 0.27735110935899854, 0.27658315910139925, 0.275850883591029, 0.274997344524991, 0.27410935836814965, 0.27312193164204224, 0.2721707386405756, 0.27125768424397323, 0.2702160100000026, 0.2691384233157399, 0.2679554000805327, 0.26681293373122594, 0.2655673370636622, 0.2643501756536023, 0.2630886124246833, 0.2618166314756967, 0.26046417044500747, 0.25904505473133954, 0.2576151787620454, 0.25614395550587005, 0.2546034054590087, 0.253054665648797, 0.25150490230427014, 0.24986893300205795, 0.24819518983073896, 0.24654575693827546, 0.24478959737198122, 0.2429597085398862, 0.24114183408971676, 0.2392881411764121, 0.23737044674154967, 0.23544973284125306, 0.23346652799515483, 0.23147704141309203, 0.2294509960833097, 0.22751040244279574, 0.22539840520533508, 0.22318305812024217, 0.22102583220818633, 0.21883672149787295, 0.21675651961161926, 0.21448776917376397, 0.2122301475474468, 0.20991245361831767, 0.20757370899528468, 0.20508042076552233, 0.20271523822023557, 0.20032068612952375, 0.19789783365109573, 0.19544773686962727, 0.19315201188380038, 0.19062771957417446, 0.18801814442584974, 0.1854744225958823, 0.18288824502452258, 0.18031060532532117, 0.1777139476736674, 0.17518697724352322, 0.1725435880376612, 0.1698981007951303, 0.16723048479860708, 0.16455226847549564, 0.16195405099528518, 0.15924425834737474, 0.15648976990485147, 0.15377633073503924, 0.1510561932533829, 0.14840349776704684, 0.1456621984210728, 0.14293192936173701, 0.1401875610844199, 0.1374434089541612, 0.1346760051620961, 0.13193628261950577, 0.12927031364822103, 0.12652227621109238, 0.1237801276665472, 0.12105368702462391, 0.11832317699702695, 0.11564076231079067, 0.1129211034826958, 0.11021260374939722, 0.10763920410508172, 0.10493868633644259, 0.10214370552700866, 0.09949645835358487, 0.09686196224082366, 0.09426970143031575, 0.09166006151703579, 0.08908443641643927, 0.08650830363259744, 0.08395222384822368, 0.08157143413924764, 0.0790383883533286, 0.07652473314178411, 0.0740554220850273, 0.07161628337901395, 0.0691646858637835, 0.06679183919264749, 0.06454021571765871, 0.062213607096979616, 0.05992246832164124, 0.05762657892534822, 0.055412121675698575, 0.05320797407926375, 0.05106547889452273, 0.04895739955748917, 0.04692521117350728, 0.044884111261042275, 0.04299699484699784, 0.04102210829529585, 0.03909510618394287, 0.03712560236350354, 0.035305617892916884, 0.03367584537557643, 0.03192402496218331, 0.03022534002147713, 0.028558202917352633, 0.02696802115626196, 0.025355914239772445, 0.0238788441123377, 0.02245012408577492, 0.0211872430043984, 0.01984368562477288, 0.018548647514775116, 0.017322403012516436, 0.016153869963072855, 0.015045736556200005, 0.013993321474495439, 0.01290956904230938, 0.011986908381169432, 0.011119049026254858, 0.010319102577133556, 0.009562971582258455, 0.008894314985820283, 0.008253447299270751, 0.007674979752971705, 0.00714290110487136, 0.006693182207137938, 0.006351886237216706, 0.006023723858449912, 0.005762748235107119, 0.005547847907279739, 0.005424777097417521, 0.005430314867065233, 0.005433570543113088, 0.005508045930797083, 0.005546757446673647, 0.005777033110118026, 0.0061223415362650436, 0.006477482970640967, 0.006902276359259738, 0.007330532398170532, 0.007904029525744972, 0.008575275215091209, 0.009279393131740747, 0.010053623473434513, 0.010884093855286606, 0.01180145530309667, 0.012931700244928734, 0.013972059643129293, 0.015091430932764317, 0.01617726630407581, 0.01746624093593296, 0.01881609834726655, 0.02024732275652503, 0.021748904558672903, 0.02333060941247888, 0.024972439060230313, 0.026809344217343822, 0.028578647720434117, 0.030426462649719585, 0.03215219470204048, 0.03417931334200213, 0.03640401618467519, 0.03854420987415074, 0.04075793560010536, 0.04299480254855408, 0.04536043024884151, 0.047776343029401085, 0.05028290606189916, 0.052857546385275095, 0.055502657041458875, 0.05821314560987683, 0.061058254556776444, 0.06389635730632987, 0.06680591847876301, 0.06979328310520763, 0.07284253904103463, 0.07581645079770918, 0.07902243740393128, 0.08228835946080774, 0.08566692247237122, 0.08904728107731343, 0.09254132930734828, 0.09604262634745388, 0.09960978561770323, 0.10313505464464912, 0.10684495983808959, 0.11072391445987022, 0.1145345054247758, 0.11840872952732671, 0.12221248354756396, 0.1262276699190475, 0.13029831750755225, 0.13441945701304228, 0.1385938635383535, 0.14294492525889266, 0.14720966757021717, 0.1514031755921921, 0.15580191137171476, 0.16024997960237158, 0.1647851292621796, 0.1693261683853137, 0.17382970551115243, 0.17848185893472726, 0.18317782418178252, 0.18788654743392294, 0.19267342914351823, 0.1975775921462882, 0.20243713808838926, 0.20734163810826586, 0.21227340805701256, 0.21726674494951898, 0.22227238619546213, 0.2273499967220194, 0.23246486996620694, 0.23765898709001876, 0.24284057092823497, 0.24801417209775714, 0.25327451919408883, 0.25856696997277, 0.26394290645574753, 0.2692902511605956, 0.27459857753723926, 0.28001804188821505, 0.28546296591217807, 0.29088979058300213, 0.29638861453123666, 0.3019317348534933, 0.3074680439101124, 0.31302497493097886, 0.3186610011269042, 0.3242488506063016, 0.3298625180644258, 0.33549039154011145, 0.3411366155254815, 0.3467403084765537, 0.35242632701544235, 0.35806123353630115, 0.363775471119542, 0.36949503689004043, 0.3751909341527251, 0.38092321563654785, 0.3866123670537238, 0.39235388366003476, 0.39806765458327537, 0.40380894284047353, 0.4095464099704668, 0.41531536615929493, 0.42103957659613506, 0.4267820112587849, 0.43249625803715674, 0.43820661299636243, 0.44395701310180136, 0.4496502435508069, 0.4552149060186695, 0.4609121137098479, 0.46659419504519106, 0.4722273480495796, 0.47788167656220554, 0.4835100095677131, 0.48912699360832185, 0.4947235944084719, 0.50033244333418, 0.5058820956386456, 0.511330321097751, 0.5168477838515039, 0.5223378195605862, 0.5278854595234932, 0.5333082252276018, 0.5386258050198363, 0.5440085384681997, 0.549359480144623, 0.554808562720717, 0.5600771087454331, 0.5652285141727619, 0.57045282179967, 0.575641413331996, 0.5807576123418914, 0.5858761563839174, 0.5910607641688792, 0.5960833121618793, 0.6010694290108564, 0.6059936573092191, 0.6109049022943258, 0.6157687720333941, 0.6205940879535948, 0.6253739878132283, 0.6299885075673982, 0.634689124974105, 0.6393603827766585, 0.6439465794413755, 0.6484784021884411, 0.6529505868854111, 0.6573726784530054, 0.661679057869063, 0.665995433327132, 0.6702509277178341, 0.6745118792506434, 0.6786365506374509, 0.6827222726159485, 0.6867276785421017, 0.6906743069400504, 0.6944826705146085, 0.6983184439386719, 0.7022066833108161, 0.7058944123149956, 0.709521703835752, 0.7130443817120402, 0.7165520598071894, 0.7199976643357398, 0.7233702538994419, 0.7266746341278105, 0.7298980959811608, 0.7330650984533009, 0.7361037939516976, 0.7391347812015333, 0.7420899836121383, 0.7450357544568289, 0.7478304129292792, 0.7505404962274488, 0.7531904444750306, 0.7557654270581111, 0.7583099375501732, 0.760727357116331, 0.7630443327019719, 0.7653154979587394, 0.7675090725284879, 0.7695769367879861, 0.7716195680264025, 0.7736633928233291, 0.7755314552129252, 0.7773219497153866, 0.77892237872808, 0.7805694419062583, 0.7821897897668406, 0.7836573807105643, 0.7850426676195975, 0.7863334559550226, 0.7875547098425637, 0.7886992289551774, 0.7897516899321492, 0.7907203613273784, 0.7916359198652767, 0.7924324909505103, 0.7931963166621405, 0.7938208887977914, 0.7943648487109058, 0.7947894635337044, 0.7951749446411501, 0.7953712555784582, 0.7956005408894932, 0.7957390522732193, 0.7958184275210077, 0.7957736637883739, 0.7956062597444233, 0.7953923060461178, 0.7950899445179018, 0.7946712219707017, 0.794197276241078, 0.7937916726658781, 0.7931216245413599, 0.792373178809627, 0.791471979407244, 0.7905740599593638, 0.789594214640012, 0.7885275997126153, 0.7873772505565366, 0.7862075418046314, 0.7848823064268423, 0.7834681677270964, 0.7819851054872251, 0.780421736396786, 0.7786830330806689, 0.7769711602612774, 0.7751524784000884, 0.7732734075661506, 0.7713095654970538, 0.7692714939754924, 0.7671399670523439, 0.764939038559277, 0.7626442646301012, 0.7602704852507832, 0.7578587659858068, 0.7553238870738319, 0.7527166555532436, 0.7500323605015371, 0.7472741950446611, 0.744352277672893, 0.741459039710941, 0.7385784811928953, 0.7355198597049255, 0.7323911326807478, 0.7292331066225659, 0.7259603568019507, 0.7225023607978548, 0.7191119610957027, 0.7156489817218427, 0.7120957525296313, 0.7084939788726027, 0.7048556892964575, 0.7011115089869341, 0.6973020786432638, 0.6933927512025231, 0.6894602964946852, 0.6854659262794979, 0.6814058535371226, 0.6772841171399883, 0.6731517910185081, 0.6689039325143363, 0.6647218540246395, 0.6603486083142277, 0.6559282468985826, 0.6513893109953657, 0.646883343665492, 0.6423000346403411, 0.6376957765264324, 0.6330405262597404, 0.6283258959660868, 0.6235732234225448, 0.6188151775526524, 0.6139620458997643, 0.6090656332110314, 0.6041339559288775, 0.5991527908517028, 0.5940246243598929, 0.588977763890495, 0.5838867685617125, 0.578767785335812, 0.573592318476341, 0.5684478803638053, 0.5631895327627503, 0.5579002959450554, 0.5525098424150146, 0.547170729174498, 0.5417307857584298, 0.5363381548145281, 0.5309129384485944, 0.5255380167327667, 0.5200436065170724, 0.5145200110364324, 0.5089835559215274, 0.5034269865315818, 0.4977683822124952, 0.49218580852414945, 0.4866795742106652, 0.48104443766229643, 0.4753380168550448, 0.4696875805702806, 0.4640238781862731, 0.4583198949010404, 0.45263772040769756