0.0629600613313065, 0.062306625078395815, 0.06163235320946785, 0.06100831244686689, 0.06039222557941417, 0.05977603740722069, 0.05917331942175376, 0.058499554489537954, 0.057914632395433645, 0.05732866496587773, 0.056782965460966284, 0.056190076621116344, 0.055667506536360906, 0.055069090462145, 0.05447588199650908, 0.053873507983375604, 0.05329062750397219, 0.052676232228329, 0.052103063104271506, 0.05153033491277181, 0.05094445283547267, 0.050374760944050814, 0.0497845818201341, 0.04921798317161048, 0.04865087172073462, 0.04815918346122736, 0.04758272190106331, 0.0469013059777211, 0.0463482371203769, 0.04579339235908596, 0.045237472723369525, 0.044681108371228066, 0.04412486455985532, 0.0435692472204784, 0.04301470815835681, 0.04257835961920116, 0.04201238481483387, 0.04130408229396082, 0.04077396422007225, 0.04024284929118618, 0.03973891521592627, 0.03920440177639301, 0.038960684211278296, 0.038394896567710696, 0.03784826110935617, 0.037105851472683374, 0.03661838239007654, 0.03605705714631683, 0.03558278152991185, 0.03510655333712943, 0.034663589586101086, 0.03418169565445656, 0.03381202289497579, 0.03332135709079629, 0.03283992401766492, 0.03222296792143032, 0.031776554582061654, 0.03141901205469321, 0.030961354177302815, 0.030509833637300997, 0.029954524013254286, 0.029528939912051366, 0.02921298418476059, 0.028773935268138623, 0.028342451133865392, 0.027863402165808748, 0.02745340179410899, 0.027129739301468607, 0.02671755548560274, 0.026314566816690376, 0.02589291684220164, 0.025510662528918777, 0.02510071864999287, 0.024736061598802987, 0.02437609756433129, 0.024096633381568734, 0.023737352381766018, 0.023284827731961295, 0.022957660482622086, 0.02263375358765479, 0.022293073465464636, 0.02197992271458506, 0.02185576478906084, 0.021527016719576023, 0.021213397435178073, 0.02081776615626015, 0.020543611151600815, 0.02030396457583729, 0.020040546636575115, 0.019785949941772622, 0.019402769644200037, 0.019182906323346346, 0.019101249084442, 0.018866908897940647, 0.018643222776928585, 0.018340698357459013, 0.01814891375125934, 0.01792783457722754, 0.017751036836525992, 0.01757845068278992, 0.01745201185479961, 0.017284789243645352, 0.017229057693670245, 0.017066024139323486, 0.01691763231665786, 0.016563512898649043, 0.016470224478013117, 0.016343128382253696, 0.016256534468679435, 0.016171009839732062, 0.016369324378299355, 0.01625406991730227, 0.01596000227799566, 0.01590907257116055, 0.01586459780191392, 0.01589573414322329, 0.015856934847799955, 0.01578857460068312, 0.01577802100241691, 0.015776360318739392, 0.015982834090581856, 0.015974211177929055, 0.015725157432243137, 0.015788906706893747, 0.015855624165251075, 0.01596743383685605, 0.016037564996803023, 0.016314541303549847, 0.01637530237777626, 0.016455543996282827, 0.016450907587390123, 0.016579157526854692, 0.016772373184412416, 0.01691366501025072, 0.017067899584317776, 0.017234570147378392, 0.017413239233629974, 0.01761039659297267, 0.017811123376500402, 0.018023266896296068, 0.018205352405349286, 0.018444732862277935, 0.01875428527782414, 0.019002789515068664, 0.0191261631952993, 0.019416024853210364, 0.01970970021738739, 0.020035494880599414, 0.020335760411777135, 0.020760336188654725, 0.02106139959023192, 0.02137727184481951, 0.021721007640177935, 0.02206281105397431, 0.022239892393796385, 0.022631234735202805, 0.02302524361559708, 0.023505285750461662, 0.023897037685506287, 0.024305533582984373, 0.024716155840282687, 0.025136992792995996, 0.025581679144337312, 0.026020919161969778, 0.026573827755412217, 0.027021212863211876, 0.02748465106115445, 0.02785327867919772, 0.028359764700667575, 0.029072497472126393, 0.02956828590407921, 0.030082708167118076, 0.030696661663602662, 0.031233653964274202, 0.03147415413640003, 0.03208802290860539, 0.0327003412525603, 0.03345654010638437, 0.03405116242029387, 0.034834172941634524, 0.03542570587953852, 0.0360365733799364, 0.03656898492695912, 0.037225846470155456, 0.038063838524099565, 0.038717643230228874, 0.03938992256450346, 0.03993486913443199, 0.04065762581179274, 0.04157182628227336, 0.04228339888181174, 0.04301164134787025, 0.043734568532031885, 0.044494773635443, 0.04526686537368783, 0.04605012236512257, 0.04684393465707543, 0.04767525166331064, 0.04848525397572759, 0.04937471914232251, 0.05019715779280908, 0.05103333683065485, 0.051896090634853356, 0.05275545948226605, 0.05369568899674171, 0.05457014396764956, 0.055459466590758955, 0.05632146334912421, 0.05724287397985309, 0.058222325673852014, 0.05915735947812881, 0.060104599321082405, 0.06103604604838025, 0.06200965011610586, 0.06321913030884743, 0.06418266784861013, 0.0651681461250816, 0.0659540570676326, 0.06700598599276297, 0.06821383066519453, 0.06925704594802903, 0.07031482334666322, 0.0713658970618157, 0.07245350590202582, 0.07367641226684364, 0.07477163983837294, 0.07588517825016272, 0.07691982573419573, 0.07807904004614548, 0.07925525228528545, 0.08043399368074561, 0.08162353308243629, 0.0827621943248692, 0.08398149464698647, 0.08530462608076318, 0.08652786314878855, 0.08776546785874935, 0.08901722088700487, 0.09028295347617343, 0.09174103862888687, 0.09301183019662346, 0.09430636295223022, 0.09551334105565042, 0.09686509502021967, 0.0980933602116487, 0.09949009315591123, 0.10089294536460425, 0.10242665070689949, 0.10382948556098281, 0.105282861602525, 0.10671365331948994, 0.10816236181299527, 0.1097453657126867, 0.11121422626039772, 0.1126037775385764, 0.11413191118472879, 0.11567592672101781, 0.11726333940147003, 0.11883583979392733, 0.12041228323968257, 0.1220217810490025, 0.1236480579771944, 0.12516078833405525, 0.12683748200807018, 0.1285034473688258, 0.1302037023469956, 0.1319149975132637, 0.13367969077466338, 0.1354112408457712, 0.1371455733705339, 0.13891240388807005, 0.14069596891365788, 0.14256546510252147, 0.14437540171674038, 0.146269202951285, 0.14811534247081018, 0.149986782556001, 0.15188295364114046, 0.15380337740410094, 0.15568587106226842, 0.1576615013082122, 0.15965694867884128, 0.16178236341137023, 0.16380446904910434, 0.16586032350063176, 0.16793473638267337, 0.17003534013132104, 0.17200378749412354, 0.17417549103144625, 0.1764046433924216, 0.17860472450720047, 0.1808254253755437, 0.1829986579936588, 0.18527093695591035, 0.18777439630523357, 0.1900575001040396, 0.19237284843003635, 0.1946028593348406, 0.19699496989684018, 0.19954098717060983, 0.20196396894718283, 0.20441858048502057, 0.20681492030001755, 0.20934223049713865, 0.21203183820073251, 0.21459214504436322, 0.21718588851865844, 0.21959263510506447, 0.22227892195566212, 0.22499818322697332, 0.22772258753200658, 0.23046960887304574, 0.2333638305849141, 0.23614339342263796, 0.23887974259704695, 0.2417332189022995, 0.24461432587810694, 0.24755785010885065, 0.2504912239476099, 0.2535652771885359, 0.25654652001970735, 0.2595649434961282, 0.26235888359360954, 0.265482413916367, 0.26868824503731153, 0.27184660544032874, 0.27503199697644765, 0.27826578881721525, 0.28150487054553675, 0.28476733740608234, 0.28806815377959516, 0.291399520531759, 0.29465879068023665, 0.2980652282695974, 0.3017307174050276, 0.3051599410375536, 0.30862982766765684, 0.31200883420791176, 0.315573350709909, 0.3192574991366507, 0.3228717714745651, 0.32652194060685336, 0.3300976378338761, 0.33383196879977906, 0.33782116651205507, 0.3415839810577282, 0.3451278759062523, 0.3490061391834168, 0.3529089729163489, 0.35698150034970016, 0.3609179770208142, 0.36484154480648157, 0.3688538369545278, 0.3728975134314996, 0.3769381652520379, 0.38104869048662765, 0.3852913686454396, 0.38944737918827405, 0.39363861283190943, 0.39769954503930194, 0.4019798455977644, 0.40632522014078565, 0.4106488102242377, 0.41499993833212045, 0.4193650423496931, 0.42377342682281627, 0.4282226363527325, 0.43268358360021236, 0.4371725539874994, 0.4416482372760539, 0.44619806771526355, 0.45071821894126984, 0.45532558430962883, 0.45995524794341885, 0.4646007525929669, 0.4692769894210379, 0.473982892751884, 0.47870401145513514, 0.4834485180557564, 0.4882300570918643, 0.4930192755429577, 0.49777040382662086, 0.5026144415592444, 0.5074778956018425, 0.5123813973956853, 0.5172810935495568, 0.5222492545416801, 0.5271833067954877, 0.5321396486096712, 0.5371929368230393, 0.5421817357382057, 0.5470503360600446, 0.5521038646887525, 0.5571704705198298, 0.5622568900297409, 0.5673483178790505, 0.5723839420229053, 0.5775093497554219, 0.5826429045363429, 0.5877228718811327, 0.592880578990039, 0.5980771229671846, 0.603239752992493, 0.6084091583807972, 0.6136536809501055, 0.6188269403002429, 0.6239684601380087, 0.6291647415332677, 0.6343659902603648, 0.6395989228934693, 0.6448043665774892, 0.6499041420054407, 0.6551307680758308, 0.6603532919178022, 0.6657775012045023, 0.6709651625490677, 0.675939771805858, 0.681166367214772, 0.686383165825008, 0.6917548263377488, 0.6969307611906771, 0.7018240141869685, 0.707031380967131, 0.712218333671762, 0.7172894255882502, 0.7224494860741995, 0.7278322579401981, 0.7329130427569394, 0.7379847043693796, 0.7428465297084808, 0.747920296786634, 0.7530376772625885, 0.7580527789273629, 0.7630467153273084, 0.7681491543275345, 0.7730818877461085, 0.7778541064150002, 0.7827703907450334, 0.7876583485608282, 0.7925035861204044, 0.7973345670332233, 0.802196045799642, 0.8069558953054982, 0.8116863808478914, 0.8162625746127187, 0.8209459109270671, 0.8257811569490429, 0.8303592348928287, 0.8349070378723707, 0.8393469791925284, 0.8438376799756395, 0.8481849908978052, 0.8526067197518555, 0.8569799230000967, 0.8614072485523043, 0.865669291151058, 0.8698117989836908, 0.8739939396510018, 0.8781250274959571, 0.882108207417368, 0.8861470731539337, 0.8901271394666189, 0.8940483195393242, 0.8979104011417479, 0.9016855991082209, 0.9054318840657853, 0.9092947673027976, 0.9128943193038012, 0.9164411618770661, 0.9197891460464148, 0.9232429686866122, 0.9266715565092767, 0.9299867930836103, 0.9332368052359412, 0.9365167395367986, 0.939621246361363, 0.9425188451046274, 0.9455143645268131, 0.9484356733570053, 0.9514265522222376, 0.9541799838542661, 0.9568041733741525, 0.9594288084700276, 0.9619792300837657, 0.9645299604034742, 0.9669194503923071, 0.9691262250755353, 0.9713823480893333, 0.9735565123920077, 0.9757787266567323, 0.9777711661333007, 0.979598366159335, 0.9814485769067363, 0.9832148459065052, 0.9849034552671344, 0.9864992359955146, 0.9879822884833576, 0.9894104084895021, 0.9907505445327631, 0.9919268432808943, 0.9930995467242696, 0.9943025792999286, 0.995273426971994, 0.9961584100796187, 0.9968056209083589, 0.9975354226861904, 0.9982714438120689, 0.9987952377103954, 0.9992290205076146, 0.9996958944691545, 0.9999326447994358, 0.9999064995806418, 0.999995649429059, 0.9999877935013911, 1.0, 0.9997844052609647, 0.9994587012516217, 0.9990659843590598, 0.9985812889025736, 0.9979012748762617, 0.9972446167154043, 0.9966677832812222, 0.9957918428627924, 0.9948284565095994, 0.9936531479741195, 0.9925279297541639, 0.9913952838093792, 0.9900659097640331, 0.9886458173364453, 0.9870111735639876, 0.9854245771327842, 0.9837123345151909, 0.9819338069067663, 0.9800574307510252, 0.9779950402817944, 0.9759374298950894, 0.97406148724048, 0.9717702916693867, 0.9693981933325299, 0.9666971529991093, 0.9641920076450199, 0.961521289322698, 0.9588325744482863, 0.9560461603744429, 0.9532189092455828, 0.9502358212601466, 0.9472184220375284, 0.9440510191983422, 0.9407996096329025, 0.9375883356722295, 0.9341550143732357, 0.9305090906691578, 0.9269421840022514, 0.9233054517541274, 0.91957073759225, 0.9157553108864576, 0.9118257622478114, 0.9078560133519059, 0.9039025276844088, 0.89976215954699, 0.8955497856586069, 0.8911422622670505, 0.8868028806904888, 0.8823861043588225, 0.8778935992325412, 0.8733269778034869, 0.868941821602307, 0.8641995126498213, 0.8593676085170583, 0.8545185306551458, 0.8496113471444772, 0.8444265181629562, 0.8394315042557079, 0.8343738271330662, 0.8292412358642214, 0.8240440964845659, 0.8186952627938087, 0.8133865441768708, 0.8079594389495889, 0.8025333555606546, 0.7970458237115473, 0.7916849986068705, 0.7860593450236459, 0.7803356186292186, 0.7746314609842518, 0.7688828431799802, 0.7631186496101197, 0.7572819127231449, 0.751461460448614, 0.7455417213815252, 0.7395888958391847, 0.7335283089159437, 0.727521473164679, 0.7216242617948995, 0.7155317914577676, 0.7094162294457395, 0.7029485534561992, 0.6968301404946674, 0.6907269903292362, 0.6845258432251579, 0.6782949473153278, 0.6721673934805259, 0.6658683279980061, 0.6595269425693838, 0.6532028757430861, 0.6468649314954944, 0.6406382150112374, 0.6342614845823378, 0.6276489895472916, 0.6212976225211414, 0.6149320177468078, 0.6086578079705153, 0.6022585365949834, 0.595727943874704, 0.5893448669556803, 0.5829565209610449, 0.5767576527213788, 0.5703418948196762, 0.5640143622861307, 0.5576150992287648, 0.5512341363203986, 0.5448785468731793, 0.5385340955793686, 0.5319416580466856, 0.5256711487363694, 0.5194066308393593, 0.5131579126866214, 0.5069131628302055, 0.5007037015332321, 0.49448813624194865, 0.48829309749384237, 0.4823059395248077, 0.4761344073727255, 0.46993087697721847, 0.4638415984945072, 0.45778576901661905, 0.45174383289772146, 0.4457606511346031, 0.43972370567327634, 0.4338240458601386, 0.42795739048825376, 0.42229733969334315, 0.4164807992067533, 0.4107262421801065, 0.4050047858784815, 0.3993330750066829, 0.39353985707942746, 0.38799055997274307, 0.3825445447949658, 0.377072406406146, 0.37164907767753785, 0.36617970588964377, 0.3608698925691867, 0.3556758138272432, 0.3504534029294475, 0.3452856321298761, 0.34025599724028227, 0.33519038423795006, 0.3302009731465181, 0.32525889106539796, 0.32038074291339597, 0.31551190086400743, 0.3107694919322995, 0.3059859641849825, 0.30138114319354437, 0.2968340668557188, 0.29240127059868326, 0.28796744561500154, 0.2836881449450189, 0.2793743877569793, 0.27513246501325556, 0.27093489933587095, 0.26684011134045316, 0.2626165961208726, 0.2586880233099793, 0.25481926120503035, 0.2511426498895747, 0.24738250906790318, 0.24355042247153333, 0.23995323713135958, 0.23642070931637774, 0.23308465391903838, 0.22966890015321326, 0.22636307059093033, 0.22309402250570318, 0.2199021964560242, 0.21670477717360176, 0.21367654396707006, 0.21095311406809464, 0.20803844089192414, 0.2052087953005887, 0.20226338701508928, 0.1996240519533536, 0.19712950355850647, 0.19461953109468705, 0.1921837363808848, 0.18965010660530124, 0.18738323157165893, 0.1853102165317317, 0.18315469879448487, 0.18107176775369346, 0.17901299520957503, 0.17708018322962044, 0.1753465370055698, 0.17353464824519896, 0.17179866853061282, 0.17011679097442614, 0.16853167283017678, 0.16694923081701557, 0.16551459603712568, 0.1641457549601749, 0.16282872265212323, 0.16159239025004765, 0.16054374054372925, 0.159419709046205, 0.15836608224930915, 0.15723729446089452, 0.1563385922350593, 0.15536778507958962, 0.1546021978058411, 0.15388743205451696, 0.15333414449041538, 0.15270935688864276, 0.15215710075428485, 0.15164752250463792, 0.15119615114392138, 0.1509256956673608, 0.15057248708060472, 0.15013070175777118, 0.1499195670043719, 0.1497586328771543, 0.1498807807437408, 0.14978905253427222, 0.14962836901864207, 0.1496734976656376, 0.14976776034012837, 0.14967652275183937, 0.1498949344914416, 0.15038605875561636, 0.15063964292855975, 0.15094030940289163, 0.15134818319758786, 0.15173027101433537, 0.15201391358863828, 0.15250367304032944, 0.15302715369749595, 0.15352191287990022, 0.15411862032460047, 0.15466791692677326, 0.15533005731318178, 0.15601529851723994, 0.15686788079389977, 0.1575811402619141, 0.1584489001608854, 0.15920685430802228, 0.15996530451465402, 0.1607947688610382, 0.16165232674487434, 0.16238502416982908, 0.1633121980100948, 0.1643427358570458, 0.16528639048530847, 0.16624815241044483, 0.1672198118800817, 0.16821464389424257, 0.1690859205179663, 0.17012438186711534, 0.1711664354063292, 0.17220510803133202, 0.17325476280108607, 0.17454035059584241, 0.17556512519439954, 0.17660462647073671, 0.17757401830244843, 0.17864618819097305, 0.17963231400203367, 0.18072082010463106, 0.1818048464221244, 0.18278771360690588, 0.1838731797956561, 0.18491945277073735, 0.18598498464136093, 0.18703722518027482, 0.1882890234880056, 0.18928771816759848, 0.19036028007834083, 0.19134408934629382, 0.1923265375245889, 0.19306493436830335, 0.194068003366269, 0.1949946111078532, 0.19596156667529535, 0.19690383994727523, 0.19796587095517595, 0.19884122540399726, 0.1996317570993178, 0.20048220402103956, 0.2013101843446683, 0.20225240859106813, 0.2030162903273879, 0.20373610892852753, 0.204468512597854, 0.20517941068518528, 0.2059224497616813, 0.2065796497878386, 0.20714619340199292, 0.2077665843195434, 0.20835827786580854, 0.20892058004029213, 0.20945283248037644, 0.2099063539238517, 0.2103827421651297, 0.21082460603339578, 0.21122493505443854, 0.21159816315469004, 0.21201837469569865, 0.21231025004562792, 0.2125710596027438, 0.2127244587920918, 0.21293027832079026, 0.2131946426163478, 0.2133131581271862, 0.21339945585277414, 0.2135076447551288, 0.21352021103707977, 0.21352892059482442, 0.21347436995763014, 0.21338814965266736, 0.21309763854431318, 0.21296694333343774, 0.21284728555382254, 0.21262263065365572, 0.21235861089136035, 0.21211032839377225, 0.21176117485387502, 0.21121837925167647, 0.21081745053739812, 0.21037146175878152, 0.2099913805508666, 0.20944464640001909, 0.20874536802839333, 0.20814167422723107, 0.20749553735201995, 0.20680791683167543, 0.20607968749067385, 0.20543522458652433, 0.20461248999093581, 0.20375829789664754, 0.20276930763590997, 0.201864217631591, 0.20088671919297527, 0.19991049986402512, 0.198895624731386, 0.1979047838109456, 0.19680743249328894, 0.1956911585979685, 0.19452701356658314, 0.193331506431408, 0.19224212762289694, 0.1909671289576876, 0.18955243160646804, 0.18824540112672106, 0.1869073819979672, 0.1855594237516603, 0.18415820990238613, 0.18260502457633584, 0.18116300173515182, 0.17968640862525148, 0.17832084930154396, 0.17676110054399902, 0.17511026843016236, 0.1735143789856165, 0.17189236918351647, 0.17019006667033645, 0.1685250097873701, 0.1670183631372638, 0.16527716065615106, 0.16352174712595013, 0.16158009831889478, 0.1598169291745423, 0.15808407897014487, 0.1562661386334548, 0.15442937192757675, 0.15254713352351046, 0.15067863579746274, 0.14877162907151464, 0.1468709521692067, 0.1449532669502347, 0.1430471945245985, 0.14109545943239998, 0.13911788693431165, 0.1371445012794535, 0.1351598895550037, 0.13315125324720226, 0.13114870542062526, 0.12918496728188833, 0.1271588478904014, 0.12512815084848344, 0.1229012127762302, 0.12088738335060922, 0.1191551627070906, 0.11707899392034454, 0.11500998469219938, 0.11286523262380875, 0.11081955511625868, 0.1086242670045839, 0.1066010966778544, 0.10457202503072432, 0.1027517046008012, 0.1006892818592488, 0.098521308523739, 0.09649572880619359, 0.09447441162355524, 0.09236903512511023, 0.09037028318672174, 0.08846274276535755, 0.08645820861085447, 0.08446368874458407, 0.08251415892582675, 0.08053727399186414, 0.07869098173086655, 0.07672747388649334, 0.07478516487659412, 0.07275369853798079, 0.07086627978960126, 0.0689790341060011, 0.06712190613605976, 0.06527939555736201, 0.06341114628097702, 0.06160555877881823, 0.05993827993550125, 0.05814762582859496, 0.056380755842955245, 0.05454152749082199, 0.052834358349328474, 0.051042705379689066, 0.04938646559817977, 0.04774472629133224, 0.0460985352828699, 0.04449318169260874, 0.043077297480257744, 0.0414873151281312, 0.03992746035465592, 0.038301378061702446, 0.036813265203519914, 0.0352120251788219, 0.03379031509736452, 0.03238639236815496, 0.031214759820542583, 0.02982435635279062, 0.028372069332117687, 0.027061739507006556, 0.0257792405438808, 0.024751497794076156, 0.023497093716758587, 0.022181263001139477, 0.02102143195836437, 0.01981894845407044, 0.01873404483131293, 0.01767711988947804, 0.016813298224314564, 0.015792539712940784, 0.014576564456215278, 0.013660661027626263, 0.012767869779578845, 0.012146407876342153, 0.011271668876874856, 0.01045047782071444, 0.009652370873817066, 0.008892467831101642, 0.008073560594239313, 0.0073990665967118615, 0.00663777093000978, 0.00603787906442066, 0.005461399616570523, 0.005025996885824841, 0.004484324658300119, 0.003940785756838017, 0.0034680414136894176, 0.0030251852021193344, 0.0025435411279765186, 0.002169047974047258, 0.0018822376548902758, 0.0015521829127084978, 0.0012523203077739234, 0.0010099005576923214, 0.0007663044054299786, 0.00045765273158265455, 0.0002878500540391761, 0.00014277377388032954, 0.0002149718002347297, 9.591818948946565e-05, 7.487475744884475e-05, 1.8991785698757616e-05, 0.0, 9.169799592805698e-05, 0.00013194638289735523, 0.0001537193880591079, 0.0002719223395967048, 0.00041991665234366167, 0.0005073780626620525, 0.0007231110134600551, 0.0009606845794784449, 0.0012200032709824477, 0.0015009494725374837, 0.0018445749860855718, 0.00216312670757191, 0.0025875158627056602, 0.0029420243284472977, 0.003323560168907385, 0.0036554455641275825, 0.004097200664899267, 0.00474390485996765, 0.005201102114065771, 0.005687691270918335, 0.0061263536110609295, 0.006676048433026957, 0.00743823204288736, 0.008003427084480718, 0.00859828741490987, 0.00907647614953868, 0.009742627062488388, 0.010431385920341148, 0.011127768031555331, 0.011839526484263053, 0.012641775090184786, 0.013373545655976258, 0.014151235753901788, 0.014915489472916259, 0.01569790504018657, 0.0164974615194172, 0.017313232406151097, 0.018144375008746803, 0.018990120846323937, 0.019849766985396984, 0.02089430018477302, 0.021758163447200742, 0.022767348700791265, 0.023657196266276916, 0.024572162398927212, 0.025454840349167087, 0.02641982469763752, 0.027214871851818808, 0.028232884796913462, 0.029253557853650698, 0.03044904524055396, 0.03145484268851534, 0.03239193194958422, 0.033434461423512626, 0.034484093690761955, 0.03560933593205778, 0.03666407036897979, 0.037804879315150565, 0.03887051460362633, 0.039949692424947676, 0.04100695920597875, 0.04211431633989278, 0.04321657103287119, 0.04434243625637847, 0.04547525440127444, 0.04666282898435974, 0.047802753762910294, 0.04891048350943181, 0.050073068469770214, 0.05124132959402402, 0.0523602740589472, 0.05354663729909702, 0.054927661005312205, 0.056095004709695064, 0.05727636620345757, 0.05836069659236473, 0.059580526156848286, 0.060859976351144145, 0.06208236773725076, 0.06331276543998611, 0.06455771666440918, 0.06580236594551252, 0.06688299844193088, 0.0681643703372668, 0.069443360834019, 0.07099585029450134, 0.07223903826214356, 0.07334765826323415, 0.07464159372249352, 0.07594113214053329, 0.07741817984631466, 0.0787080469829959, 0.08001397213049577, 0.08133485107776654, 0.08266975275759997, 0.08391492418647233, 0.08528871172975917, 0.08662764166052124, 0.08801974535460916, 0.08941675312037402, 0.09094987935518295, 0.09234248650497816, 0.09377012288311794, 0.09518861239728615, 0.09662203234323449, 0.09800824379592268, 0.0994783862646575, 0.10089745161265312, 0.10239725433140656, 0.1039051690577705, 0.10539468565018306, 0.10692509841193754, 0.10856776603738014, 0.11010474353874529, 0.11165877816028912, 0.11327800952795306, 0.11486038126743393, 0.11638051985566715, 0.11801344301815762, 0.11966164867146313, 0.12131893199087464, 0.12300053961908236, 0.12478823834156474, 0.12649292916183405, 0.12822082002775417, 0.12979334870028472, 0.1315900875574664, 0.1334961452124575, 0.13530871568733152, 0.13714290968464113, 0.13889631459994417, 0.14078846947986845, 0.14270501635474417, 0.1446327346859569, 0.14658101347072217, 0.14874319832467212, 0.15071156781740405, 0.15255650681381652, 0.15461313750680145, 0.15669422108155545, 0.1589379408923032, 0.16105315564837985, 0.1631961577715853, 0.1653811890081543, 0.16759987538643245, 0.1697285332081695, 0.17202990231707818, 0.17435788102842326, 0.17671355464890526, 0.17909793777483163, 0.18150511472495723, 0.1839505738371544, 0.18641330075291565, 0.18892333179556736, 0.19146521544592826, 0.1941290470111155, 0.1967258335714586, 0.19938244715507156, 0.2020550606263564, 0.20476804254392345, 0.20745262681713067, 0.2102547405091713, 0.21307259213943192, 0.21595056178056413, 0.21886484665960587, 0.2218435964916152, 0.22482905685494492, 0.22790921852583096, 0.23096762450159172, 0.23396656366302226, 0.23712487945788482, 0.24032070021586294, 0.24360285371523407, 0.24686984949951557, 0.25028899521511466, 0.25362690030830976, 0.2570136399823446, 0.2602974644182288, 0.2637989271861382, 0.26744187212725773, 0.271008086405118, 0.27462003188791195, 0.2783186794347092, 0.28201624901731837, 0.28569950292645646, 0.2894993573863488, 0.2933423333124564, 0.2972079704477004, 0.3011401817576602, 0.3051627667666669, 0.3091737801263017, 0.31323025590909315, 0.3171878021186783, 0.32135277656118516, 0.3255682139391603, 0.32980587307014286, 0.33408280317761485, 0.3384270345955939, 0.3427806342327183, 0.34722449468467986, 0.3516564750062854, 0.35613339693150425, 0.3605586987078982, 0.3651363097165679, 0.36967659760725885, 0.3743404588907647, 0.3790387986262485, 0.38382726040269277, 0.3885896146255727, 0.39348733420885795, 0.39831587375410976, 0.4031886597838576, 0.40800164496320707, 0.4129727776700803, 0.4180891274889215, 0.42311697914908186, 0.42818601470614504, 0.4331440296344634, 0.4383110675665883, 0.44361727827540076, 0.4488292470206294, 0.45407691180662973, 0.45934558908445516, 0.46466353108707226, 0.46988998700268325, 0.47528690598070883, 0.4807073169956821, 0.48600719355012933, 0.4914931126680665, 0.49700133174620376, 0.502518178650109, 0.5080524497360224, 0.5137899044564427, 0.5193365825429618, 0.5247400766847767, 0.5303637225331717, 0.53600296701221, 0.5416027145596876, 0.5472794410578737, 0.5530158165679356, 0.55870954124506, 0.564417178412817, 0.5701859909452962, 0.5759129163825067, 0.5816469767432184, 0.587401379065115, 0.5931666056267851, 0.5989756328307054, 0.6047541066880264, 0.6105893063916649, 0.616377388133002, 0.6221735562520141, 0.6278522499982339, 0.6336743288338765, 0.6394094253036647, 0.6452319234062562, 0.6510435304507779, 0.656878300633528, 0.6626628285470854, 0.6683685147581694, 0.674140414477024, 0.6798963424848958, 0.6856632502062586, 0.6913821099591806, 0.6972631486527088, 0.7029257403794477, 0.7085798444042434, 0.7140443522642781, 0.7196963456338926, 0.7252811884494046, 0.7308856535676551, 0.736460131460367, 0.742017714298871, 0.7475284617837177, 0.753138214304803, 0.7585685691750178, 0.7639726893233015, 0.7692042130077504, 0.7745676022292636, 0.7798354138565576, 0.7851236344353, 0.7903664341058884, 0.7957417995727452, 0.8008695417629945, 0.805747189832628, 0.8108250408819924, 0.8158492568929046, 0.8207988787235256, 0.8257172075708629, 0.8306204680237512, 0.8354205194705766, 0.8401654120886569, 0.8448471893911864, 0.8494793129647904, 0.8542927732856636, 0.858775470019677, 0.8632103708376827, 0.8674776270802476, 0.8718224946402462, 0.8761522964904133, 0.8803632474249888, 0.8845106349369198, 0.8884827356662679, 0.892511341875284, 0.8964579937165494, 0.9003365557676962, 0.9041381403113318, 0.9080130394353936, 0.9116393099061714, 0.9151329718331366, 0.9186233756446965, 0.9220355512919015, 0.9253201587004837, 0.9285781560494517, 0.931861374636789, 0.9349354874898134, 0.9379296380811815, 0.9407735360726623, 0.9436116400598235, 0.9463750702140843, 0.9490338513026135, 0.9516034615328768, 0.9539663413494106, 0.9563698489572962, 0.9585790691824254, 0.9607985643481888, 0.9629147697810825, 0.9650520517422111, 0.9669482657182885, 0.968715705694037, 0.9704267306705031, 0.9720401265380707, 0.9735555629713416, 0.974972692674955, 0.976380405402796, 0.9775885551663475, 0.9787023172335054, 0.9796313622873698, 0.9805644859151018, 0.9814982301742711, 0.9822135243347881, 0.9828320468772554, 0.9831675043515656, 0.9836132292208648, 0.9839286919986144, 0.984158536365932, 0.984279154524021, 0.9843668908633461, 0.9842618924387793, 0.9840403819105037, 0.9837315279184452, 0.9833190807874288, 0.9828649444761228, 0.9822378562472702, 0.9815522104302559, 0.980720069316881, 0.979789877212582, 0.9787885728434954, 0.9776573535383556, 0.9763528739696847, 0.9750352957412183, 0.9736150132065124, 0.9720924448010797, 0.9704680386322452, 0.9686324281972837, 0.966819697430019, 0.9649004854531033, 0.962965489247511, 0.9608262961361947, 0.9586515343054521, 0.9563103395969477, 0.9537184395750797, 0.9512117035083476, 0.9486036053413254, 0.9459231684839616, 0.9431134895149664, 0.9402633938655481, 0.9372572486743267, 0.9341611409635683, 0.9308453150741757, 0.9275878739268263, 0.9243177227171834, 0.9208615454633146, 0.9173185435295536, 0.9135867771911482, 0.9098862791128349, 0.9062679733625995, 0.9023688133384824, 0.89839359760313, 0.8942328643416272, 0.8901206814138203, 0.885996396232088, 0.8817155921171632, 0.8773610014863205, 0.8727139126112247, 0.8682425095526312, 0.8639283631771546, 0.8592634192664044, 0.8545345497520614, 0.8496668725697649, 0.8448217096974507, 0.8398488015353555, 0.8348810609709987, 0.8298469514070106, 0.8247553710048827, 0.8195936990428486, 0.8144680974759333, 0.8091760193491438, 0.8038329283500512, 0.7984261003275374, 0.7929858138571565, 0.7873940033841431, 0.7818709714241505, 0.7762963078856285, 0.7707134414282168, 0.7650369526970975, 0.7592627447022429, 0.7535093362641746, 0.7477135036807809, 0.7420009838968588, 0.7361111075583407, 0.73020579292548, 0.7242568575332248, 0.7182816361163449, 0.7122743261897924, 0.7062506714252068, 0.7002861562562901, 0.6942069408253415, 0.6881118451359801, 0.6818437515534812, 0.6757393352533924, 0.6696540810598266, 0.6635027874184403, 0.6573364871720089, 0.6510129366140454, 0.6448406140924913, 0.6386715160831461, 0.632464878716547, 0.6262479280799274, 0.619940838363167, 0.6137212353482419, 0.6075558223200587, 0.6013161181245319, 0.5950779267461705, 0.5889394488110762, 0.5826983144662523, 0.5763190877024796, 0.5701240397244796, 0.5639357021719649, 0.5579624206340049, 0.5517685055928172, 0.545352522045908, 0.5392404192293272, 0.5331404434759056, 0.5269728147538165, 0.5209151625086006, 0.5150920567684244, 0.5090391813392663, 0.5030189685746409, 0.4969909180473502, 0.491043367240657, 0.4852519749564094, 0.47935513800442, 0.4735001595632083, 0.46756363745785723, 0.4618086372053497, 0.4561992662803021, 0.45050343294438444, 0.4448524794351597, 0.4391233545338203, 0.43357942778331504, 0.42813701039171376, 0.42266642081403033, 0.417242354360514, 0.41197571425534885, 0.4066339763311539, 0.4011970460669633, 0.39598624181441305, 0.390823201601508, 0.385730065886744, 0.38066450555995107, 0.37552869389104476, 0.37058656070722856, 0.36569308045332627, 0.3609326925079123, 0.35613210261541456, 0.35138360205291774, 0.34670271810243064, 0.3420822113954645, 0.3375847564311157, 0.3330798013886426, 0.3285725463971267, 0.3242092184360179, 0.31990888925490574, 0.31570670638153997, 0.31153043788423473, 0.3076685302216312, 0.30359581058422264, 0.29960490700839915, 0.2954538911669274, 0.29165229649177915, 0.2878598377600244, 0.2841942014955307, 0.2805912560195148, 0.2769354726887473, 0.27347607869289486, 0.2701240464690049, 0.2667789433031434, 0.26349913516927664, 0.26035422158334065, 0.2571990260967725, 0.2540879556131402, 0.25107941784631405, 0.2481409127810766, 0.24543049938489198, 0.24261250648437194, 0.23982564200167006, 0.2371708100095587, 0.23459000154838194, 0.23196580899092153, 0.22954574463507396, 0.22741084769174919, 0.22509429416002985, 0.2228561123599196, 0.2204406665342538, 0.21838661792701486, 0.21660503767161274, 0.21464415435749418, 0.21275626822616792, 0.21084403278523578, 0.20911067227380964, 0.20745516913155218, 0.20584806927759805, 0.2043053073586635, 0.20284702268179824, 0.201428935035851, 0.19997190877621654, 0.19869421647708643, 0.1974733668365107, 0.1963026010241573, 0.19519651124600237, 0.19412627272001765, 0.19313552986534194, 0.1921996803703804, 0.19146272631971112, 0.19061782924926016, 0.18969781327525545, 0.18899304577572054, 0.18833961837277455, 0.18782640591748934, 0.18726316995323117, 0.18663134338176496, 0.18619237878800293, 0.1857988453018001, 0.18555344062319037, 0.18523680149558971, 0.1850320150559331, 0.18480630292903902, 0.18463136709190192, 0.18439552507037435, 0.18433059808757546, 0.18434619935872915, 0.18435400636586205, 0.18440195004820864, 0.18459185308648585, 0.18470358176852397, 0.1848302990635477, 0.18502841757932814, 0.18526358480477137, 0.18536260470057506, 0.18568893256071523, 0.18614798978130348, 0.1865061656199358, 0.1868931925171665, 0.18717059878059047, 0.18762919087391985, 0.18818095224105313, 0.18866524117221753, 0.1890681899946409, 0.1896078546235734, 0.1901614992241828, 0.19086626899988962, 0.19142990366706442, 0.1919663131163424, 0.19257607569951593, 0.1932007951667246, 0.19399723546824252, 0.19462848563197468, 0.19520460605359233, 0.19588376011195904, 0.1965743796342016, 0.19719943305068427, 0.1979180459457572, 0.19865323697727388, 0.19937505564717634, 0.20009895407497516, 0.20081714412883023, 0.20154329157341083, 0.2022614721054002, 0.2029853934078592, 0.20370603556097544, 0.20455984998210566, 0.20525399999162477, 0.20576462030933682, 0.20648388672860463, 0.2071907449041307, 0.20793300996909117, 0.20860817654008643, 0.20926582873994343, 0.20991974107157113, 0.2105609690788632, 0.21114755070193963, 0.2117663019984781, 0.21248444361296806, 0.21305335435210393, 0.2136105659318765, 0.21421641151605156, 0.21473814004052078, 0.2152475386089185, 0.21574290886526573, 0.2162226871990967, 0.21666483808514211, 0.217111831294554, 0.21737332319973607, 0.2177987183874805, 0.21819227712817624, 0.21870552743855146, 0.21901768652567158, 0.21921840493119799, 0.2194964558197958, 0.21974536595282973, 0.21990320424097848, 0.22010119042510973, 0.22040337611759436, 0.2205180853329536, 0.22060791167122976, 0.22058952667553178, 0.220637249230182, 0.2205498894725572, 0.22054637016205075, 0.2205048403548707, 0.2204260422203308, 0.22031060526196847, 0.2202277121307743, 0.2200318200394946, 0.21980448136281583, 0.2196346935994285, 0.2193324369916422, 0.21890691494844758, 0.21856158111395135, 0.21818195534487925, 0.21766510947252293, 0.21723006779748455, 0.21681001786499401, 0.21628904378228084, 0.21573286709933873, 0.21516232769744958, 0.21453385255407914, 0.2139337909317601, 0.21323078458640027, 0.21249794215483137, 0.21176914921364814, 0.21097104983384066, 0.2100958896270067, 0.20924536026763116, 0.20836223161726436, 0.20737792780962688, 0.2064385467942964, 0.20555229771743014, 0.2045301303601641, 0.20347827999359283, 0.2023623648032754, 0.2012553838657839, 0.20023351779880363, 0.19904898516248362, 0.19784021196749613, 0.1964762463449474, 0.19523408084312882, 0.1938218972081547, 0.19253256359071452, 0.19120457399498317, 0.1899291179536714, 0.18851819381433982, 0.18720255241380748, 0.18572020756888125, 0.18421805496827964, 0.18253793898820933, 0.18101547561350959, 0.17949820812281123, 0.1779144438946019, 0.17630599767521227, 0.17457763160129142, 0.1729345726566087, 0.17127084816852803, 0.16957343229927713, 0.16785190141731426, 0.16627918709697218, 0.16449154120551998, 0.1626656080664552, 0.16085947729448977, 0.15904048297279078, 0.15723621875110788, 0.15538849030488927, 0.15355062939329006, 0.1516789379390211, 0.14979794844648983, 0.14780476498465314, 0.14591853417745432, 0.14408637539440225, 0.14216344570140177, 0.14023203323697586, 0.13840249631270035, 0.1364418077221079, 0.13428821853249032, 0.1323502142022414, 0.13040033429351705, 0.1284950256316897, 0.12651894020802118, 0.12456585094294784, 0.12257821489017635, 0.12058934788908879, 0.11860672650095375, 0.11661638153002135, 0.11451723200138857, 0.11254345686034034, 0.1105657780757942, 0.10864749947468622, 0.10665865296905465, 0.10465303964430542, 0.10267520668601109, 0.10070153702097588, 0.09871919187303338, 0.0967582274619113, 0.09487188820263878, 0.09291510000197883, 0.09096992054140897, 0.08909155580228015, 0.0871635364976074, 0.08517564359350725, 0.0832883971360323, 0.0814125070643587, 0.07943195454607138, 0.07759559131696975, 0.07586217724739351, 0.07402891838170393, 0.07221092992068213, 0.07031952654878162, 0.06854503904530064, 0.06695409397911739, 0.06518296880960045, 0.06343576801793566, 0.06167783350917376, 0.05998191314929348, 0.05834157313054878, 0.05668399851956069, 0.05504998709831198, 0.05337083822701649, 0.0517925428015985, 0.050350676694165306, 0.04879770935587683, 0.047272268316844335, 0.045650420697236786, 0.044194667941271, 0.042902849372483357, 0.04146925851987586, 0.040065183770492854, 0.03858722495347222, 0.037254025893118416, 0.03587489694914963, 0.034596459268184, 0.03333811736149915, 0.03213529623443671, 0.03091599186703902, 0.029865855234924295, 0.02867883549535565, 0.027525890365111334, 0.026303301916019917, 0.025229408384201815, 0.024202474619431494, 0.023179057925548825, 0.022293676925510732, 0.021312875415766503, 0.020366660868573302, 0.019378731655517265, 0.01850898584756385, 0.0175645404001703, 0.016764456463800963, 0.015987028956737037, 0.015349858162910509, 0.014605545487413553, 0.014036949555688294, 0.013337139442514164, 0.012676272905085467, 0.01204601862491837, 0.01145967436783564, 0.01083245068208928, 0.010323965532620936, 0.009844058588379077, 0.00948182678992126, 0.009047348286853942, 0.008543052427002032, 0.008187071303204901, 0.007856870724822088, 0.007703638570418596, 0.007406326418292421, 0.007232880121520629, 0.006992363719317351, 0.006789286301268955, 0.00649156678530517, 0.006375121574798073, 0.006353059236864685, 0.006279298361429366, 0.006234928904471375, 0.006301684168074125, 0.006303795984007174, 0.0062832354707835145, 0.006355647293655956, 0.006455062400756505, 0.006683990027086841, 0.006823024046236205, 0.006828784259832608, 0.007050444910044511, 0.007292095734531959, 0.0077806626806208295, 0.00803470117067318, 0.008253718872255704, 0.00858207117288543, 0.008937115425755164, 0.009352427790556608, 0.009754335121597513, 0.010313251417167973, 0.0107509635703385, 0.011220965637544397, 0.011632274009894798, 0.012173128120687413, 0.01277780928457232, 0.01335822914398765, 0.013962650534258476, 0.014693314586301335, 0.015330582452593455, 0.015961313923148437, 0.016657141144755507, 0.017376265422204627, 0.018062972667861388, 0.018833347613470972, 0.019834639265734654, 0.020614177660351365, 0.021423530165086566, 0.02232266948785366, 0.02317860914005483, 0.023802129384608177, 0.024746243366893066, 0.025700927815615233, 0.026838585580474285, 0.0277949352913728, 0.028663697201196093, 0.029677592281495843, 0.03070596796772428, 0.03183828978042776, 0.03288496384659197, 0.034006613182134986, 0.03508586550257264, 0.03618715052841188, 0.03730956609852702, 0.038452316869804264, 0.03956664652638889, 0.04075413133872078, 0.04195740453371915, 0.04324503713028566, 0.04447097579394263, 0.04566142825790093, 0.046932585383953986, 0.04821897822769302, 0.049383291730608625, 0.05071749396370432, 0.05234755757157335, 0.05366145600104013, 0.05500115084306021, 0.05640637942539552, 0.05778827792862304, 0.05908460584691068, 0.06052765020747628, 0.06198639974827244, 0.06333720700368999, 0.06484280606830047, 0.06666598925513914, 0.06815083205076941, 0.06966358238049591, 0.07105154446557603, 0.07263445431982511, 0.0740333839568497, 0.07567186345183533, 0.07731464147972446, 0.07906649773361255, 0.08071006746079584, 0.08237543866565927, 0.08404847616738081, 0.08573772675432831, 0.08740920587968012, 0.08913622723176881, 0.09097461456449431, 0.09272055179020813, 0.09448821566385011, 0.09633223118837274, 0.09813557271017262, 0.10005225552206759, 0.10189192677698236, 0.103759658824481, 0.10553764910130725, 0.10747315375077131, 0.10931068535163115, 0.11129873681142478, 0.11329962090612149, 0.1152734220763543, 0.11730889910411306, 0.11943392751217694, 0.12148923450144446, 0.1235653144169559, 0.12580681182751252, 0.12790760896046666, 0.12997684108349403, 0.13214515213836037, 0.1343388612149892, 0.13643439358354456, 0.13869456727760476, 0.14099392750857542, 0.14328979138894352, 0.14560753622426237, 0.14803031880695594, 0.1503836764455548, 0.15270391621625642, 0.15512239077569945, 0.1575660414498895, 0.15990497188704425, 0.16241707096757219, 0.1651476701629719, 0.1676749297650546, 0.17023565710395427, 0.17281575499716292, 0.1754441307980259, 0.17798075239804587, 0.1806883464238223, 0.18342077362839998, 0.1860898116558752, 0.18888617770185062, 0.19178070220565094, 0.19461429800920477, 0.19747760972682962, 0.20036436361588522, 0.2032896969062358, 0.2062597125228074, 0.20924571647917448, 0.21226440336098723, 0.21541219288098945, 0.21848498826771437, 0.22163103831341338, 0.22477682179722255, 0.2279624825547321, 0.2310363312233538, 0.23431898033014448, 0.23765194899217718, 0.2409922656836881, 0.24436502902284973, 0.2478599903039265, 0.25128782357328067, 0.25456225380443437, 0.2580916923077105, 0.26164852072350225, 0.26530954760124587, 0.2689153260822773, 0.2726042147369253, 0.2762742867886376, 0.2799825947894771, 0.2836877458476934, 0.28747714297403326, 0.29137741519973814, 0.2952281411166296, 0.2991187537786349, 0.30302814733561884, 0.30699965281427505, 0.31098789382167946, 0.3150364411527123, 0.31905207048392725, 0.3231807230931508, 0.3273411521306172, 0.33163681037556475, 0.33584910808691365, 0.33999715465279845, 0.3442993372416526, 0.3486333210289871, 0.35288956294792384, 0.35730186287272353, 0.36184345314521005, 0.366296321946945, 0.3707830426915554, 0.3754407314246537, 0.37997718860511276, 0.3843073709932903, 0.38895542268077843, 0.39362777504069096, 0.3983320723040952, 0.40305433012050135, 0.4077962654638648, 0.4125727478972021, 0.4173758112437881, 0.4222810728844265, 0.4271279430083202, 0.4318545883969983, 0.4367813806186096, 0.4417289094842222, 0.446779965497745, 0.45175961750935373, 0.4567722637869504, 0.46180262555192036, 0.4668581072650405, 0.47204088794486115, 0.47713116861477833, 0.48220869675553135, 0.48735937904582055, 0.49253290611414896, 0.4975839181973301, 0.5028178235542039, 0.5079325544955873, 0.5132055245478879, 0.5184823943227412, 0.5241004077867013, 0.5293448469480028, 0.5344422887386702, 0.5397551986631481, 0.5450782752633144, 0.5503695148835408, 0.5557156564304135, 0.5611288864335162, 0.5664772257954739, 0.5718330774958285, 0.5770373137918599, 0.5824244759810089, 0.5879233215652221, 0.5932857199023959, 0.59864957394886, 0.6040068248377793, 0.6093708648878494, 0.6147941453627698, 0.6201441069150757, 0.6254926285720033, 0.6308174155534014, 0.6361606133354463, 0.6413864156413386, 0.64672699766032, 0.6520510748879814, 0.6572826373917167, 0.6625816781229961, 0.6680229782189235, 0.673256017716134, 0.6784753396368624, 0.683535012617983, 0.6887398891299422, 0.693924667032687, 0.6990742655788388, 0.7041962104661158, 0.7095025776336298, 0.7145399832720692, 0.7194081661394849, 0.7244256177108489, 0.7294112074205755, 0.7343774987561212, 0.7392941050390591, 0.7441211320162547, 0.748974031254315, 0.7537865161831364, 0.7584272498083282, 0.763172652844268, 0.7679086633360733, 0.7725476946450732, 0.7771382948464072, 0.7815974355677011, 0.7860995604074872, 0.7906905950835141, 0.7950637376688138, 0.7993891005120343, 0.803747401498069, 0.8079618231797719, 0.8120938577561602, 0.8162142616775762, 0.8202803179778486, 0.8244344533095828, 0.8283684171063578, 0.8321618294067736, 0.8360017468062678, 0.8397800996872783, 0.8433373554266596, 0.847007723328432, 0.8508226758683233, 0.8543149038650406, 0.8577439484199464, 0.8610184552546678, 0.864326242180456, 0.8676423182121247, 0.8707905054664425, 0.8738672528296252, 0.8767267741748038, 0.8796741255756362, 0.8824962053440043, 0.885280429311845, 0.8879778454616246