0.05108203517260209, 0.05067673143900338, 0.05032613721332318, 0.049887191924365415, 0.04957338337639188, 0.04919914161069534, 0.04880293982145892, 0.0484610359676873, 0.04813278893253322, 0.047719548974570515, 0.04740123762300171, 0.047076065341395475, 0.04671245243998179, 0.04636879878153829, 0.04602242661814068, 0.04568199086064827, 0.0453927230092088, 0.045062687643933244, 0.04466198327722257, 0.044376427246987205, 0.044002666737670525, 0.043680678342509625, 0.043307177160320585, 0.043007119076813934, 0.042694271855201874, 0.042311594860765994, 0.042012799223687766, 0.041696046674202306, 0.04134100903945647, 0.041024904321697836, 0.040701979269424864, 0.04038031324462225, 0.04007781684676424, 0.03974792290373798, 0.03940790393096483, 0.03915900085335236, 0.03880576203481588, 0.03853095977564118, 0.03822528670362241, 0.037878865908178336, 0.03764134027850258, 0.03732162776645669, 0.037024082031094196, 0.03669228242461507, 0.036441999386600886, 0.0361639114194551, 0.0358704725219684, 0.035609296988185705, 0.03532679506156027, 0.035007800893808054, 0.03475926678570729, 0.034489620346282356, 0.034240806532187494, 0.03404141904067066, 0.03377715791522967, 0.03347681277794833, 0.033236416025132255, 0.03300482821907858, 0.032759387783787675, 0.03252946209859965, 0.0323017419591218, 0.032058390661772976, 0.03189547927173143, 0.03160504339004618, 0.03140622455894227, 0.031189879154414662, 0.03100436922613977, 0.03076672484110422, 0.030587204651476227, 0.03042662981227956, 0.030183324377204803, 0.030004188847724853, 0.02984863414855333, 0.029661659733614225, 0.029526613036991722, 0.029343871534255016, 0.029167149641362838, 0.029008088622507568, 0.028845671434481735, 0.028751409860228415, 0.028599082017780667, 0.028431485965591217, 0.028329276940786383, 0.028174754243717133, 0.028046244338074445, 0.027928876730840553, 0.027860347295277112, 0.027724353631593555, 0.027668871646068762, 0.027542114252650622, 0.027426035040884374, 0.027361028595875882, 0.02734074778032366, 0.02720636828207078, 0.027144771665846855, 0.02711189150693101, 0.027093833773521477, 0.027021666088851728, 0.02700014420958462, 0.026911835886610082, 0.02692635567089864, 0.026857867515194013, 0.026864315850322854, 0.026875840450146342, 0.02683726853726907, 0.02682660119708649, 0.026833127990530385, 0.026868732000821068, 0.02690974761632652, 0.02693867259501233, 0.026960875316765113, 0.027028187159888754, 0.02703256132781735, 0.027083886577035345, 0.02720325356124033, 0.027254918429631327, 0.02731001803913381, 0.02740243259914, 0.027475382797930638, 0.027574827916559776, 0.027685455624878928, 0.02780904040995925, 0.027912884420857646, 0.028045378754418503, 0.02815999437562129, 0.02834021619390091, 0.0284674368925935, 0.02861310038095129, 0.028766832233031753, 0.028928226361487556, 0.02912691201178575, 0.029309860686361856, 0.02948860675281488, 0.029722982644454842, 0.029896993486622097, 0.030110648110400158, 0.03035430265638993, 0.030603423056576675, 0.030812486842576245, 0.031064533683849337, 0.031314130504206776, 0.03161117183404869, 0.031857734128342786, 0.03212484609137935, 0.03246680046888547, 0.03269246878845999, 0.033003086051677, 0.03333133676410944, 0.03364446269475134, 0.03401207645902466, 0.034368032249159616, 0.03467193989028981, 0.03503068874899165, 0.035425815874454515, 0.03580447459564851, 0.036144972302467014, 0.03655082757601466, 0.03699389441300714, 0.03742440846257994, 0.03783678871636406, 0.03823881457021172, 0.03867121852111765, 0.03914812021390697, 0.03960028304059187, 0.040092480348205325, 0.04055780698687166, 0.04103120318776425, 0.04151235758647727, 0.04205138476829847, 0.04257244445448655, 0.043091160265548815, 0.04367135730556098, 0.04424553422630165, 0.044814545313429884, 0.045386477484045694, 0.04596341061255145, 0.04651294443515745, 0.0471909381607196, 0.04778023087965361, 0.04843173609656399, 0.04906971526912655, 0.049720424681733266, 0.05040143026083561, 0.05105250481012833, 0.05178841885294919, 0.052485009664989625, 0.05316104715165445, 0.05395441711827806, 0.05463805026500958, 0.05543874969077178, 0.056189474986474135, 0.057007115625676195, 0.057762049917035395, 0.05862425936410501, 0.059418231568283734, 0.06024646029674885, 0.0611171249654614, 0.061986365574022546, 0.06289254899258276, 0.06378367548362192, 0.06472359012541007, 0.06559697784080401, 0.0665322098786423, 0.06750157452132965, 0.06847966740706363, 0.06951060230220496, 0.07051272261659675, 0.07151068406836499, 0.07257998624005557, 0.0736006997167245, 0.07470570329733812, 0.07576635850621534, 0.07687505805436583, 0.07805187741243413, 0.07915933189950511, 0.08033163946885945, 0.08152113908176074, 0.08272456902097215, 0.08395967597757589, 0.08519239704852308, 0.08645520110659727, 0.08772900787851512, 0.08906811381126256, 0.09035517675167151, 0.0917039589772399, 0.09303111214288126, 0.0944619801222983, 0.09580826989335108, 0.09725869610872319, 0.0987146640086265, 0.1001964478058728, 0.10170185057578299, 0.10320807974014627, 0.10470536955153417, 0.10631940268114436, 0.10791308664523325, 0.10946971769213924, 0.11112159673651073, 0.11281410751343597, 0.11446661085273474, 0.11615114939378349, 0.11789270005207951, 0.11964878670823176, 0.12144742008201447, 0.12323663241144127, 0.12505676697879803, 0.1269201085604687, 0.12883142219287508, 0.13076276851597424, 0.13266346934742096, 0.13466805945578525, 0.1366134977060258, 0.13869472491746085, 0.14073317952647654, 0.1427875607591786, 0.1448882758326844, 0.14706685984905804, 0.1492092200248655, 0.15141988699443432, 0.15362330927172696, 0.1559338248174965, 0.15817655714337908, 0.16053509427443738, 0.16287056410443382, 0.16520707575096713, 0.1676720652426621, 0.17009276196319725, 0.17256029714471546, 0.17505485148907313, 0.17761294409536393, 0.18020293284333996, 0.18278342338885306, 0.1854856149680358, 0.18812863599820467, 0.1908207589885748, 0.1935859594679692, 0.1963739737891623, 0.19915464147236664, 0.20197463703687865, 0.20485866152746665, 0.2078083302489621, 0.2107422470106594, 0.2136950664520371, 0.21674355216432273, 0.2197651251982084, 0.22289890383625188, 0.22597073184733715, 0.2291325432692253, 0.23233280845096105, 0.2355751104446515, 0.2388799696482144, 0.24213450907717748, 0.24553907698125643, 0.24885648380802772, 0.25226498839743505, 0.2557306447114992, 0.25925511834741727, 0.2627656869516967, 0.26630537098372326, 0.26994154796223724, 0.2735159680185276, 0.27721655984901195, 0.28095143641901765, 0.2846680257127039, 0.28842099747736466, 0.2922420844210526, 0.29614823640525123, 0.3000114678831248, 0.30394307358867334, 0.3079017510621042, 0.311889184773332, 0.3159381349674586, 0.3200668678009226, 0.3241517229509702, 0.3283092843859749, 0.3324584033617315, 0.3366700336444805, 0.34098214795251125, 0.3452332110032989, 0.3495535772043788, 0.35393180785998474, 0.35828567604529066, 0.3627414418464711, 0.367219832064314, 0.3716773980551568, 0.37621194784189477, 0.38077228708505223, 0.385401867076708, 0.39000000465256457, 0.3946785160681739, 0.3993665073980016, 0.4040898930144313, 0.40883545152540324, 0.4136494879943363, 0.41847313471692194, 0.4233008270989049, 0.4281519413451655, 0.43306451918929195, 0.4380213498978859, 0.4429662812644383, 0.44794976738110276, 0.4529743095469816, 0.4580351375309656, 0.4630974301540199, 0.4682066853452771, 0.4733099805596753, 0.4784523650006672, 0.48359245598987904, 0.48876449781515025, 0.4940150233829033, 0.49926647467774, 0.5045132168572943, 0.5097912915377542, 0.515048903062988, 0.5203710964288331, 0.5257193330375648, 0.5310876172233728, 0.5364226665576631, 0.5418530488368263, 0.5472262554277588, 0.5526025521788674, 0.5580273503732031, 0.5635201495442758, 0.5689390914026338, 0.5743718503581118, 0.5798850570090388, 0.5853278253656649, 0.590833165450168, 0.5963119288762452, 0.6018008912787864, 0.6073063416782106, 0.6128659503142501, 0.6183734542547984, 0.6238996045196612, 0.6294090817788727, 0.6349270357627983, 0.6404540158862901, 0.6459278087865435, 0.6514981647819584, 0.6569858792378486, 0.6624691337165586, 0.6679903817252754, 0.6734841790494823, 0.6790148518267123, 0.6844754899866005, 0.6899026855296367, 0.6954082174372405, 0.7008607115434395, 0.7062397582296258, 0.7117187727101553, 0.7171216564072581, 0.7224876582582964, 0.7278610131064179, 0.7332193563851623, 0.7385522196084554, 0.7438415914960647, 0.7491891854509933, 0.7544450120811641, 0.7596921580516478, 0.7648422436593193, 0.770095686186515, 0.7751961580826169, 0.7803456227420762, 0.7854934237430963, 0.7905024331404675, 0.7955301194418443, 0.8005325743845639, 0.8055680621797204, 0.8104821268178718, 0.8153702952430442, 0.8202155837277975, 0.8250005874176616, 0.8297819745483083, 0.8345460041740711, 0.8391785661236988, 0.8438664890038107, 0.8484355627126813, 0.8529694614149744, 0.8574979009308803, 0.8619598181433479, 0.8663289665334378, 0.8706750955090572, 0.8749517847862667, 0.8791854594258384, 0.8833773029340448, 0.8875230476023372, 0.8916160573799309, 0.8955903446280256, 0.8995590117057871, 0.9034361894412251, 0.9072248370893412, 0.9110262816384702, 0.9146905403761283, 0.9183849309469884, 0.9219149818325038, 0.9254138380550139, 0.9288468332409829, 0.9322475999811545, 0.9355243930364362, 0.938743475724689, 0.9418711916629083, 0.9449534649978389, 0.9479139372492419, 0.9508912563626001, 0.953682315414964, 0.9564709079811291, 0.9591977772962752, 0.9617760128076475, 0.9642970734581207, 0.966787035529499, 0.9691493283032583, 0.9714103815438502, 0.9736532368206174, 0.9757467687540838, 0.9778283169395425, 0.979738678983466, 0.9816459640424611, 0.9833925965928672, 0.9850862083685171, 0.986656857792652, 0.9881934719310942, 0.9896628218083017, 0.9909561952450624, 0.992174602180399, 0.9933824066983135, 0.9944172595516881, 0.9954137593010205, 0.9962653173169432, 0.9970291217159757, 0.9977831000056998, 0.9983631129093778, 0.998852917937594, 0.9992927375528768, 0.9995777014834688, 0.9998117805244269, 0.9999873792294024, 1.0, 0.9999543498853147, 0.9997877075007622, 0.9995394048092355, 0.9991917024138117, 0.9987362411679589, 0.9981811154299683, 0.9975912249403217, 0.9968608062087849, 0.9960226498400543, 0.99510606502993, 0.994052822839126, 0.9930060415520757, 0.9917630095796116, 0.990505641422225, 0.9890997119252544, 0.98758052428735, 0.9859925832818142, 0.9843678812357406, 0.9825791887339956, 0.9807416462230755, 0.978790003357302, 0.9766978933283125, 0.9745877266103828, 0.9723445377714428, 0.9699951551040156, 0.9676076841625774, 0.9650915607407689, 0.9624891943148008, 0.9598129812166529, 0.957074474493037, 0.9542327800820606, 0.9512472718150708, 0.9482354509649009, 0.945130603957872, 0.941916756275956, 0.938644871674388, 0.9352669822401405, 0.9318250511902895, 0.9283444377631355, 0.9247003041910432, 0.9210549377442595, 0.9172926455191549, 0.9134009753842949, 0.9095317015307764, 0.9055387057137202, 0.9014737252949842, 0.8973264674563842, 0.8930831031419332, 0.8887979432128301, 0.8844697377741774, 0.8800690938623291, 0.8755971304357872, 0.8710666374925082, 0.8663944387054591, 0.8617550860887899, 0.8570070849651218, 0.8521978246456519, 0.8473905676101682, 0.8424268032805625, 0.8374796029589552, 0.8324766274185103, 0.8273897920561233, 0.8222459829959194, 0.8170649852912134, 0.8118017842267632, 0.806539937852689, 0.8012151775942218, 0.7958244891109857, 0.7904054302935778, 0.7849323849640083, 0.7794436951956346, 0.7739125751708145, 0.7683617922127013, 0.7627113888965082, 0.7570691825239032, 0.751448798691171, 0.7457338688761445, 0.7399374298110482, 0.7342066059672748, 0.7283912778181572, 0.7225845474865067, 0.7167863578105653, 0.7108991963400575, 0.7049755395614625, 0.69914168430289, 0.6931972948063561, 0.6872878274383158, 0.6813248528882971, 0.6753198106206162, 0.6693741297659234, 0.6634074689497191, 0.657421294482466, 0.6514411766788445, 0.6454603217961948, 0.6394823448463663, 0.6334991168527542, 0.6275484476490928, 0.621535656067896, 0.6155528589495537, 0.6096060247319462, 0.6035985965520454, 0.5976509032613442, 0.591698337549838, 0.5858075231188598, 0.5798634318101192, 0.5739443520826724, 0.5680718590985229, 0.562208494453877, 0.5564122390801437, 0.5505319062764729, 0.544745280144885, 0.5389776623993818, 0.5332292613953785, 0.5275197177574747, 0.5218955591314571, 0.5161835888434263, 0.5105950106586921, 0.504966096937531, 0.4994662311687852, 0.49390902539386206, 0.48843983005263697, 0.4829794469895874, 0.47758672749911707, 0.47222258432218756, 0.4669284401434137, 0.46168900974875804, 0.4564582401262782, 0.4512476658397795, 0.4461100153959894, 0.44102142324384935, 0.4360547568251779, 0.4310487410094897, 0.4260971568044246, 0.42121536943080035, 0.4164218187584739, 0.4117015861830572, 0.4069936434649622, 0.40231454270024225, 0.39774226154800363, 0.3931993437016713, 0.3887533172281586, 0.38429544508257224, 0.379955557728063, 0.3756715231478578, 0.3714644796061547, 0.36732053304149315, 0.36321152348800906, 0.3591774144493812, 0.35520148335200624, 0.3513544801671379, 0.34752624871592935, 0.3437214095070856, 0.3400867972847228, 0.33641276822434607, 0.3328645547604602, 0.3294068897853948, 0.32595098524139476, 0.3226690907399228, 0.31938683439238935, 0.31613142772989217, 0.31301076604181205, 0.3099772218382148, 0.30698868447505373, 0.30407963016929784, 0.30123589251366945, 0.29846648231438344, 0.2957201058989997, 0.29310478501734516, 0.29059174915978686, 0.2880979702142101, 0.28564053385080496, 0.2833013109126165, 0.28109248625126804, 0.27890185275738255, 0.27675598516198296, 0.2747117667845185, 0.2726749612818295, 0.27083539962325726, 0.268961844471701, 0.2671681800494701, 0.2655199868924164, 0.2638857789152748, 0.26227189978895493, 0.260832965763331, 0.2593602576626615, 0.25799539261633403, 0.2567353878545302, 0.255471689947768, 0.25436591535259284, 0.253248154504461, 0.2522295389099219, 0.2512375499482722, 0.25031055329098245, 0.24949606597423743, 0.24871042467495355, 0.24802070734838264, 0.2473131279054506, 0.24674680861479467, 0.24619263228289961, 0.24570909121632875, 0.245292707470786, 0.24493522427632197, 0.2446052850166949, 0.24430109929695917, 0.244116031598941, 0.24396248466360945, 0.24386292736909368, 0.24375727584701187, 0.24373860611557027, 0.243833073054518, 0.24386355715965316, 0.24400728822699277, 0.24421311923271327, 0.24438701557875991, 0.244670301018311, 0.2449856361099777, 0.24526947215000547, 0.2457015011676283, 0.24607294247905617, 0.24653208380649672, 0.24701019928208043, 0.24750839475697195, 0.24805968206387213, 0.24868439876131926, 0.24926090781417734, 0.24992344899340582, 0.2505217605433012, 0.2512226827701148, 0.2519587842229138, 0.25270154668388295, 0.25341199504859263, 0.2542093019980873, 0.2550124851500835, 0.25579755056126857, 0.2566391143909308, 0.25751525971251893, 0.25838874368932063, 0.259260547357106, 0.2600786547472922, 0.2609969587167324, 0.2618876222796815, 0.2627837889003857, 0.26369461787104936, 0.26465284263952943, 0.2655288721755768, 0.2664627642737874, 0.2673567987169401, 0.2682819263529638, 0.26918896919928004, 0.27011264613404345, 0.27102699251736767, 0.2719183009807454, 0.27282935509773637, 0.2737167454722972, 0.27462902322299415, 0.2754829416529214, 0.27633704621864613, 0.27712391046238843, 0.27796155497315533, 0.27877016125844223, 0.2795744418013807, 0.28034873268373434, 0.281114340218142, 0.2818671181262725, 0.282556520476639, 0.28328974106782373, 0.2839475540145728, 0.28457266485660515, 0.2851642431296427, 0.28578935163422337, 0.28634044956435617, 0.28685800253582067, 0.28742390068369084, 0.2878976268675119, 0.28832329142195623, 0.2887238126974353, 0.2890944964509756, 0.2894485318522161, 0.2897579716358994, 0.2901045479031467, 0.29033145532855614, 0.29053736445505624, 0.2906459183514479, 0.2907797471135249, 0.2909062249742547, 0.2909279160834748, 0.2909937632775886, 0.2909158136403505, 0.2908392019086893, 0.2907373314831911, 0.2905911524798138, 0.2903674203356364, 0.2901687310627493, 0.28983720702401133, 0.28955200584329566, 0.2891995669498948, 0.2887201901831084, 0.2882838172662965, 0.28781841910198824, 0.28719927886001617, 0.286626046957901, 0.2860167232795953, 0.28532134527267555, 0.28458181711596614, 0.28376495529521023, 0.2829595699104779, 0.2820791543483258, 0.2811597397949194, 0.2801473335087168, 0.2791606161742603, 0.27809474144890206, 0.2769730828720429, 0.27585719080944826, 0.27461715806461645, 0.27337274238182013, 0.2720912454957814, 0.27075232723386794, 0.2693664768754471, 0.2679442139507009, 0.266489206599776, 0.26494564974964746, 0.26338652483749475, 0.2617761943523293, 0.26010350478729055, 0.25840517997929197, 0.2567248171511991, 0.25491727507296313, 0.25307051656713486, 0.251239979533085, 0.24933907675053854, 0.24736109281902022, 0.24541698693712122, 0.24335224664753513, 0.24128031818915413, 0.23921062363727721, 0.23710140331393312, 0.23492341811194425, 0.23273797665822543, 0.23045977664768358, 0.22820883410548198, 0.22591673124312273, 0.2235771928216748, 0.2211613220973787, 0.2187873430975907, 0.21637458653966415, 0.21386984475112847, 0.21140990879735608, 0.208911382780503, 0.20631703623980913, 0.20380061800377552, 0.20120074658337167, 0.19852826799573448, 0.19589792431982814, 0.19324749083787637, 0.19056454012991086, 0.18792464583110088, 0.18516024989382557, 0.1824104791340389, 0.17965305756726757, 0.17689249829291498, 0.17409764388502202, 0.17135026945180012, 0.16851009929661193, 0.16570549699836645, 0.16284572771961103, 0.16002781469207844, 0.15712765782238652, 0.15426887534502068, 0.15145724682490985, 0.14858907228255014, 0.1457232864871318, 0.1428274602737628, 0.1399397204248741, 0.13706794695200708, 0.13423218640686188, 0.13135512505373398, 0.12852082711530805, 0.12563075227199325, 0.12277551166128849, 0.11993155064564294, 0.11711887839764994, 0.11430639565626859, 0.11146691370443654, 0.10867212837121282, 0.10583332273514326, 0.10304931429632498, 0.10034095602052144, 0.09754242833103471, 0.09487536311385658, 0.09209558733452289, 0.08945373113809295, 0.08680387906325569, 0.08409532648754925, 0.08153192398233558, 0.07887923392297616, 0.07634165707398269, 0.07380860859476167, 0.07128473594375978, 0.0687674296965975, 0.06630495774772632, 0.06392144167987691, 0.06152115302829147, 0.05915086765673814, 0.05677204118500691, 0.054524278834664694, 0.052223398638425005, 0.05003669562017608, 0.04786706755540518, 0.045713251341820145, 0.04359137771179783, 0.04153753905753528, 0.03949407842670985, 0.037561739508206196, 0.03562296106663793, 0.033687250965270386, 0.03189402139336151, 0.030048971217192386, 0.02832060417883205, 0.02665140958669345, 0.024937685220545725, 0.023344532941770017, 0.021834877529645188, 0.020272291815781163, 0.01885190281420226, 0.017415816865127307, 0.016128422086216832, 0.01481970116953481, 0.013531001993090597, 0.01238635386952774, 0.011214317465500228, 0.010149654426676829, 0.009181462302898544, 0.008188233867118078, 0.007325023049637549, 0.0064770280612434375, 0.005695625030020759, 0.004973620233997445, 0.004311675806559426, 0.003719819881555857, 0.0031818146137557427, 0.002641076191305146, 0.00224682493356804, 0.0019173657626576526, 0.0016216695051134357, 0.0014229118642290956, 0.0012463776967132827, 0.0011009377827755449, 0.0010945059199071994, 0.001129395378080783, 0.0012219803507186446, 0.0013775003445972234, 0.0015858601259633655, 0.0018792867875276496, 0.0022532160142459596, 0.0026471779961583317, 0.0031329033745314057, 0.003659654339470688, 0.0043301506056924255, 0.0049814657219943315, 0.005761552089333013, 0.006528157669524325, 0.0074354872702568015, 0.008342385247925996, 0.00941162801352531, 0.010450615821616107, 0.011567001480907078, 0.012829551184354873, 0.014097985185247231, 0.0154484182235113, 0.016812395636061725, 0.01830846978721744, 0.01982752639804465, 0.02145501409533414, 0.02307673699850491, 0.024878462630707872, 0.02663691686631755, 0.02848534591162916, 0.030471679990630784, 0.0324107685020446, 0.03451654635173285, 0.0366088745009649, 0.03875754827594804, 0.04102508021029764, 0.04336057307672392, 0.04571270732504498, 0.04810138916925107, 0.050608904754458124, 0.053139256357301275, 0.05577063085333427, 0.05844038475627793, 0.061181950608946656, 0.06398261354980149, 0.0668139217698938, 0.06972824554377034, 0.07270129608246924, 0.07576381185784072, 0.07884932210574819, 0.08198102770564442, 0.08515792593431938, 0.08842972545533087, 0.09173256696691544, 0.09504925614767021, 0.09851046310087229, 0.10196741599369609, 0.1054884775340382, 0.10908784509083476, 0.11265207043351175, 0.11635966537215188, 0.12007417574340296, 0.12388527351979677, 0.12773018211610726, 0.13157247474465747, 0.13554147966961344, 0.13951585362491234, 0.1434813827149896, 0.14760242631912526, 0.1517268468010033, 0.15585966430246764, 0.1600348662082282, 0.16431559683488106, 0.16858778363339855, 0.1729518295862927, 0.177320112558123, 0.18176901386189262, 0.18621212877466525, 0.1906637495229938, 0.19521564197178337, 0.19977869582172847, 0.20443219584505049, 0.20905651326162025, 0.21376413855863932, 0.2184579966631091, 0.22322717174304743, 0.2280236084902091, 0.2329061658949255, 0.23773817383811965, 0.2426045270512598, 0.24752840739029142, 0.2524943010063129, 0.25752890436259884, 0.26248699649554663, 0.26757435890405495, 0.2726665839743846, 0.2777541699806783, 0.282883535995209, 0.287991087671984, 0.2932255392041571, 0.29843581929084984, 0.30361202512450647, 0.30887426872206636, 0.3141872327790927, 0.3194866569797656, 0.3248053085546051, 0.33013049024194635, 0.335504825705549, 0.3408915455497105, 0.3462956636368222, 0.3517146170518585, 0.3571638521216926, 0.36262556577435207, 0.3680557583029544, 0.37354469740993573, 0.37905314317567274, 0.3845588318661995, 0.3901124731697724, 0.3956454357757471, 0.4011534909721398, 0.4067466560209514, 0.4123027304779316, 0.4178531997755761, 0.4234542967137617, 0.4290943536266498, 0.4346312966134632, 0.4402533953247429, 0.44592578700466273, 0.45149630349467385, 0.4571482894368612, 0.46275945212555547, 0.4684173855022859, 0.47404853044780276, 0.4796852155728786, 0.48529509981303376, 0.4909777445769477, 0.49657388198206326, 0.5022331949037476, 0.5078780918782053, 0.5135113992007633, 0.5190984346654899, 0.5247384805804551, 0.5303936311060852, 0.5359744191745659, 0.5415962802431081, 0.5472017869737723, 0.5528368412440244, 0.5584161271576747, 0.5639570848027519, 0.5695692274762201, 0.5751151628217689, 0.5806739305960864, 0.5862357549727344, 0.591770067254177, 0.5972612288618292, 0.6027304936943358, 0.6082411984378999, 0.6137547311525647, 0.6191554445837678, 0.6246453050854002, 0.630037452105058, 0.6354897406980495, 0.6408652921836883, 0.6461901867319324, 0.6515822154708385, 0.6568989112917404, 0.6622468030547547, 0.667485208756048, 0.6727632057157361, 0.6780648110261457, 0.6832365463164778, 0.688422355124353, 0.6936466817902209, 0.6987459492683038, 0.7039058330155629, 0.7089419093959751, 0.7140340273709723, 0.719068823446785, 0.7240391490543802, 0.7290510041836744, 0.733959338740103, 0.7388817418354475, 0.7437875507662777, 0.7486304354459205, 0.7534377672460915, 0.7582161821091763, 0.7629284939257966, 0.7676484271207846, 0.772325702841528, 0.7769612562405337, 0.7815884513100725, 0.7861445521386636, 0.7906603367029514, 0.7951653417740266, 0.7995513060780529, 0.8039874934706162, 0.808346371071141, 0.8126048310320272, 0.816879143703958, 0.821094537319777, 0.8252938208889324, 0.8294643189169476, 0.8335215696982731, 0.8375447451196323, 0.8415798512959595, 0.8455373372472917, 0.8493634454299597, 0.8532290791131667, 0.8570534899311415, 0.8607754113185638, 0.8645195481901536, 0.8681506129680852, 0.871724331020229, 0.8752676604812331, 0.8786860122269587, 0.8821141862723186, 0.8854825776573299, 0.8888065008476405, 0.8920474971421303, 0.895262991983575, 0.8983893624555505, 0.9014844643701835, 0.9044554404104295, 0.907446100014064, 0.9103622844409639, 0.9131346913862992, 0.9159657370135694, 0.9186739547093253, 0.9213108944158394, 0.9238633170036359, 0.9264003592415123, 0.9288492229453019, 0.9312114112715425, 0.9335656866530689, 0.935761568296023, 0.9379581181494631, 0.940099590317411, 0.9421063486338704, 0.9441205115457327, 0.9460325257861014, 0.9478356421248894, 0.9496005943041301, 0.9512686790977847, 0.9529563885913978, 0.9545038656855209, 0.9559316917743163, 0.9573232085682872, 0.95867813941509, 0.959944109923923, 0.9611595981742647, 0.9622388608289605, 0.9632330040949022, 0.9642054389978394, 0.9650709527286903, 0.9659054124934119, 0.9665989232509442, 0.9672811350953183, 0.9678600732862649, 0.9683384086349365, 0.968717019516116, 0.9690568435105159, 0.9693045403959875, 0.96953379154422, 0.9696450965650057, 0.9696333769687016, 0.9695651039640926, 0.9694610288556219, 0.9692166539530364, 0.9689557495265086, 0.9685380321002723, 0.9681361466603329, 0.9675562982991152, 0.9669495207842902, 0.9662629602420322, 0.9654762399362388, 0.9646810923503029, 0.9636874449905356, 0.9626610132007628, 0.9615920833660988, 0.9604254264368907, 0.9591698513928375, 0.9577991751205831, 0.9564091169524338, 0.9549579867507639, 0.9533255329095258, 0.9516759802773372, 0.9499600166618203, 0.9481428963149003, 0.9463187559528959, 0.944335168509867, 0.9422541136454928, 0.9401879317173883, 0.9379755218896682, 0.9356813887796417, 0.9333794077644801, 0.930940492981865, 0.9284117947098022, 0.925821198088301, 0.9231735286735586, 0.9204734275697344, 0.917718438552286, 0.9147890651866248, 0.9118663553059587, 0.9089079876851373, 0.9057621678203991, 0.9026346570487379, 0.8993897522020501, 0.896157827153909, 0.892770545348689, 0.8893503022209819, 0.8858420317987514, 0.8822834171493376, 0.878688325125542, 0.8749428589783036, 0.8712377114545808, 0.867369568246681, 0.8635204118504866, 0.8595922077582406, 0.8556068897788662, 0.8515043018759169, 0.8474161002274624, 0.8432256842218815, 0.8389595931683057, 0.8346817288257962, 0.8303510857911618, 0.825968611487356, 0.8215415712895252, 0.817000518125374, 0.8124686957153237, 0.8079120566937376, 0.803258207106034, 0.7985562807887608, 0.7937675696883538, 0.7890382951664403, 0.784212372543585, 0.7793297722450062, 0.774378697564687, 0.769480055583635, 0.7644595094948309, 0.7594112247329431, 0.7543828670820347, 0.7493070034010748, 0.7441426233933215, 0.738997661238488, 0.7338161211615067, 0.7285472773119723, 0.7232968801048704, 0.7180779958313158, 0.7127155398573431, 0.7074480717543796, 0.7020863836761257, 0.6966965599557696, 0.6912717302106616, 0.6859123916860178, 0.6804541290027213, 0.6750139752869208, 0.6695613266712068, 0.6640513878235087, 0.6586003259052282, 0.6530530371331288, 0.6475896734392579, 0.6420928436262362, 0.6365492445523324, 0.6310022036427887, 0.6255337529588392, 0.6199750894446014, 0.6144427156193104, 0.6089208878857456, 0.6033680515942909, 0.5978501356961534, 0.5923641585802372, 0.5868510453201489, 0.5813666160252672, 0.5758052714650723, 0.5703846438745231, 0.5648643552164342, 0.5593989317215744, 0.5539937861756045, 0.5485824319003224, 0.543159329830904, 0.537765774019942, 0.532396864367364, 0.5270243555492357, 0.5217366539513995, 0.5163923262556381, 0.5111625842953361, 0.5059073963119218, 0.5006446252028957, 0.4955109451524337, 0.49035827765355045, 0.4852340099150065, 0.4801024221279544, 0.4750412030719822, 0.47004836155027147, 0.4650724156211116, 0.4601176281219806, 0.45519609336045147, 0.4502967336811958, 0.445493583696724, 0.4407250627385342, 0.4359295567163316, 0.4312693139211793, 0.4266006302541965, 0.4219709346735969, 0.41747038306834283, 0.41292190251565875, 0.4084991480204313, 0.404060347397126, 0.39970909443100333, 0.39542683763521713, 0.39118599563164574, 0.38693106285645057, 0.38277939563525504, 0.3787547574528495, 0.37466184015926335, 0.3707463269486817, 0.3668270719934949, 0.3629104178688947, 0.3591081133551796, 0.3553643904950264, 0.3516891587343419, 0.3481199809092488, 0.34455171922817857, 0.34107168175140856, 0.3375895376263076, 0.3342240574660181, 0.3309564604185322, 0.3277339269927233, 0.32451788117217395, 0.3214118649918377, 0.31836961914695844, 0.3154034540544285, 0.3125163297408567, 0.30963349819051805, 0.3068224847143463, 0.3041637747703309, 0.30146710440005825, 0.29893736837214296, 0.2963740353017842, 0.293951258729339, 0.2915234551372734, 0.28922669548317065, 0.2870203822125536, 0.28482304905965034, 0.28267903372002595, 0.28067548100339357, 0.2787061629151677, 0.2767833051066479, 0.2748986971982223, 0.27313990407151073, 0.27139603856270167, 0.269782961972984, 0.2681793395632189, 0.2666671804918556, 0.2652176761852311, 0.26383267284654144, 0.2625120095398713, 0.2612221669025008, 0.2600254890612668, 0.25887948573112396, 0.2578180229366805, 0.25676791400040655, 0.25583768547746993, 0.2549756584551103, 0.25412602477149276, 0.2533515184781711, 0.25264397054704535, 0.2519833437221439, 0.2513645754995968, 0.2508293855710343, 0.2503084454529409, 0.24988596613669495, 0.24953821287436964, 0.24916426725146568, 0.24892345666756283, 0.24867013032260257, 0.24848385168183182, 0.24836439300089364, 0.2483019558432604, 0.24824629956435584, 0.24825937938098833, 0.24837808855925136, 0.24842307670007768, 0.24861111705250752, 0.2487552872945563, 0.24899309587750063, 0.2493079234379283, 0.24959475859119457, 0.24997883960934686, 0.2503013679513296, 0.25072795272609966, 0.251188729826335, 0.25167103781298233, 0.2522064786621124, 0.2527453978121857, 0.2533600953449002, 0.2539830966709468, 0.254549865544034, 0.2552493329125296, 0.2559019018811796, 0.25667334696230076, 0.25738505841784076, 0.2580967484344556, 0.25892853486374257, 0.25967861830539696, 0.26049217955065346, 0.26131380529166254, 0.26220546201785694, 0.26304750425432094, 0.2639058307513419, 0.2647866756891806, 0.2656559457026131, 0.2665418822132662, 0.2674775866064063, 0.2684031570642847, 0.2693066801172247, 0.27020100559130644, 0.27110395642728147, 0.2720597943138303, 0.2729160361525309, 0.27384859253219695, 0.2748082799460386, 0.2757098251767401, 0.2766116178661689, 0.27745593124672796, 0.2783923866112048, 0.2792333583903832, 0.28014028408982256, 0.28099640390239555, 0.28184583459237417, 0.28268007002977064, 0.2834734510216754, 0.2842928482727443, 0.2850204999171377, 0.28583111134114064, 0.286562031999221, 0.287267658996108, 0.28797767530417484, 0.28861151399796425, 0.2893202229613032, 0.289934648043595, 0.29048459949743444, 0.29107631681458135, 0.2916353151048654, 0.29215286169813753, 0.29261786185532823, 0.2931168092367847, 0.29354817082586115, 0.2938973676295957, 0.29429927268263584, 0.2946162909043781, 0.2948486129455282, 0.295127840542674, 0.29535510168471574, 0.2955469940202869, 0.2956841438649547, 0.2957674614003335, 0.29578759377324526, 0.29586176110785806, 0.295830656013018, 0.2957775525181222, 0.2956722695610231, 0.29552854604704326, 0.2952990649339692, 0.2951198252402593, 0.2948517506838512, 0.2945380265572479, 0.29416149972367966, 0.29373713190311873, 0.29328391691593353, 0.2927699003552505, 0.29226108710054527, 0.2916767595028962, 0.29103453635521437, 0.29031105504811416, 0.2895793657596288, 0.28884463001930677, 0.2879516109972775, 0.2871126524196604, 0.28617789621006146, 0.2852379991613996, 0.28415654883231745, 0.28308941543033883, 0.28203971566178065, 0.2808679430480835, 0.2795988439066735, 0.2784114388474905, 0.27705005217684003, 0.27570520641359086, 0.2742975307478182, 0.27291335771148256, 0.2714064675159456, 0.2698564587829972, 0.2682651629717905, 0.26665646815704835, 0.26493139194413634, 0.26326295933902033, 0.26143513352520226, 0.2596725510986364, 0.2577926837335099, 0.25592580699860723, 0.25396697027160153, 0.25197170969274185, 0.2499934659038912, 0.24792302183952492, 0.24577738396435692, 0.2436446883781288, 0.2415122401494219, 0.23929375593422678, 0.2370156610171943, 0.23468226971105582, 0.23240545276248356, 0.23001716990457985, 0.22759431100465635, 0.2252030564084168, 0.22273509275595613, 0.2201751298522371, 0.21768285328102405, 0.21511653583139165, 0.21252174729194587, 0.2098691135522761, 0.20728146994386473, 0.2045933849830753, 0.2018440849205322, 0.19912699994609276, 0.19642903084395363, 0.19361037716513807, 0.19082867286416796, 0.18807364505698965, 0.18519413684346814, 0.18233859170892536, 0.1794656534205691, 0.17657466458045942, 0.173675173751237, 0.17077113483551407, 0.1678769535939706, 0.16493131209264303, 0.16198566002015957, 0.15902973764990147, 0.15602228644494315, 0.15304346042518766, 0.15011108328638642, 0.14713373464590232, 0.14415991272507186, 0.14117462668390016, 0.1381451965418925, 0.13517898193344222, 0.13221201580987, 0.12924753818406237, 0.12627576880783836, 0.12332893413645099, 0.12034436618463358, 0.11739046234396672, 0.11445316390669051, 0.11152774718920115, 0.10863160545861907, 0.1056645705638696, 0.10277222442719944, 0.09992523745723293, 0.09709467850314533, 0.09422553635643341, 0.09140784027442984, 0.08860433511166255, 0.08584931376238399, 0.08308486372118822, 0.08034383479506385, 0.07769110470439682, 0.07501116704512553, 0.07234741525095637, 0.06974874713194755, 0.06712134951981587, 0.064618075576514, 0.06208635629536222, 0.05961432443889331, 0.05712630015303342, 0.05475500870363489, 0.05234112201664996, 0.05001748620060751, 0.047752217306337295, 0.04546997635150038, 0.04327587749060039, 0.041100196084652534, 0.03899660020939966, 0.03690448616237775, 0.034840420074785806, 0.03291381525218837, 0.030935617816942703, 0.02908316441452934, 0.02723717504866809, 0.02547030236220062, 0.023780077039311336, 0.022081046549469165, 0.020460279695494122, 0.01886769418625728, 0.017368763689008863, 0.01596298127702639, 0.014515228872095701, 0.013190193239645962, 0.011905212385881764, 0.010720434731638301, 0.009535524510041653, 0.008496711644278721, 0.007413370819433635, 0.0064995283783251066, 0.005610926695443654, 0.004714491785095336, 0.0040012174992660274, 0.0032661914455127143, 0.0026721239921180017, 0.002086273811743004, 0.001577770280005623, 0.0011298546309015305, 0.0007809583650659914, 0.000502085603859513, 0.0002946230190791246, 0.00013157392462822997, 4.4502409365801106e-05, 0.0, 5.7912525901781904e-05, 0.0002193307025290974, 0.00041962925538391446, 0.0007397863156605858, 0.0010382631813032317, 0.0014916730671547627, 0.0020218081159660787, 0.002573376297696474, 0.0032167199638594973, 0.003945209810800243, 0.004756965343762968, 0.005624081297302633, 0.006518107286575254, 0.007595691557159205, 0.008659440539621067, 0.009823256760338912, 0.01106445234041232, 0.012435139242890445, 0.013795331116470631, 0.015267152562965068, 0.016806287781652718, 0.018393053841384427, 0.020093276690591255, 0.021864979081473147, 0.023729564536150955, 0.025646777560175568, 0.02762779499664011, 0.029707737748690864, 0.0318496280198641, 0.03403765492527686, 0.03635536259117512, 0.038699027624657566, 0.04108236729655853, 0.04359113489929972, 0.04618041372738663, 0.04878836637945823, 0.05155356146914876, 0.05433493812487326, 0.057183075673078586, 0.06008682951834307, 0.06305843066929022, 0.06613675387708279, 0.06928884586268252, 0.0724250600205651, 0.07570013892964099, 0.07907259606514053, 0.08247427281022326, 0.08590914146067441, 0.08947436490603111, 0.09299733566501538, 0.096696379008279, 0.10037023511440052, 0.104151655464086, 0.10802377486985798, 0.11186894155986392, 0.1158294225777379, 0.11986382075853792, 0.12397006953857172, 0.12804913460420494, 0.1322367447389817, 0.1364747608174237, 0.1408135525209317, 0.14513681278685148, 0.14951913078949636, 0.15397351320344924, 0.15849906123553678, 0.16305446058278664, 0.1676782160725479, 0.17235145803145907, 0.1770099936673814, 0.181755519485833, 0.18656483714789254, 0.19143892281683889, 0.19630143124072028, 0.20124420443648305, 0.20620524256029918, 0.21120938410941725, 0.2162328349522711, 0.22136357336248622, 0.2264707488735195, 0.23160920873589955, 0.23681557400214534, 0.24207246470838012, 0.24732296408360302, 0.25264182221023107, 0.257995500985573, 0.26332593465723136, 0.2687119615520607, 0.27417747589494046, 0.2796013135756774, 0.2850951131503427, 0.2905687003663321, 0.29612423440785124, 0.30165017144935696, 0.30718556085528836, 0.31282573607880126, 0.3183831803716239, 0.3240244046688683, 0.3296919625632081, 0.33534455683124514, 0.34101476519797747, 0.34668143022457887, 0.3523704227201682, 0.35806457567572714, 0.36380237550215916, 0.3695870232991962, 0.37526914437172837, 0.3810614619049687, 0.386802706916188, 0.392548530099032, 0.3982725932066456, 0.40408169003827304, 0.4098262205594984, 0.4155846575603001, 0.4213202414723512, 0.4271256288542829, 0.43287182612936703, 0.4385882502167729, 0.44434456856240145, 0.4500615119508652, 0.45577858101075674, 0.46151501902665465, 0.4672438493099842, 0.47290471821462, 0.4786022329272732, 0.48430324830057103, 0.4899554874329239, 0.4955895015688097, 0.5011695176170152, 0.5067706886442982, 0.512414213511733, 0.517921506346253, 0.5234611779429088, 0.5290276895993359, 0.5345179407312493, 0.5399982043526205, 0.5454065886603272, 0.5508694457804976, 0.5562529447884967, 0.5616092350401442, 0.56690631796871, 0.5722261035731918, 0.5775032116637311, 0.5827012694552295, 0.5879080661801022, 0.5931216875106066, 0.5982641118483983, 0.603309941529772, 0.6083601700877896, 0.6134238756253197, 0.6183747739115436, 0.6233123504098271, 0.6282607196790444, 0.6330390187445862, 0.6378707474301831, 0.6426194757249768, 0.6473477728639075, 0.6520171118992586, 0.6566869053872741, 0.6612090549769699, 0.6657721316127383, 0.670199166696607, 0.674650471360649, 0.6790432373843133, 0.6833389023036956, 0.6876096675724929, 0.6918167883832117, 0.6960145533077012, 0.7000943685839647, 0.7041392145774272, 0.7081786206891628, 0.7120940139308606, 0.7159493676510462, 0.7197997140659144, 0.7235367281218239, 0.7272011063095505, 0.7308479912882185, 0.7344309670791767, 0.737929910750886, 0.7413882979107856, 0.7447287916820037, 0.7480618743784669, 0.7513007804333279, 0.7544934542879325, 0.7576373607229047, 0.7606921201725799, 0.7636532151099721, 0.7665820345564657, 0.7694144555886909, 0.7722068731091322, 0.7748619075627348, 0.7775305729145132, 0.7800748662834882, 0.7825828921418035, 0.7850162768184189, 0.7873200008229191, 0.7895726142135004, 0.7917932191413602, 0.7938896682673161, 0.7959952672597957, 0.7979673233411861, 0.7998477543660566, 0.8016444200837647, 0.8034267970115518, 0.8050645453426275, 0.8067011598243994, 0.808189952762109, 0.8096078764932911, 0.8109717245642951, 0.8122584756585505, 0.813473313139978, 0.8146497278403965, 0.8156383689526373, 0.816665463997291, 0.8175222213799482, 0.8183006496158162, 0.8190949390553859, 0.8197332795843796, 0.8203014815016447, 0.8207378289855267, 0.8211503385021508, 0.8215212023676731, 0.8217412773071633, 0.8219273889517816, 0.8220500872820197, 0.8220831590931273, 0.8219689539939917, 0.8218280409024308, 0.8216409178944911, 0.8212769118978918, 0.8208938863263154, 0.8204232775134637, 0.8198907167099266, 0.8192617015925487, 0.8185885308531384, 0.8177352248609716, 0.8168778072382792, 0.815973395656022, 0.8148872450170195, 0.8137925275443587, 0.8126005153776996, 0.8113796122883513, 0.8100367348907214, 0.8086048409647725, 0.8071017948469329, 0.8055333373535626, 0.8038686105035889, 0.8021589480141297, 0.8003340579919591, 0.7984288190548628, 0.7965339680832714, 0.7944846564390051, 0.792369220157965, 0.7902048067855262, 0.7879389187523456, 0.7856100745535806, 0.7831903977729984, 0.7806704031733607, 0.7781633811715272, 0.7755221560222405, 0.7728742769833344, 0.7700884248904968, 0.7672763985196794, 0.764376809095589, 0.7613833292651578, 0.758353800291373, 0.7552194977703128, 0.7520661184616426, 0.7488444037661041, 0.7455060123428825, 0.7421722147299378, 0.738740970448479, 0.7351831097870081, 0.7316343448041718, 0.7280352206296096, 0.7243698409504581, 0.7205933375931246, 0.7168049077985087, 0.7129015716291105, 0.7089991319729084, 0.7050533487296047, 0.7009923148874571, 0.6969156933095567, 0.6927239965744778, 0.6885207900516908, 0.6843031774609033, 0.6800091110340655, 0.6756705389786153, 0.6712152641837924, 0.6668112224821424, 0.6622753773751574, 0.6577595348226328, 0.6531310819042062, 0.6484918270828272, 0.6438366446652029, 0.6391090471542135, 0.634346530624216, 0.6294898239753512, 0.6246958841875038, 0.6197909090827468, 0.6148648893367131, 0.6098867218182862, 0.604889379972604, 0.5998978374679512, 0.5947935126617341, 0.5896851684061019, 0.5845621808063521, 0.5794630155518586, 0.5742792772054331, 0.569047554409807, 0.5637991239246551, 0.5585117098995063, 0.5532718237181166, 0.5479390024202881, 0.5425701385605929, 0.5372097220378922, 0.5318399359303112, 0.5265047001664238, 0.5210334906649638, 0.5156158199497684, 0.5102045583178021, 0.5047583941531438, 0.49925399444239776, 0.493757107943889, 0.4882868370316802, 0.4828272525536681, 0.4772848999173823, 0.4717697845804295, 0.46627699066060707, 0.4607713151946918, 0.455214384178507, 0.4497537239107479, 0.44417143987412994, 0.43864221928875297, 0.43317476701215385, 0.42760635968594485, 0.422119607305581, 0.4165802039265292, 0.41111823571692196, 0.4055669021110227, 0.40014165284612446, 0.3946559684515417, 0.3891525802075985, 0.383723638383589, 0.37829850919744995, 0.3728590335408745, 0.3674931236839833, 0.3621160450878385, 0.35670449468373555, 0.35135955206676134, 0.34604421659917806, 0.3407785379371474, 0.3354600146706273, 0.3301743445938818, 0.3249958837945047, 0.31973929250841154, 0.31453654811719844, 0.3094180328623797, 0.30428732400340225, 0.29917416281515957, 0.2941215205687146, 0.28910706488524274, 0.28403860984007906, 0.27911107549310815, 0.2741602999152425, 0.26931809522508077, 0.2643998290338422, 0.2596160969024595, 0.2548333663177692, 0.2500492596038294, 0.24536995918163734, 0.24071221964797176, 0.23605082792957877, 0.2315132278327816, 0.22696902068041924, 0.2224508041513574, 0.2180281337733594, 0.21360549891870262, 0.20926368527241115, 0.2049032921899155, 0.20065940985234793, 0.19643309629271102, 0.1922499750034376, 0.18818474249176106, 0.18409301399031788, 0.1801003568379877, 0.17612873197698153, 0.17216130576997976, 0.1682940162612192, 0.16453543109227262, 0.16074420030964764, 0.15706642460419526, 0.15341715774317807, 0.14979448055376507, 0.14621586847247514, 0.14273382253111203, 0.13935532792400013, 0.13591801891275565, 0.13258601039261897, 0.12931946784213935, 0.1261525266429942, 0.1229365007857209, 0.1198833375932421, 0.11682361801904903, 0.1138211289694133, 0.11088542266326147, 0.10802255383202788, 0.10518869697458767, 0.10242843029767591, 0.09977686154655958, 0.0970785721626826, 0.09451824099754334, 0.09200879782943118, 0.08949324340021739, 0.08707444310631304, 0.08469197218494924, 0.08244271600749742, 0.08013097793816781, 0.07793654539187675, 0.075849682458663, 0.0737678425213569, 0.07171905748298914, 0.06970764187098454, 0.06783637236025498, 0.06593465628281157, 0.06414223263344408, 0.062431828408774745, 0.06072158978596926, 0.0590917686741033, 0.05746547305256207, 0.05592482826029514, 0.054416794746243335, 0.05298168038762279, 0.05157607042118084, 0.05024220024186705, 0.049007183389926455, 0.04775987001029046, 0.04651179515129279, 0.045367978443775756, 0.044306892328201224, 0.04325717163273207, 0.04219118476859856, 0.041234043640839345, 0.04037687071137485, 0.03950074715693682, 0.03860789992990368, 0.03783798077482471, 0.03712264681907789, 0.03642948113447351, 0.0357101718298202, 0.035090733566311545, 0.03451406841909227, 0.03395013957884342, 0.03346285414796611, 0.032944777808566895, 0.03248740558540442, 0.03207745056799919, 0.03169069903159698