0.03374222804805885, 0.03342802670386997, 0.03307615324676541, 0.032809455460018434, 0.03257482279028536, 0.032325066935431156, 0.03210436935079326, 0.03195844653011997, 0.03171483073740717, 0.03157099619090187, 0.03141721515218994, 0.031218420229681163, 0.031085912940780197, 0.030944911265709127, 0.03083597523926211, 0.0306337252229765, 0.030527116944541587, 0.03037124473154768, 0.030304202772527163, 0.03018294952714394, 0.030003042924568003, 0.029903922194773832, 0.02979380826604918, 0.02968209196947254, 0.02961879096551614, 0.029472369955526434, 0.029390431277066816, 0.029341000093450326, 0.029218398493749447, 0.02912126797802072, 0.029052888331235784, 0.029049382021916256, 0.02893428885250613, 0.028893122996141, 0.028856611046805068, 0.02883025227601836, 0.028849783190071473, 0.0288120095114225, 0.02879894114521649, 0.02877336005583317, 0.02883947608307145, 0.02885148567504027, 0.028858016275338846, 0.028899225761227904, 0.028991444971131746, 0.029032655394014065, 0.029115516716392106, 0.02925617086197023, 0.029332432956144808, 0.029437645705478854, 0.029600982474190383, 0.02974823034902514, 0.029841127574492407, 0.030021491494552254, 0.030216834973414475, 0.030433531925134538, 0.030659331931779304, 0.03083330351478189, 0.031082336881144347, 0.031344697090413175, 0.031588389467513446, 0.03193079948906276, 0.032190043370765295, 0.03252752180370332, 0.03279911517366816, 0.03317178642100816, 0.03347804350882181, 0.033890601895164005, 0.03426165766714898, 0.034696360319935844, 0.03510435605008523, 0.035503727887383006, 0.03596671746564254, 0.03643376496048218, 0.036966064956680963, 0.03742751210329715, 0.037957368155609975, 0.038493284737887934, 0.039052469805333695, 0.03964789421013294, 0.04021850722359555, 0.04080634621362915, 0.04142738406943227, 0.04211569628463858, 0.042774887705672136, 0.043393099954853465, 0.04413056593240011, 0.04489004302794312, 0.045601584236124405, 0.04632999412448346, 0.047172734202826694, 0.04796302639574638, 0.048749163824005445, 0.049611303538120086, 0.05048724585483707, 0.051334306700423694, 0.05225187364163644, 0.05318409638467157, 0.05409415097735436, 0.05509666058782669, 0.056054730131839606, 0.05711103188303504, 0.0581141423189579, 0.05914079710795769, 0.060256953768126155, 0.06131577644305883, 0.062455092779609735, 0.06363300834920692, 0.06474471366615474, 0.06598431443372134, 0.06716102989816979, 0.0683925355475143, 0.0696669681525919, 0.07091987931753778, 0.0722230033517066, 0.07352356599259184, 0.07489746090558173, 0.07630356087139369, 0.07765831493352789, 0.07912797149601332, 0.08051035832807137, 0.081976324089008, 0.08347272492467117, 0.08501434942776838, 0.08653335328229297, 0.08808287957998916, 0.08971890085893106, 0.09125459085556856, 0.09294078315036464, 0.0945577739906099, 0.09621224777122449, 0.0979556593468522, 0.0996773536128677, 0.10137722227108573, 0.10318363163489329, 0.10498954230993285, 0.10680477838001533, 0.1086050759807598, 0.11050609865648327, 0.11236184768045551, 0.11425601762543852, 0.11622933343155882, 0.11814949960636527, 0.12014300902290213, 0.12213737112202247, 0.12414488227766711, 0.12618001332697396, 0.12821672308738438, 0.13026788490803204, 0.13242215625739426, 0.13454095429074847, 0.13665841080356164, 0.13882769799651642, 0.14099469137101112, 0.14315771967750082, 0.14540172815521007, 0.147648448233853, 0.14988024587733248, 0.15214878521442482, 0.15442752329752882, 0.1567451335522845, 0.15911733989348517, 0.16144271706723673, 0.16380482060047064, 0.16612958685089976, 0.16853650653021554, 0.17089015862967882, 0.17331556699752354, 0.17577679058336965, 0.17820276922850628, 0.1807147324807861, 0.1831335206890549, 0.18564319024543743, 0.18809866691471444, 0.19061471799120855, 0.19316512395002286, 0.19571684898239505, 0.19820987139973228, 0.20079302139460273, 0.2033351137694598, 0.20593556728134915, 0.20853346525623648, 0.2110751425547037, 0.21367941798565782, 0.21631234489667897, 0.21891854889772044, 0.2215000317409087, 0.22417998428899868, 0.2267510461579449, 0.2293885453986426, 0.23206615592595659, 0.23466558210293695, 0.23734445332973994, 0.23997044599109274, 0.242653143359613, 0.24531162764838724, 0.24790876280589658, 0.25055191882042793, 0.2532416729965783, 0.2559203359414821, 0.25853763599437984, 0.26120759720255915, 0.26381858506823436, 0.26643321987983326, 0.2691118405291764, 0.27176698601235005, 0.27438898518915855, 0.2769507653455153, 0.27960715824646826, 0.28218198992945415, 0.28479528676032123, 0.28738071581423075, 0.289968095857825, 0.29255568680900906, 0.2951186799557319, 0.29764534420253547, 0.3002329611989038, 0.3027193778787239, 0.30523421819737573, 0.30775892767256186, 0.31024712214973676, 0.3127193936911944, 0.3151979277616274, 0.3176197534660475, 0.32006967878785036, 0.32242645372262546, 0.32484020118518925, 0.3271879002264498, 0.3295921748626384, 0.3318818312180458, 0.33420067515279805, 0.3365085415229832, 0.33877821827156174, 0.34103810851732136, 0.3432521323535136, 0.34548153010684685, 0.34763528987269227, 0.34979691862278767, 0.3519258712929703, 0.35402273572975135, 0.3561130343540283, 0.35815287030946613, 0.36019974841191243, 0.36221456948798353, 0.3641346099670311, 0.3660992003454858, 0.36799711728274664, 0.36989823574813435, 0.371703405541964, 0.373530466937692, 0.37531030201897075, 0.37706489231818097, 0.3788010080929853, 0.3804431453978423, 0.3820970530516686, 0.38376825892248806, 0.38532918408494976, 0.3868382519504641, 0.38834596051525877, 0.3898691317155467, 0.3912811991426809, 0.3927039498567682, 0.3940045497686585, 0.3953428994307587, 0.3966414148759398, 0.39790485358412914, 0.3990540837128198, 0.4002499024295439, 0.4013528234385069, 0.4024468519672061, 0.4035043221032538, 0.4045033495530058, 0.4054498176363324, 0.4063758174373803, 0.4072480925011876, 0.4080332944116399, 0.40886906105858506, 0.40958440803950313, 0.41026376126166963, 0.41096731235153366, 0.41152877286946654, 0.41212475337861426, 0.41262546227455443, 0.4131248121652849, 0.4135734839463971, 0.4139717142445896, 0.41430947898417514, 0.41454747939209896, 0.41485742197903913, 0.4150548838310648, 0.41519713456855617, 0.41527946402879473, 0.41539808702722475, 0.41541963338364285, 0.415338306120075, 0.4152964619617523, 0.41517237534531637, 0.4149935082848232, 0.4148462187435392, 0.4145381758780503, 0.4142794340688784, 0.41389452869907745, 0.4134843035535854, 0.41303590876527896, 0.4126001475718782, 0.4120116855991945, 0.41149049274861954, 0.41084413776109224, 0.41017793858803664, 0.4094459075189623, 0.40865046150189654, 0.40789145335879834, 0.4070250538631501, 0.40613034341742354, 0.4051824201763859, 0.4041866101263461, 0.4032041327762328, 0.40208734400604795, 0.40096856830139427, 0.39980971525688763, 0.398610525025752, 0.3974210693408798, 0.396102300394024, 0.3948085713765436, 0.39339566152573796, 0.391964202298033, 0.3905620054574339, 0.3890463112191747, 0.38754009015547963, 0.38595894923270624, 0.3843171980548278, 0.3826598512805428, 0.3810275886600546, 0.3792721042327449, 0.37753499336118795, 0.37572235289322037, 0.37386688923043465, 0.37200087285565436, 0.3701612303709434, 0.3681785402727112, 0.3661979253392746, 0.36418287188544934, 0.3622018605982172, 0.3600822119371545, 0.35801195292884175, 0.3558355868643952, 0.3537238200698412, 0.35150434225895694, 0.34927297695548515, 0.3470425225769644, 0.3447510297465946, 0.34244188081500426, 0.3400960843899753, 0.337758810380554, 0.33537009180130745, 0.33291330182084505, 0.33053183194869856, 0.32805086001399275, 0.32555405730647663, 0.32309044012653554, 0.32057471218086264, 0.31797909917150824, 0.3154670149779854, 0.3128906866500532, 0.31023875733215767, 0.30760796355232334, 0.3050006656908845, 0.30235445743380324, 0.2996824095579986, 0.29702121035859896, 0.29431086465035255, 0.291607609622996, 0.28882141835546443, 0.28609967400154407, 0.2833612205459288, 0.2806455595681773, 0.27784531787763067, 0.27507652351537276, 0.2722959533662805, 0.26949835532236155, 0.2666718162050168, 0.2639041797225676, 0.26109175050076977, 0.258261939101321, 0.25542219084256085, 0.2526556869039997, 0.24981809414015616, 0.24699245768396247, 0.2441695364313888, 0.2413361502752981, 0.23845508376121505, 0.23567251483920593, 0.2328231431375132, 0.23006244112385082, 0.22719049103274913, 0.2243778290547495, 0.22159130120251147, 0.21882423930843195, 0.2160267653957163, 0.21319156149904353, 0.21039377348026078, 0.20767814295035142, 0.2048556488875577, 0.2021549034843944, 0.19940932797542993, 0.1966544898868324, 0.1938852628423996, 0.19124671906670426, 0.18853119490797676, 0.18578655280469017, 0.18312745007477066, 0.18046312037254947, 0.1778233527944769, 0.17519416169496962, 0.17262517472802197, 0.17003132481724198, 0.1674026839938941, 0.1648699673819654, 0.16233588847069044, 0.15980906696855102, 0.157299284718308, 0.15481302681044523, 0.15234800736874793, 0.14986804496729658, 0.14741873005704415, 0.14503792053920372, 0.14264859273206318, 0.14032325322304212, 0.13792548584434774, 0.13562666534272533, 0.13333926332791032, 0.13105213399980617, 0.12881211159221634, 0.1266243711828922, 0.12443074023817871, 0.122254272649832, 0.12004879588011184, 0.1179307727957995, 0.11586068094100267, 0.11378990540645438, 0.1117073696434684, 0.10968977467812399, 0.1077040930852158, 0.10575158632170675, 0.10379366512768683, 0.10187747092137925, 0.10003903817774214, 0.09815046614020491, 0.09632388975538565, 0.09447533792530777, 0.09274490557389313, 0.09098554930810906, 0.08922704925455789, 0.0875513573146689, 0.08590277711960964, 0.08425043618857257, 0.08266371208194281, 0.08106013433737813, 0.07954136628395671, 0.07799126684398504, 0.07654361635462845, 0.07504110909589243, 0.07360025746518303, 0.07222117870411207, 0.0708257038930237, 0.06944032014790578, 0.06814672816980676, 0.06684710709461707, 0.06555859583168082, 0.06430000595164623, 0.06306621157465235, 0.0619377150689434, 0.060779713111423314, 0.05957828985751226, 0.058487648347950304, 0.05742850099626353, 0.05635600922288574, 0.0553625008165383, 0.05434811319472567, 0.05332841943765018, 0.05239243154210258, 0.05146116791986405, 0.050546570505243464, 0.049700561385562565, 0.04881049526618091, 0.048021765399349416, 0.0471997880734307, 0.0464111777838874, 0.045661332215722286, 0.04488596622756645, 0.04419667303832532, 0.04346658536229596, 0.04282646208486136, 0.04214655174250704, 0.04151870195075462, 0.04089469481940649, 0.04032073211698245, 0.03979201075178951, 0.039184964497513936, 0.03868662649127962, 0.03819255253573839, 0.0376491136365135, 0.03717284947260603, 0.03674294375752582, 0.03630122634177736, 0.03583461881323097, 0.03548940800634453, 0.03502681969426182, 0.034705037998563275, 0.034299175451608634, 0.03393663463368515, 0.033663595421155525, 0.03330057875095891, 0.033036046024397324, 0.03272838450645397, 0.03241185083330863, 0.032142410854591394, 0.03192176370059016, 0.03164165085263276, 0.03140826641899123, 0.031214829530430123, 0.031039177903284223, 0.03080850433360015, 0.030595305598301255, 0.030405224099050214, 0.030238759663193965, 0.030111941817425242, 0.029891221556485204, 0.029798430688640496, 0.029603938396890454, 0.02950908789948409, 0.02939173414703772, 0.029224592713669898, 0.02913934082672253, 0.029064069739404688, 0.028956193314440912, 0.02882103317406684, 0.02874907686849103, 0.028659185696111464, 0.028604751066264762, 0.028466612524636038, 0.02841267416351846, 0.02833337527534775, 0.028283411542017047, 0.028234065830704883, 0.02815112214300415, 0.02809250818611447, 0.02809334031422228, 0.028005441557578687, 0.027920108086114497, 0.0279170604546642, 0.02785572470320547, 0.02782579030105948, 0.027746898458832138, 0.027710398595365917, 0.027721479777568572, 0.027621168975203777, 0.027617054358791956, 0.02761312927821337, 0.027544784677671817, 0.027497037446989624, 0.02746508134911978, 0.02743235194886708, 0.027402924657167257, 0.027385381880783256, 0.027398034944723013, 0.027322236110703554, 0.02734498555208912, 0.027268166551764155, 0.027270876993648007, 0.027279997602754992, 0.02721595665647199, 0.027240433685543818, 0.027211429208262812, 0.027167495183583905, 0.027152693056666236, 0.027188992298044508, 0.027146784306746136, 0.0271468111438587, 0.027173890785213498, 0.02715765059323706, 0.02716997465029833, 0.027222431680800064, 0.0272236178846274, 0.027201081056045826, 0.02725515686612904, 0.027265113882825782, 0.027357355071882722, 0.027338766372351185, 0.027441182391976897, 0.027455143832859297, 0.027546584542862414, 0.027608673982930276, 0.027662227983930393, 0.027751737646623413, 0.027837149544767972, 0.02799318819406654, 0.02804600119259773, 0.028219505891175306, 0.02836898436994323, 0.028502841214260805, 0.0286194759395368, 0.028792529069057472, 0.02902377174133122, 0.02917282754961016, 0.029384194746163963, 0.02960999243743161, 0.02985578232288072, 0.030102898028184603, 0.030410237702055268, 0.030693140856131753, 0.03098477872749205, 0.03132851096835375, 0.031635791873692844, 0.032016437285028995, 0.03239993495324027, 0.03280839650464984, 0.03323304785703847, 0.033672673816621805, 0.03414074250856025, 0.03463697946696605, 0.035153528630708024, 0.03571644437148299, 0.03624370999363847, 0.03682563964245336, 0.03749717796315313, 0.038110272860651176, 0.0388134859693197, 0.03947957686477143, 0.040245821151769945, 0.0410174568054032, 0.04182591626992719, 0.04261234512682255, 0.04351597075144798, 0.04437487703766903, 0.04533409133507156, 0.04626975192831093, 0.04731888407646479, 0.048315334609725494, 0.04938615719617036, 0.05051748332981871, 0.05170025574613341, 0.05282847387810181, 0.054089498865102774, 0.05533266402324968, 0.05669726649007109, 0.05799660842046573, 0.05942263968516129, 0.06085530138344981, 0.06237359873517228, 0.06388315078445934, 0.06545802953210847, 0.0670506524444849, 0.06878457765691542, 0.07047162760331187, 0.07220111246635305, 0.07405213771002654, 0.07589527084029117, 0.07785672452113943, 0.07978573101741168, 0.0818454932510095, 0.08386868896250019, 0.08603536951268966, 0.08816959724973365, 0.0904465606530754, 0.09271604426624941, 0.09500449850090434, 0.09741164441645099, 0.09986038256118006, 0.10235777813741177, 0.10494787329783441, 0.10757207762950781, 0.11027303615374205, 0.1130101577603654, 0.11579780284165736, 0.11859203474188978, 0.1215146069826756, 0.12453517325426941, 0.12750587451561446, 0.13060661226110581, 0.13376294490451468, 0.13697655226930067, 0.14024712692507524, 0.14361599803014188, 0.1469947324257318, 0.1504027408909498, 0.15393841384535448, 0.15751965117400255, 0.16114246944724187, 0.16486141868533674, 0.16860400717446433, 0.17247768102917582, 0.17635247438197876, 0.18025828621637574, 0.18427869269592573, 0.1883333283816267, 0.19247153328073627, 0.196660466179118, 0.20094654284441166, 0.20526855922367893, 0.20966171868426667, 0.21407480591476502, 0.2185861800123866, 0.22310273706564096, 0.22777808133549154, 0.23242379654682507, 0.23713175524897143, 0.24195291970349322, 0.24679765241310359, 0.2517692139003247, 0.25670930929952235, 0.2616962414294421, 0.26684906931411645, 0.27194624311982546, 0.2771248738783334, 0.2823890172590974, 0.28769337619539687, 0.2931041696454827, 0.2985255404175483, 0.30393265450570284, 0.3094463854837612, 0.3150490403673901, 0.32067739793541555, 0.32630242143250127, 0.33202393337665925, 0.33779122714064624, 0.3436285793177277, 0.3494461228667135, 0.3553790000892156, 0.3612898217637009, 0.3673054004337914, 0.373321058502865, 0.3794017777010806, 0.38550016446480123, 0.3916493068241461, 0.39782643336473533, 0.40410423946469587, 0.410367207141626, 0.41659955921665537, 0.42293195811800666, 0.42934847829540107, 0.43567693198713514, 0.44212187769901806, 0.44856512638559853, 0.4550437944568964, 0.4615783652983894, 0.4680449882422075, 0.4745988846325289, 0.48122101539853895, 0.4878005680566471, 0.4943866186333626, 0.5009931182191786, 0.507672007578921, 0.5142916705910525, 0.5209524990514804, 0.5276277467539686, 0.5343207003490946, 0.5410442822054025, 0.5477232161108911, 0.5544400129497947, 0.5611599205981544, 0.5679048183279742, 0.5745962637581937, 0.5812655901394771, 0.5879801551901886, 0.5946737381004841, 0.6013789586830236, 0.6080581943299718, 0.6147956132672721, 0.6213930753416593, 0.628060584461607, 0.6347338447740081, 0.6413436960385991, 0.6479362829816288, 0.6545071974443719, 0.6611001794387975, 0.6675931907234128, 0.6741490956750252, 0.6806300205711845, 0.6870661223733119, 0.6935172810013144, 0.6999115828189917, 0.7062383665689864, 0.712581801655742, 0.7188308353441745, 0.7251328204328971, 0.7312942879108936, 0.7374592054194298, 0.7436278048264052, 0.7496570223007281, 0.7557164225601607, 0.7616317745110612, 0.7675576140570266, 0.77344946489956, 0.7792749872732855, 0.7849964467679297, 0.7907470315304057, 0.7963550527401004, 0.8019050926182111, 0.8074182581591342, 0.8128868834025735, 0.8182977222603511, 0.8236004752866716, 0.8288331408647353, 0.8339901022779842, 0.8390442120088358, 0.8440743494517524, 0.8490460501879601, 0.8539308709933793, 0.8586888316130366, 0.8633854047272352, 0.8679924581061012, 0.872538237680486, 0.8770469430003915, 0.8813833452264739, 0.8856468142976622, 0.8898369616982044, 0.8939233387349799, 0.8979833862739717, 0.9018487906420645, 0.9056762132327356, 0.9094240522386425, 0.9130291589812073, 0.9165062188233761, 0.9199929052127552, 0.923310225708828, 0.9265096826420894, 0.929629780706521, 0.9326143861321493, 0.9355272220599831, 0.9383229530828796, 0.9410182755627221, 0.943616057359368, 0.9461257700899797, 0.9484772775111966, 0.9506997070466868, 0.9528391930308271, 0.9549013734348025, 0.9568335702716557, 0.9586288717490706, 0.9603032169427231, 0.9618347099130292, 0.9633299681618434, 0.9646281012623774, 0.9658752951286116, 0.9669687453621969, 0.9679421377595293, 0.9688551157339397, 0.9695423346360534, 0.9702304260335876, 0.9707293419266849, 0.9710949252561785, 0.9713774270160178, 0.9714703796010976, 0.9714983534894329, 0.9714177195985297, 0.9712008215578373, 0.9708865876392411, 0.9704494537463881, 0.9698517902258236, 0.9691041837085332, 0.9682893121178902, 0.9673576859164188, 0.9662753845029727, 0.9651375059034683, 0.9638335230978088, 0.9623483210469506, 0.960830440208295, 0.9591431747652421, 0.957404028300963, 0.9554808005008972, 0.953429036879137, 0.9513484333665166, 0.9490587692411843, 0.9466831385298513, 0.9441917733066985, 0.9415823304661929, 0.938923809, 0.9360766150309354, 0.9331551940676447, 0.9300305890226125, 0.9269250015561259, 0.9236130076362362, 0.9202466874641599, 0.9167482887070456, 0.9131297440787118, 0.9094362411281394, 0.9056635139286728, 0.9017067149163382, 0.8977052617249226, 0.893592294326482, 0.8893775785037815, 0.8850227996877287, 0.8806584882791699, 0.8760960261969039, 0.8715469331192065, 0.8667864418139671, 0.8620267612153267, 0.857103920740789, 0.8521694103014578, 0.8470788812709287, 0.8419362976870896, 0.8367429168017677, 0.831375193091211, 0.8259875231184293, 0.8205403866480122, 0.814967925282402, 0.8092970664657616, 0.8035897997025576, 0.7978612503975449, 0.7919494593167319, 0.7860891577430827, 0.7800552235243519, 0.7740155813929398, 0.7678520009563783, 0.7617074201530983, 0.7554298948120471, 0.7491383053540295, 0.7428056992111672, 0.7364233778663352, 0.7298811293602342, 0.7233782949543993, 0.7168553788081109, 0.7102104157927452, 0.7035562891644311, 0.6968685763481494, 0.6901359027380339, 0.6833422280421985, 0.6764945177947362, 0.6696596056494329, 0.6628097676369937, 0.6558918405466674, 0.6489055011729122, 0.6419501563245293, 0.6350127195705719, 0.6279940252193358, 0.620950250033415, 0.6138537325477449, 0.6068255413104896, 0.5997596356750889, 0.5926861492012583, 0.5855385674771011, 0.5784422230624686, 0.5713320178618059, 0.5642316852553529, 0.5571219521086876, 0.5499952134250872, 0.542892099757421, 0.5358144205744588, 0.5286943755413385, 0.5215830499778306, 0.5145380643845325, 0.5074887767080724, 0.50045857191183, 0.49338592638821127, 0.48639260747055246, 0.47941957036499505, 0.4724857432827115, 0.46552684236735525, 0.45866158691207565, 0.4517290487886664, 0.44489651106131817, 0.4380943368682313, 0.4313623042261079, 0.4246063826576269, 0.417887384681005, 0.41126029365056044, 0.40464642021397607, 0.3980343061375205, 0.3915515648155757, 0.3850997818852114, 0.37866046394328945, 0.3723010396956488, 0.36594742056242013, 0.35974383461604825, 0.35354602199850593, 0.3473595763659783, 0.34127956745684207, 0.33529722960190655, 0.32930875137137766, 0.32344580207268825, 0.3175659314076724, 0.3118579189925661, 0.3061683498651126, 0.30050240617984425, 0.2949778481589162, 0.2894857772981195, 0.28412462568208885, 0.2787436821643418, 0.2735632482622602, 0.2683635156493063, 0.26323034139657686, 0.25827468235050655, 0.2533130730544647, 0.24849421414486614, 0.24373319566313348, 0.2390043598618012, 0.23444832632810442, 0.22992185369878895, 0.22547543923404037, 0.22119173495537103, 0.21690335786501022, 0.21278403709743385, 0.20871806064671702, 0.20473463096052458, 0.20085633747545834, 0.19700689705013388, 0.1933302079864775, 0.1897164019184572, 0.18619691670132646, 0.18282635198583036, 0.1794340223900254, 0.1762125684669018, 0.17306296623189632, 0.17002758829431458, 0.16710998861568155, 0.16421888827779033, 0.16150468391346262, 0.1588067603372426, 0.15625136864718206, 0.15378196857256424, 0.15139811769987857, 0.14913114652805656, 0.14688635205314182, 0.14479681483676565, 0.14284239085172218, 0.1409337757387931, 0.13913079377174575, 0.1373763489280535, 0.13579146974082693, 0.13424069017479798, 0.1328088603429024, 0.13149969505032344, 0.13026998181552482, 0.1290594744381686, 0.12799920337893822, 0.1270267116471558, 0.12614404286469214, 0.12540630791200297, 0.12463918776677915, 0.12406302108231042, 0.12352001167473278, 0.12308713202301476, 0.1226859602169408, 0.12243281794703312, 0.12225532096111347, 0.1221228113938509, 0.12206950639341348, 0.12215181326114717, 0.12226152276103358, 0.12253405209614125, 0.12277031049536993, 0.12314630634691297, 0.12363062348411835, 0.12409712877260924, 0.12469978465687304, 0.12535716088391496, 0.12610043796841852, 0.12690878281391815, 0.12781791176189924, 0.12871911143187875, 0.12970549018837585, 0.13076526825114695, 0.13194482895782958, 0.13308434900881397, 0.134340735729343, 0.1356381403609802, 0.13702358692584532, 0.13848380818461464, 0.139953046045374, 0.14142295852508524, 0.14304993420414328, 0.14463322038228088, 0.14632943198464263, 0.14808588311891124, 0.1498514099350243, 0.15165216910419707, 0.1535354223760965, 0.15540450456133978, 0.15731032043694276, 0.1592888681119651, 0.16128613467902214, 0.1633387969682319, 0.16540827464796812, 0.167546532146598, 0.16965016903731917, 0.17181543222063514, 0.17397687516830157, 0.1761509769176996, 0.17842453281676537, 0.18063501237946678, 0.18293710302824018, 0.18521096814409982, 0.1874704568425493, 0.1898322518973682, 0.19210294461434063, 0.19446527487375015, 0.19677641283677016, 0.19914355248726098, 0.20151941332378603, 0.20383394303001692, 0.20620787347191832, 0.20857226622822428, 0.21094988563830172, 0.2132407775727147, 0.21558832503959155, 0.21794597183808323, 0.22026938092782217, 0.22264025867783035, 0.2249441890493075, 0.227203790384541, 0.22952276942890248, 0.23178975489604603, 0.2340383909382485, 0.23628533927078937, 0.23845481161558996, 0.24066855043107385, 0.24287113681276792, 0.24499107460562292, 0.24708119846629692, 0.249180804370501, 0.2512888425921088, 0.2533374634323003, 0.2553211687494633, 0.25725093903316326, 0.2591951409169713, 0.26109299985076634, 0.2629752254369528, 0.2648259056494232, 0.26662904409768845, 0.2683179718497482, 0.2700834963805128, 0.2717131414421566, 0.27334200867678504, 0.27490943208749785, 0.27644150688151853, 0.27796646421297094, 0.27942476992655196, 0.2807653483707139, 0.2821562757739871, 0.28339810273465804, 0.2846490179864651, 0.28584856285587773, 0.2869865113124842, 0.28811360696960153, 0.28913135190740297, 0.2900853943329861, 0.29101406945506, 0.2918844532617642, 0.2927189054425388, 0.29343381451963013, 0.2941950887936618, 0.29481472243862195, 0.295402097081756, 0.2958999157680525, 0.2963547083097807, 0.2967551823027339, 0.2971516346796663, 0.2974136308637114, 0.29765523425308993, 0.297780802639955, 0.2979390858342131, 0.29793245169852184, 0.2979701680650693, 0.2978336635592083, 0.2977520583111275, 0.29750124801681194, 0.29728283544232237, 0.2969570081579831, 0.2965661860692903, 0.2960867072455452, 0.2955895105411849, 0.29502284019593555, 0.2944258665917512, 0.2937042227425888, 0.2929439909876079, 0.2921836666221298, 0.2912673533125782, 0.2903912445718362, 0.2893470988173228, 0.28836559281155516, 0.2872495348935942, 0.2860666761407129, 0.2848662228584079, 0.2835731105201972, 0.28220889833893614, 0.2808311169617406, 0.27938638347481354, 0.27793218094956584, 0.276332650572361, 0.27478127288657095, 0.27311492958174766, 0.27138312202945514, 0.26962584435090214, 0.2677919455667087, 0.2659317854322448, 0.2640805571833486, 0.2621185176022786, 0.2600589627881824, 0.25804482775161663, 0.25597042309278567, 0.2538060656966009, 0.25161394201589593, 0.24941015821261583, 0.24714408732157075, 0.2448285690318675, 0.24246071130520286, 0.24008166309220838, 0.23770441840102408, 0.2352440709179556, 0.23274983681491887, 0.2302249108669133, 0.2276446473790855, 0.22503111141607016, 0.22242194606149288, 0.2197587993220398, 0.2171441790208256, 0.21439046648866655, 0.21164608008406668, 0.20891279990983697, 0.20616873523709275, 0.20335580015680937, 0.20048037174157096, 0.19765175446440283, 0.19477747637315238, 0.19194711125670397, 0.18902358060810612, 0.1861031086116232, 0.1831499614865573, 0.18023217239278652, 0.17729986695300945, 0.17436437226656842, 0.17134004016759274, 0.16838172352055422, 0.16538076584727432, 0.16244944687770455, 0.1594538279460547, 0.15646353499044063, 0.1534067762238048, 0.15047459090435802, 0.1474648473406354, 0.14445184502412095, 0.14150960996659556, 0.13852075741480102, 0.1355447995898847, 0.13256838382231936, 0.12960044503391555, 0.12665926948011946, 0.12369276981879875, 0.12074966781063952, 0.11787686955332576, 0.11495254111495185, 0.11214007997423489, 0.10920499402807157, 0.10636241134004773, 0.1035626302632824, 0.1007745874675294, 0.09793852955164191, 0.09517168377686668, 0.09241849401150674, 0.08972170616474207, 0.0870238311284887, 0.08434359709018958, 0.08174384286016123, 0.07910636432851255, 0.07649674534414119, 0.07399807214520669, 0.07144184728897075, 0.06895039521458483, 0.06650575455371294, 0.06405965532486337, 0.06168992035773422, 0.059343893418912746, 0.0570515326276647, 0.0547734026873074, 0.05250287172129589, 0.050291935684977175, 0.048130767963442206, 0.04606105534365955, 0.04394455701993184, 0.041905312355239956, 0.03995049670172566, 0.03796661445199109, 0.036054449711393294, 0.03416877257631832, 0.03240731821861298, 0.03060031032898725, 0.028849757811554293, 0.027174462279944613, 0.0255708659945246, 0.02400207011004024, 0.02241217958059547, 0.020933358528632887, 0.019531449152959297, 0.018096710207562504, 0.01677155165844777, 0.015496012471635288, 0.014222739441993277, 0.01305797831045464, 0.011882693995972015, 0.010834352672020807, 0.009737944803910454, 0.008766065006644586, 0.007817968664932347, 0.006938345153128449, 0.006164657774408643, 0.005353483156312315, 0.004599075282685631, 0.0039556745659679125, 0.0033484707957234148, 0.0027334723938486905, 0.0022744311887471645, 0.0017668785883899678, 0.00134237304808441, 0.0010365879823045461, 0.0006992255268757516, 0.0004819507966721963, 0.00022752922559737669, 7.866778350387122e-05, 3.775443907654472e-05, 5.09899072324246e-06, 0.0, 5.636250534134771e-05, 0.00017913137931147282, 0.00028895360018109194, 0.0005117913036383185, 0.0008064190800442924, 0.0011406683892516605, 0.0015193925506694855, 0.0018975144460223303, 0.002418416145857953, 0.002884367680059687, 0.0034565941363099185, 0.004082763414695803, 0.004795129143537642, 0.005481315223024045, 0.0062558084328103, 0.007061527579216383, 0.00790010794615231, 0.008845494314680551, 0.00977073843423695, 0.010782258047344381, 0.011789737124191148, 0.012869932957418605, 0.014045099430258508, 0.015197599322258637, 0.016404526485099737, 0.017698606017009157, 0.019006757850690614, 0.020339424519021095, 0.021761539891084276, 0.023146630499213207, 0.024654533562988912, 0.026131859570197966, 0.02771953484461494, 0.029327935509862936, 0.030924153701177175, 0.032609431475923864, 0.03433783940366323, 0.03608229428675717, 0.03786102361461963, 0.039636744619985696, 0.04149433908753271, 0.043400968916934485, 0.04535653805353817, 0.04725396373265112, 0.04925254178380481, 0.051292995566967946, 0.05337937864046867, 0.05541989638981964, 0.05758548992103876, 0.0597403790444904, 0.061875827761541234, 0.06411051463874752, 0.06632477914669802, 0.06862264711000757, 0.07090615057415389, 0.0732212300594593, 0.07559965113785275, 0.07800444669713125, 0.08038441766088533, 0.08279680763046586, 0.08523555606304316, 0.08775339815336064, 0.09023357414203254, 0.09276981696522087, 0.09531216252785557, 0.09793687025383493, 0.10047283258142047, 0.10312982366681168, 0.10578278608039364, 0.10842010685481791, 0.11113210546291356, 0.11384530407241626, 0.11653803007368795, 0.11926892166577245, 0.12205150380261948, 0.12483167599503302, 0.12766247789408383, 0.13046447221760316, 0.13331138948527277, 0.13618365069326105, 0.13905327136456327, 0.14192201551266595, 0.1448120386251471, 0.14776553480269913, 0.15073493950094996, 0.15366810754615226, 0.1566423468259221, 0.15964098775392638, 0.16261991098838893, 0.16566814605050675, 0.1686644564597659, 0.1717194700007433, 0.17479271006367192, 0.17790950261741798, 0.1809925208815003, 0.18411169984942347, 0.18719125781715398, 0.1903273740572239, 0.19353605953633457, 0.1966554387606918, 0.1998201057954574, 0.2030610086386863, 0.2062367300603548, 0.20943113021047546, 0.21272579933970623, 0.21591448116228582, 0.21918070214308202, 0.22250125355301612, 0.2257860714530604, 0.22904094802403216, 0.23240375671345553, 0.2356998151555397, 0.23906271536533713, 0.2424293890763758, 0.24577767238461914, 0.24914758958937272, 0.2525638383756031, 0.25599301481379894, 0.25939818591879177, 0.26290593192107486, 0.2663438836656019, 0.26977998631943545, 0.27329642486569317, 0.27675193268160403, 0.2802845348830958, 0.28381598267771246, 0.28738041491545857, 0.29098460525446185, 0.2945316262301683, 0.2981540940003724, 0.30170107699180737, 0.3053666711440211, 0.3090387536040902, 0.3126597807277735, 0.3163763725549024, 0.32006461755556226, 0.32378701782285085, 0.3275166094897455, 0.33126143801805247, 0.33499775570443774, 0.33878352253300953, 0.342575389454018, 0.34643120736583816, 0.3502749709207869, 0.35411024998997537, 0.35796111632584093, 0.3619094782950615, 0.3658138578136701, 0.36970295374448964, 0.3736913836261315, 0.37767009412233377, 0.3816481953666105, 0.3856265068998638, 0.38967028510976454, 0.39373041090558714, 0.39782817788222, 0.40191854120832937, 0.40598433119227556, 0.4101334359003706, 0.41426346548465703, 0.418474190978032, 0.42263846650675585, 0.4268699313206564, 0.43111615723760843, 0.4353538870895388, 0.4396076852079694, 0.44388434487425954, 0.44820975406918123, 0.45257777733262283, 0.4569165417192424, 0.4612846992044688, 0.46573839075574336, 0.47014786668907704, 0.4745397209677846, 0.479055875537585, 0.4835213886928333, 0.4879945246124305, 0.4925573518832946, 0.4970894842315658, 0.5016116677364542, 0.5062364205064382, 0.5108366364911027, 0.5154135964374886, 0.5200670435154771, 0.5247776049157898, 0.5294453931948134, 0.5341187405798253, 0.5388421057695723, 0.5435314930644837, 0.5483381338863333, 0.5530835112582012, 0.5578333174946761, 0.5626915721822284, 0.5674669579458331, 0.5723449025540589, 0.5771340260791904, 0.5819811417721826, 0.5869080073271519, 0.5917565285977169, 0.5967013550284572, 0.6015835961315102, 0.606540014661807, 0.6114490469790375, 0.6164347584305662, 0.6213363503425274, 0.6262966874454794, 0.6313315649026215, 0.6362823884634844, 0.6413042242815222, 0.6462722810637085, 0.6512791001070715, 0.6563096467313293, 0.6613394250404372, 0.6663555538398623, 0.6713791917557718, 0.6763616012347602, 0.6814369869446205, 0.6864177796165296, 0.69146943775844, 0.6964929477310726, 0.7015371773873483, 0.70653001698157, 0.7115939182939167, 0.7165799537115776, 0.7216129908118738, 0.726598834187981, 0.7315380960060922, 0.7365383150175762, 0.7415649513629896, 0.7464770813867535, 0.7514199157226016, 0.756381146596199, 0.7613412034690442, 0.7662295020509217, 0.7710738646322789, 0.7759734784890693, 0.7808508904847455, 0.7856612568179708, 0.7905093980385082, 0.7952490339146105, 0.8000201888030896, 0.8047812517440137, 0.8094728765453615, 0.8141900695976265, 0.818871574819423, 0.8234477078788132, 0.8280492755141496, 0.83263033711784, 0.837184108910553, 0.8417061428151826, 0.8461505080695523, 0.8505356919145768, 0.8549543455596018, 0.8593207031334834, 0.8636029096025704, 0.8678869371159759, 0.8720698475592452, 0.87627037856625, 0.8804102732750395, 0.8844976527687954, 0.888476519758249, 0.8924575340696702, 0.8963991283545663, 0.9002863826882964, 0.9040931325282044, 0.9078673545984103, 0.9116002904850994, 0.9152078856345826, 0.9188013678337426, 0.9223288000853501, 0.9258352434205536, 0.9292291447727236, 0.9325683105226058, 0.9358422075480445, 0.9390091624555308, 0.9421390403365124, 0.9452162285077732, 0.9482218152395457, 0.951146573811181, 0.9540200796446676, 0.9567298068539314, 0.9594799881081597, 0.9620473655403485, 0.9646059517129357, 0.9670677489203909, 0.9694776458957145, 0.9717840725466234, 0.9739565443426492, 0.9761483092518046, 0.9781893043606482, 0.9801340830725529, 0.982030647283478, 0.9837942100860813, 0.9854747714792659, 0.9871141705174256, 0.9886301510363337, 0.990078748724845, 0.9913702956657874, 0.992602983040392, 0.993811015379519, 0.9948412560150842, 0.9958159996732489, 0.9966650231171852, 0.9973982093230929, 0.9980494845039896, 0.9986639217392009, 0.9991248231186807, 0.9994452511855498, 0.9997219175468465, 0.9998985267738522, 1.0, 0.9999665870346693, 0.9998102813395818, 0.999526332904822, 0.999224593970458, 0.9987144603730921, 0.9981924153693483, 0.9975153344481994, 0.9967451396292099, 0.9958783481185258, 0.9949590468314006, 0.9938183488139746, 0.9926256193670612, 0.9913915622013544, 0.9899832487371294, 0.9884307317543408, 0.9868113072381856, 0.9850951718492258, 0.9832902896803039, 0.9813944417653437, 0.9793541056403466, 0.9771992949150604, 0.9749762706016978, 0.972588266654931, 0.9701453199031973, 0.9675999853789264, 0.9649689895899911, 0.9622125646193941, 0.959291791432448, 0.9563561118739817, 0.9532955378735232, 0.9500876938643057, 0.9468435670211918, 0.943466977507829, 0.9399681929075341, 0.9364007504678795, 0.9326934877489326, 0.9289718091345828, 0.9250937924654582, 0.9211392282926294, 0.9171032163481211, 0.9128984662945251, 0.9086577905857232, 0.9043559716850402, 0.8999208349891175, 0.8953938567009241, 0.8907575961477949, 0.8860999275348982, 0.8812638688494889, 0.8764472142811734, 0.8714585929787736, 0.8664024399309799, 0.8612768790884345, 0.8560696774094025, 0.8508040260904997, 0.8454874360458224, 0.8400318424792038, 0.8344501364836158, 0.82886128785055, 0.8232405917075661, 0.8174783964255359, 0.8117217969212861, 0.8058435652910472, 0.7998544681321936, 0.7938466662764085, 0.7878264121647705, 0.7816551798719235, 0.7754670450238582, 0.7692594826867978, 0.7629571700178763, 0.7565513270813363, 0.7501581879049019, 0.7437232950757181, 0.737156129188008, 0.7306367877193731, 0.7239908567269497, 0.7173265266431871, 0.7106555943650064, 0.7039483647633635, 0.697184508516516, 0.6903434648725038, 0.683469993809409, 0.6766035231384181, 0.669730808239137, 0.662805979120457, 0.6557807326660937, 0.6488038006406704, 0.6417856805250651, 0.6347907014372933, 0.6277418113150063, 0.6206429820177624, 0.6135592295972596, 0.6064483066377744, 0.5993483633464293, 0.5922327445402175, 0.58514906645568, 0.5779621920577108, 0.5708802037921671, 0.5637041511239582, 0.5566158383669951, 0.5494409164412463, 0.5423210933312931, 0.5352458289074103, 0.5281403653218519, 0.5210419650845268, 0.5139212335069393, 0.5068730165341163, 0.49982128148630833, 0.49279146446685007, 0.4858385117880236, 0.4788486124309493, 0.4718475596915398, 0.4649482813882529, 0.45804710653174713, 0.45117580929046963, 0.4443364929621489, 0.43753056706760907, 0.4307301214968467, 0.42401110261677033, 0.41736219988102025, 0.4107426456981103, 0.40414026533850744, 0.3975904780134329, 0.391078959085848, 0.38463132284566737, 0.3782162478251961, 0.3718245249240821, 0.36554551429072263, 0.35930361540509836, 0.35312857538118975, 0.34700820162489, 0.340963377867467, 0.3349825663546704, 0.32902721340629215, 0.3231332199578716, 0.31733739738089517, 0.3116503835781093, 0.3059718609700863, 0.300368607725621, 0.294823672676944, 0.2894125168557239, 0.28403332941844806, 0.2787054268489344, 0.2734887168653612, 0.268400790317627, 0.2633079874110929, 0.2583180833056559, 0.2534123817064447, 0.248634448426903, 0.24387777855858192, 0.2392792170880058, 0.23471959468661907, 0.23020072328593044, 0.22587347940930946, 0.22153453026623018, 0.2173317224114623, 0.2132171080961477, 0.20924170518448892, 0.20530145210679934, 0.20142568818637768, 0.19770054295835573, 0.194054836838911, 0.19049048104521762, 0.18697831891982303, 0.1836742672811632, 0.18033953078888837, 0.17716564701605605, 0.17414688927468305, 0.17113814565585347, 0.16820765646559063, 0.1654597455498681, 0.16272905353508352, 0.16009112934975095, 0.15759660018660004, 0.15523696438159, 0.15290120591233214, 0.15068649811444146, 0.1485826830129724, 0.1465062443238586, 0.14462628425797305, 0.14275333045302188, 0.14106225443872428, 0.13937757455537866, 0.1378430777799883, 0.1364323180246563, 0.1350396590169136, 0.13375583979487013, 0.1326064979671047, 0.1315631073073479, 0.1305605602363186, 0.1296821597867604, 0.12884664196015475, 0.12813046694887087, 0.12750833223270114, 0.12695954794910536, 0.12655277813753749, 0.12615077384114712, 0.12587715021319823, 0.1257105313524076, 0.1256532879423759, 0.12557256569381464, 0.12564718100853864, 0.1258044545256954, 0.12607510875385997, 0.12631028633306499, 0.12670771707513181, 0.12718555466030781, 0.12769538962178736, 0.12835993397968767, 0.12900076042474196, 0.1297886220868173, 0.13058057364216832, 0.13152848757282914, 0.13244024570878704, 0.13353450014326254, 0.13457245368018125, 0.13579780108817688, 0.13697439718592985, 0.13831981342851296, 0.13964475993626768, 0.1410388210244432, 0.14253992648212407, 0.14400617405960423, 0.1455866983808953, 0.14722399773546124, 0.148921012386435, 0.1506797838862305, 0.15245503447855405, 0.15421605591418147, 0.15609233036912715, 0.15802368811332715, 0.15994862435692664, 0.1619646593665911, 0.16396806148858395, 0.16602647369515283, 0.16817661935511805, 0.1702443837051787, 0.17244458288856093, 0.17463880642781482, 0.17680651497695044, 0.17908372443503745, 0.18134081889169568, 0.18361609919637398, 0.18597781110406839, 0.18824866913082183, 0.19061397760991308, 0.19297450109158032, 0.19534973136331207, 0.19778281057958533, 0.2001288410972111, 0.20253087511170334, 0.20494161981333736, 0.2073825401941495, 0.20982214250949038, 0.21219882042772764, 0.2146211937765369, 0.21707106562903947, 0.2194556761012151, 0.22187571913205578, 0.22428319512065648, 0.2266695419139933, 0.22912263332177224, 0.231487730325619, 0.23382958095905979, 0.23618660627441837, 0.23847793576032453, 0.24083478740337874, 0.2431027664537389, 0.24536051943685822, 0.2476255679043201, 0.24984181721374057, 0.25206481704088896, 0.25421871935028056, 0.25642922094352427, 0.25847447016285846, 0.2605815821202222, 0.26267229358234057, 0.26464260083344715, 0.26667815629433356, 0.2686190250290299, 0.2704985925229987, 0.27235673862993054, 0.2742496549415449, 0.27601964073478114, 0.27778681058630317, 0.2794497393052027, 0.28113227900108845, 0.2827672796665918, 0.28434786441174426, 0.28586626690116207, 0.28733563220659686, 0.28874819541118874, 0.29012571030513196, 0.29141411148781093, 0.29270456033943903, 0.2939315376857507, 0.295091559971575, 0.29623134516325345, 0.29728759258399523, 0.29828458944932906, 0.29918453257353494, 0.30007525433646076, 0.30090172960766515, 0.3016817636908404, 0.302378894217443, 0.30306647703699535, 0.30366187558109614, 0.30419056291696567, 0.3046201856956065, 0.30500946901423504, 0.30536138204597024, 0.30564985234349373, 0.3058817134529551, 0.306031404974786, 0.30616751585376906, 0.3061758326009778, 0.30612179566182335, 0.3060500212192618, 0.30587043575354245, 0.30567497665842147, 0.3054111171673511, 0.3050848978850923, 0.3046339858876842, 0.30415607821899193, 0.30363897767900844, 0.3030434275599449, 0.30244701529024387, 0.30168281145973297, 0.300923366168035, 0.30006100995835255, 0.29914095127752843, 0.29823268364035305, 0.29715038878452726, 0.29610848256005806, 0.2949482924924295, 0.29376865811950126, 0.29250803925651964, 0.2911598613273131, 0.28980437507701196, 0.28836474798712775, 0.2869041931170595, 0.28534981536612386, 0.28374471783977145, 0.2821078133284346, 0.2803871521000717, 0.27867402303308364, 0.2768360240293628, 0.2750138756816819, 0.27309256627111467, 0.27111839254328035, 0.26913292412086887, 0.2670327177087773, 0.26497382372990547, 0.26277702990210744, 0.26061011421835323, 0.25838825612245736, 0.2560999227248875, 0.2538367857103445, 0.2514130108141246, 0.24904344647480325, 0.2465960771587229, 0.2441612767378768, 0.24162080013856835, 0.23912344037179054, 0.23654506125097263, 0.23393123090635728, 0.23122282448489342, 0.2285708519978386, 0.22588350998750983, 0.22319425188753492, 0.22038483780425497, 0.21764377943377688, 0.214859279818228, 0.21198236824224762, 0.20918155174329633, 0.20626535303727556, 0.20341658270827415, 0.2004818645420393, 0.19755919343873482, 0.19465467165063366, 0.1917173699489217, 0.1886947561761629, 0.18578711341402496, 0.1827939725492765, 0.17978780969012048, 0.17680575685932542, 0.17375797618795905, 0.17073509303663295, 0.16775047543945762, 0.16471446219101735, 0.161755471400189, 0.15870309949186112, 0.15571966247341582, 0.15267113163886642, 0.14965870588716185, 0.14665799169209598, 0.14366241817161285, 0.14072800144551212, 0.1377011022171264, 0.13473750498725057, 0.13177761683945508, 0.12888172435942047, 0.125958775867824, 0.12301417753958042, 0.12015100325280273, 0.11721581620017585, 0.11436481277862266, 0.11158921195086487, 0.10871207031117211, 0.10598490782441787, 0.10320968309621013, 0.10043620274228034, 0.09773650032309032, 0.09501214897367152, 0.09237213975266553, 0.0897290714805714, 0.08715123727477703, 0.08458351173432407, 0.08199554208552964, 0.07953191560520119, 0.0770545731894293, 0.0746333647048648, 0.07219991985109482, 0.06984743653816951, 0.0674917168168428, 0.06525852257794508, 0.06299443417706009, 0.060752312299179725, 0.05858488849223373, 0.0564980656678135, 0.05439918863222489, 0.05235650266247971, 0.05034832827550852, 0.048375371143872664, 0.046466073836033524, 0.04462352483789937, 0.0427835893102488, 0.04106852483161256, 0.03928966632071507, 0.037609586833677947, 0.03600232268456343, 0.03441546293159618, 0.03287801103656573, 0.0314024981718437, 0.030028030262400675, 0.028587715057640208, 0.02729989177706367, 0.026025474877555677, 0.02475651603874683, 0.023593979021406527, 0.022507641410540638, 0.021381854677628865, 0.020382927787343776, 0.019461744834564164, 0.018545432946243903, 0.01763900453151679, 0.016885845822710886, 0.016074965084117248, 0.015441865908542707, 0.014778748657892428, 0.014183521360590206, 0.01361481176664871, 0.013174289993865424, 0.012750332346773679, 0.012355807113892262, 0.01204065961517437, 0.011760279437010272, 0.011573454433331302