0.031760206844807994, 0.03146550663464531, 0.03118811507822959, 0.030982261247244083, 0.030780960297789244, 0.03063660003582184, 0.030505862251423065, 0.030388690485748385, 0.03031763753132391, 0.030209001819815857, 0.030114435557785254, 0.030033828640596307, 0.0299949021219898, 0.029908742223891192, 0.029875423251716594, 0.029831821441724343, 0.02977250314042204, 0.02975527934591417, 0.029678817437713993, 0.029692269707161024, 0.029654076454401858, 0.02965676270100451, 0.029613002936995588, 0.029595983825636957, 0.029602294370545512, 0.029581281715410027, 0.029589614142138176, 0.02963280309012693, 0.029629689294202458, 0.02965609153183831, 0.029692581718269124, 0.029753878463243504, 0.029802620850173146, 0.029847835343126496, 0.029931943602113313, 0.029981295940085556, 0.030079393221784843, 0.030193564373843938, 0.030308011777078796, 0.03041929911551627, 0.030562484677380153, 0.030719764382531437, 0.030863115895199755, 0.031073979728513352, 0.03127828665122192, 0.03143612201840304, 0.0316612489378359, 0.0319241119523181, 0.032170577859862166, 0.03242804240858901, 0.0327105347244602, 0.03301061134992287, 0.03330134754871912, 0.03365944299618593, 0.033999780981829666, 0.034363318003482385, 0.034698980015686096, 0.035126103123385634, 0.03550533450336193, 0.03595954285957381, 0.0364015819846686, 0.03690611762918779, 0.03737236972146275, 0.03785012076799175, 0.038409772516677, 0.038948740601665206, 0.03946487422883667, 0.040065754249464, 0.04068561417298739, 0.041274485569132595, 0.04193243125655969, 0.04258878738597719, 0.043268055190637825, 0.043960669587165595, 0.04468797925214518, 0.0454375062267643, 0.046210858635255196, 0.04696042753921427, 0.04780723780755662, 0.04863043693950627, 0.049475301969453864, 0.05035206054126008, 0.05125950709088443, 0.0521667052384924, 0.053122529707050586, 0.054075595026553354, 0.05508964723716988, 0.056115485708601684, 0.05713549690984875, 0.05818304673576266, 0.05931760200660269, 0.06044378524561145, 0.06158525996094696, 0.06270933930852986, 0.06391241709127356, 0.0651566820835347, 0.06639025974796889, 0.06767936648933649, 0.06899865056714198, 0.07029497176828164, 0.07167327232331322, 0.07302306130663987, 0.07443436150041516, 0.07588608488625334, 0.07737298268322906, 0.07888535193479894, 0.08036913212092572, 0.08192821994283146, 0.08350694229850451, 0.08509862660515492, 0.08678905719651517, 0.08841764834969056, 0.09013839979456309, 0.09188912199061398, 0.09359765003223632, 0.09542399317635228, 0.09722302221758383, 0.09906077474281995, 0.10096512627064577, 0.1028378764621736, 0.10481379921101859, 0.10673624473597784, 0.10875008130447555, 0.11078285011363893, 0.11287045779795805, 0.11495702348364191, 0.11706213077157519, 0.11922442835459507, 0.12140159077159007, 0.12357336521077689, 0.12582978117304006, 0.12812520826518342, 0.1303934343541389, 0.13274834524494414, 0.13513421581649931, 0.1375208388318644, 0.13993298701250567, 0.1423912103929057, 0.14484204543342627, 0.1473312791007215, 0.14987158460664005, 0.1524786100119464, 0.15503770786272322, 0.1576838808930891, 0.16031113670745983, 0.16299904492815545, 0.1657095235691045, 0.16844195946505727, 0.17120634767014672, 0.17399482326770077, 0.17684853043849114, 0.17964082152550134, 0.1825094202749327, 0.18542514625863188, 0.18834406273182497, 0.19125065847389872, 0.19423696840041002, 0.19725209562637067, 0.2002428443689422, 0.20327128362763833, 0.20635195060967856, 0.2094191948750074, 0.21254455670381173, 0.2156562462493762, 0.2188471176269272, 0.22203064832131916, 0.22519891599322092, 0.22839499044488681, 0.23161280403377996, 0.23491198765327714, 0.23814178687090892, 0.24145939132834604, 0.24474497159982403, 0.2480506372329751, 0.25139794908927854, 0.25479623604097706, 0.2581405458930444, 0.26150621473007746, 0.26492303087789376, 0.2683534534269326, 0.27174145310033826, 0.27521064907913245, 0.2786709657255544, 0.28210414476318896, 0.28557283046158766, 0.289055846954661, 0.2925637966424954, 0.2960329839191643, 0.2995241943250926, 0.303051470137438, 0.30655499665528707, 0.31008934386271414, 0.31365250150977175, 0.31713780091584043, 0.3206847447808235, 0.32425644470719023, 0.3277697910332141, 0.33130544462695594, 0.3348433501854752, 0.33840814583278095, 0.3419482594409905, 0.3454523686439427, 0.3490135463324818, 0.35251890875318936, 0.35605457897032233, 0.3595784809267063, 0.36310601833328615, 0.3665823244339295, 0.37008507520078704, 0.37357953546916317, 0.37711518271168204, 0.3805613849830518, 0.3840282749189087, 0.3874484471835082, 0.39091451175818337, 0.39429302379910885, 0.3977163429101232, 0.40113343189921447, 0.4045237998081915, 0.40784031292845874, 0.4112271505136536, 0.4145585523449363, 0.4178494045800803, 0.42114220580258216, 0.42435285389756405, 0.4276270696293239, 0.4308219828095737, 0.43401736533549196, 0.43721586499901327, 0.4403651557479454, 0.4434684432919295, 0.4465748658995915, 0.4496439856691379, 0.4526528535671366, 0.45565532744242526, 0.45860579593339323, 0.46158979427105207, 0.46449469114868885, 0.4673221215414289, 0.47018510461352186, 0.4729770563329935, 0.4757880639737213, 0.4784800645841948, 0.4812204004237338, 0.4838422519629188, 0.4864838866185961, 0.48903504671519504, 0.4915608123235795, 0.49409524602437943, 0.49654821738605365, 0.498915931437376, 0.5012937338169401, 0.5036151258871348, 0.5058893777042738, 0.5081505642866935, 0.5103206410929756, 0.5124762629414344, 0.5145277842070436, 0.5165756357241893, 0.5185548046263591, 0.5205454289153323, 0.5224227775329576, 0.5242068227645555, 0.5260234965423487, 0.5277624421877786, 0.5294512216881075, 0.531076491843747, 0.5326443105446536, 0.5341626936424582, 0.5355987603408314, 0.5369956956565255, 0.5383711907743239, 0.5396788625162272, 0.540887101285291, 0.5420945431469569, 0.5431753796005886, 0.5442353038632745, 0.545255715407649, 0.5461882978085266, 0.5470678363837077, 0.5478915652243803, 0.5486491067874442, 0.5493164537582638, 0.5499442095266257, 0.5505583877068192, 0.551077288616905, 0.5514680000043263, 0.5518599689409724, 0.5521854382470561, 0.5524825868319393, 0.5526644296115822, 0.5527937097163895, 0.5528188189859747, 0.5528354531693077, 0.5527523949094207, 0.5526475310866458, 0.5524799031434185, 0.5521757054074011, 0.5518765961150099, 0.5514831612545043, 0.5510698235195179, 0.5505204651790546, 0.5499218362105107, 0.5492834513539475, 0.5485851109026265, 0.5478497950681189, 0.5469643611484248, 0.5460540960005397, 0.5450929697436808, 0.5440715707412238, 0.5429645991724916, 0.5418156836426558, 0.5405991934551049, 0.5392961229028809, 0.5379427035207047, 0.5365464218711242, 0.5350563582951909, 0.5335560761610991, 0.5319461779975451, 0.530282328480045, 0.528556052624034, 0.5267828906625189, 0.524963793567049, 0.5230390923686553, 0.5211084637066975, 0.5190790867423247, 0.5170048121708583, 0.5148859322666687, 0.5126734763387653, 0.510422228471258, 0.5081157349427912, 0.5057887750458404, 0.5033836724716596, 0.500897503528534, 0.4983679577605101, 0.4957892057669213, 0.4931855163558548, 0.4905102964499349, 0.4878027561839433, 0.4850235346102292, 0.4821472968272531, 0.4793067779329171, 0.47635287741985743, 0.4733834140253093, 0.4704235909799175, 0.46734869959224956, 0.4642228661322417, 0.46108901776273653, 0.45784966671134447, 0.4545993038304937, 0.4513318820535121, 0.4480136710070646, 0.4447038105747996, 0.44130580126324775, 0.4378614951799526, 0.4343768755486882, 0.4308399095209356, 0.4272916255596901, 0.4237470950694808, 0.4201259707729268, 0.41647495755587816, 0.41279878621295546, 0.4091282039491133, 0.4053644746828097, 0.40159357369147053, 0.39785055251907814, 0.3940459452037945, 0.39015177414104274, 0.3863364794295215, 0.3824154141098041, 0.3785335072726727, 0.3745612617098443, 0.3706517883746099, 0.3667058309679355, 0.3627091854831352, 0.3586629240532412, 0.3546921720310803, 0.35062598189005495, 0.34658306121512766, 0.3425489928609027, 0.3385126160694823, 0.334434351465129, 0.33033818120192526, 0.3262005997577086, 0.3221443718015073, 0.31800655785615983, 0.31391779214937876, 0.30983019599357337, 0.3056505524672028, 0.30156927556753965, 0.2974149763676905, 0.29333709066322544, 0.2892331123154571, 0.28510278268627276, 0.28097596668689545, 0.27688279106231695, 0.2727620558777173, 0.26870570196613314, 0.26459139186728176, 0.26055829122375934, 0.256432822706785, 0.2523867466997664, 0.2483711122361528, 0.24432116784099944, 0.24032171801853225, 0.23629786600532598, 0.23236703071450038, 0.228366569000177, 0.22440939091353687, 0.22048208870157937, 0.21658836833894474, 0.2126620824857158, 0.20880543963661344, 0.2049584097315887, 0.20112833135060984, 0.19730427039980888, 0.19353319001402822, 0.18980507974737956, 0.1860902809104916, 0.18237065904176328, 0.17872892525261738, 0.17509700542266005, 0.1714444814375797, 0.16786513336509187, 0.16434890777761071, 0.16083444655875, 0.15731739846918255, 0.153894377276803, 0.15043496173526616, 0.14709644779250622, 0.14370570773911603, 0.14040639061765348, 0.13715956816278316, 0.133913805537525, 0.130699911352578, 0.12750892809508463, 0.12439892405330125, 0.1213381394443258, 0.1182960606888138, 0.11527493243226487, 0.1122804580096373, 0.10938741763337487, 0.1064936541483712, 0.10362623638975986, 0.10080606409923, 0.09805767401866171, 0.09535413854098566, 0.09268064850847575, 0.09005471155512018, 0.08748115014808476, 0.0849058309821372, 0.08242859606317901, 0.07999260136176725, 0.07753888392409607, 0.07518092616825155, 0.07285738577276661, 0.07059080855817648, 0.06836211432793214, 0.06621304363938131, 0.06402238887994195, 0.06197656398445155, 0.05988619824815235, 0.057912590353039854, 0.05594260156013711, 0.05406134430517308, 0.05222445774478521, 0.05039164662141338, 0.04859448333855228, 0.04687968102624145, 0.04524336694638909, 0.0436242243985776, 0.042005886620563725, 0.04048448461872632, 0.038988480500235644, 0.037571146088674234, 0.03615542086222355, 0.03480304991602658, 0.03350770569202361, 0.03229086565313391, 0.03103947219732772, 0.02990987298397504, 0.02878370260833373, 0.02768883698820296, 0.026678937722794865, 0.025701995621227103, 0.024719704357410343, 0.02387449748174014, 0.023024296049258257, 0.02220462700448743, 0.02144287614541245, 0.02072961179860771, 0.020050737361332407, 0.01941172154749151, 0.018838367838127288, 0.018232116051171254, 0.01776588670363419, 0.017295561146002766, 0.016858806686863407, 0.01650451589712799, 0.0161056398290895, 0.015862589802836995, 0.015586942875376285, 0.015357737018442315, 0.015150086631634316, 0.01503561141018791, 0.01491111839420535, 0.014827043529587986, 0.014769585631798336, 0.014787106837421992, 0.014820564972686018, 0.014938162465263796, 0.015037515206048301, 0.015177159078695487, 0.015327513885986722, 0.015533329275146076, 0.01578476434893703, 0.01606882793633235, 0.01641928153979664, 0.016781829490796207, 0.01712107203731836, 0.017547694642714, 0.017965332725720665, 0.018432169767119148, 0.018965302065572603, 0.019514089506380096, 0.02006840501103428, 0.020675588587262688, 0.021273370851879546, 0.02195614378779023, 0.022612745635172033, 0.023354675658484668, 0.024067542628481875, 0.024822293427280553, 0.02562520071364836, 0.026479622643450874, 0.027292287394848368, 0.028176062899269962, 0.029084623588080137, 0.029977835577503605, 0.030932717411281264, 0.03193054313140707, 0.032915945975199735, 0.033904917509424, 0.03499883204777427, 0.03606178065674172, 0.03713870576928446, 0.03824613134104708, 0.039410009843043645, 0.040565051149563186, 0.04171849591777501, 0.042938488948968415, 0.044175227518683614, 0.04539376319707304, 0.04665348950252813, 0.04798772661270612, 0.04925117365701384, 0.05061687638891601, 0.0519649214300145, 0.05330379651379482, 0.05468427710372427, 0.0561287224772418, 0.05757047549733255, 0.05898958638079728, 0.06048315337182594, 0.06195802748554214, 0.06345578967583256, 0.06495972082347001, 0.06652580847245729, 0.06809660661694021, 0.06969158910994884, 0.07126499241895433, 0.07286777363494125, 0.07451328367322413, 0.07617758233803955, 0.07788034527274917, 0.07956643418500367, 0.08125089380481368, 0.08302178874126004, 0.0847524225919721, 0.08651291999065992, 0.08832585428048342, 0.09010234580917326, 0.09193105384331204, 0.09380987865521309, 0.09564183026357245, 0.09753238203699185, 0.09945973504239261, 0.10135400137624935, 0.10330979401206566, 0.10526861124582174, 0.1072904625451717, 0.10925338815517398, 0.11131327439812319, 0.11333065266536398, 0.11542962531172955, 0.11747067346466013, 0.11961759148443007, 0.12172017171911427, 0.12390226459197408, 0.1260807313230393, 0.12826953554940898, 0.13051277385932022, 0.13273832241442166, 0.13498518621995062, 0.1372853092249045, 0.13962866440033594, 0.14193081379012829, 0.1443405425857951, 0.1467102058495305, 0.14909538332141117, 0.1515467070207004, 0.1540097184374894, 0.15651585181812036, 0.15901405776134023, 0.16154927519856377, 0.16413684965885256, 0.1667200388826345, 0.16934100574268993, 0.1719894956382386, 0.17462672318525904, 0.17737815728169495, 0.1800817299656787, 0.18284918770659292, 0.18566519090667363, 0.18847169216625112, 0.19133977275669783, 0.1941701984842017, 0.19710737251566732, 0.20005507933625902, 0.20298881468726993, 0.2060376965263608, 0.20906153759866747, 0.21210735519924132, 0.21519533908615007, 0.21828728078041362, 0.22149622999517715, 0.22467989026145402, 0.2278803362913333, 0.231131042485037, 0.23445995773243478, 0.23775294860019608, 0.2411363249124023, 0.24448551428428142, 0.24789976109611528, 0.2513737721698061, 0.25490525738365194, 0.25838117914712416, 0.26194944903856054, 0.26555011283291335, 0.2691461023146004, 0.27284418659109017, 0.27651444854144225, 0.28022606214712725, 0.2839974662248042, 0.28783104808138354, 0.2916637126547595, 0.2955114062046378, 0.29943905932540205, 0.30335898632754593, 0.30733606635202837, 0.3113214582281171, 0.3153500875495568, 0.3194249452983615, 0.3235570450168114, 0.3277003744233532, 0.33184589296689393, 0.3361001228643594, 0.3403281192981711, 0.3445848590328785, 0.3488941210248778, 0.3532322822145188, 0.35763099063726606, 0.3620408915232775, 0.36645584924159635, 0.37088611282588924, 0.37539995675078325, 0.3799315128573896, 0.3845063639119042, 0.38906957898071654, 0.39370151122804536, 0.39836052615997136, 0.4030066254611321, 0.40770620742326524, 0.4124450837970661, 0.4172160883505393, 0.42197559721928946, 0.42677386136767476, 0.4315978364500284, 0.4364868251265752, 0.44133149489477197, 0.4462689577891584, 0.45118396549120143, 0.45610619181025025, 0.46107115659696396, 0.4660492992078766, 0.4710651786270843, 0.4760894785252712, 0.48116015475259305, 0.4861978175519598, 0.4912569424170902, 0.49638500467834795, 0.5014836429859814, 0.5065639702702749, 0.5116906557061471, 0.516874636170017, 0.5220320407939968, 0.5271813605443327, 0.5323392186454252, 0.5374915670230621, 0.5426731200614138, 0.5479178653648364, 0.5530804641451392, 0.5583220423941914, 0.5634727224096633, 0.568688453925399, 0.5738958676013348, 0.579101030616242, 0.5843056916733862, 0.5894633488949699, 0.5946668037566147, 0.5998440999601072, 0.6050171809973637, 0.6102068460604669, 0.6153254096915937, 0.6205231769262612, 0.6256342291733291, 0.6307624796826373, 0.635822005453223, 0.6409219158410413, 0.6460343130837067, 0.6510737415476663, 0.6560699516574201, 0.6611148029491437, 0.6660638128736863, 0.6710621285300905, 0.6760081981452989, 0.6809122609375049, 0.685736877289317, 0.6906381314998388, 0.6954037593614916, 0.7002218060800759, 0.7050043499314518, 0.7096876616076008, 0.7143652802988157, 0.7189979482408343, 0.7235925781767336, 0.7281975971817958, 0.732709726981528, 0.7371558825217865, 0.7415916149785564, 0.7459749189427411, 0.7503085936863497, 0.7545512749688146, 0.7588183576250891, 0.7629821104813171, 0.767137016170325, 0.7711570516802432, 0.7751811635671919, 0.7791537066624553, 0.7830696584302379, 0.7868694030133231, 0.7906929724979795, 0.7943430216468044, 0.7979978580566118, 0.8016048756734749, 0.8051229618871312, 0.8085319683450375, 0.8119040905397522, 0.8152345050057217, 0.8184771766131457, 0.8216011285608459, 0.8246869925308744, 0.8277163883433868, 0.8306290801836671, 0.833461914489885, 0.8362505040401953, 0.838945070410534, 0.8415461610113372, 0.8440675485804137, 0.8465660313026231, 0.848873322542277, 0.8511444759057404, 0.8533477253502392, 0.8554619673212256, 0.8574725802520495, 0.8593887740638623, 0.8612393679656128, 0.8629371339450623, 0.8646019355963042, 0.8661414059083252, 0.8676444179176839, 0.8689706975915715, 0.8702674800893242, 0.8714278464810321, 0.8725452544424575, 0.87350142840115, 0.8743783055535518, 0.8751751157434039, 0.8758564629323591, 0.8764645007635027, 0.8769623660498445, 0.8773490758756138, 0.8776202832733573, 0.8778422872426868, 0.8778891175252735, 0.8779014419410595, 0.8778053814212822, 0.8775728887538615, 0.8772297217270996, 0.8768191217367259, 0.87631105441236, 0.8756938109945798, 0.874920935027456, 0.8741342942291874, 0.873179935008123, 0.8721087400388533, 0.871007521811288, 0.8697291878182518, 0.8683917525760687, 0.8669526390865258, 0.8654354816123616, 0.8637527824772326, 0.8620250450672352, 0.8601411073216194, 0.8581899109903065, 0.8561344243268989, 0.8539687615885152, 0.851728047099451, 0.8493696129615211, 0.8469265003823341, 0.8443791531626457, 0.8417495438700232, 0.8389856141505979, 0.836155325008406, 0.8332291801075611, 0.8301838504628093, 0.8270601609436041, 0.8238318353595117, 0.8205363762837836, 0.8171224372681549, 0.8136595841739146, 0.810103167799065, 0.8064234823202867, 0.8026941871789084, 0.798836147149777, 0.7948982964817304, 0.7909414365677394, 0.7868224574231952, 0.7826255827831988, 0.7784096318536474, 0.7740838100214571, 0.7696966305178691, 0.7652146696678678, 0.7606114694502345, 0.7560252740613809, 0.7512943055748448, 0.7465245430770818, 0.7416719580705549, 0.7367750002658899, 0.7318090326164025, 0.7267561881985909, 0.721681668128623, 0.7165032955539677, 0.7112846272888457, 0.705994222411759, 0.7006332604160688, 0.6952295600519219, 0.6898070467806308, 0.6842852358174407, 0.6787591463180717, 0.6731131536439507, 0.6674774337275926, 0.661791908866308, 0.6560794427340546, 0.6502713526409915, 0.6445025312933214, 0.6385905105113062, 0.6327040685383525, 0.6267922980912406, 0.6208679275427539, 0.6148363058011733, 0.6088690085665511, 0.6027845218645528, 0.5967246147764073, 0.5906323965252815, 0.5845577710545706, 0.5784195640441786, 0.5722481467819746, 0.5661007842577259, 0.5599457841096362, 0.5537539929102225, 0.5475307044505204, 0.5413459506225463, 0.5351468471517897, 0.5289451751054103, 0.5226907502753216, 0.5165050233801548, 0.5102656044631787, 0.5040937884964034, 0.4978921742617896, 0.49167846147687355, 0.48554518675866853, 0.47933835960933346, 0.4731550179059275, 0.4670618655174344, 0.4609349881607773, 0.45478953997333377, 0.4487089786016152, 0.4426723162467369, 0.43659626070675256, 0.43062641860139234, 0.42459936904620826, 0.4186721891454178, 0.41272848224587544, 0.40684569884988864, 0.40098602639502323, 0.39519007039870035, 0.3893898113510323, 0.3836467497595176, 0.3779250461609028, 0.37229680867402265, 0.3666524885792051, 0.36110000581964335, 0.3556018120028547, 0.3501345230756696, 0.34468013008367926, 0.339333258503944, 0.3340089587320149, 0.3287435307069715, 0.32355258802534986, 0.3184015337267493, 0.3133063345914382, 0.3083062471119541, 0.3033039379941195, 0.2984205301549224, 0.2935913971201529, 0.2887862066110609, 0.28407653796100063, 0.279484383152465, 0.2748915597126356, 0.27040540790261663, 0.2659289879266308, 0.2615705114724024, 0.2573063584016447, 0.2530968483654126, 0.2489599636162062, 0.24484350138439678, 0.24084357245643126, 0.23692866781123198, 0.23310484017411187, 0.22936519996807703, 0.22566977664218302, 0.2220401302095319, 0.21855497620775707, 0.2150747316500487, 0.21168529220900212, 0.20839721034411746, 0.2052004520743838, 0.2021185022011599, 0.19902939944029874, 0.196068583234806, 0.1931816226869625, 0.19041704236016946, 0.18768908458823796, 0.18502894464389227, 0.1824753996132135, 0.1800225776766266, 0.17768063113206584, 0.1753671922972268, 0.1731235776755439, 0.17098573312500567, 0.16890629519041225, 0.16696551140214194, 0.16505297339794592, 0.1632802270949774, 0.161502103725808, 0.1598665946973367, 0.1583125641367194, 0.15682211616060046, 0.15545836525732168, 0.15408874399812908, 0.15285110586336828, 0.15166860304465948, 0.15059239904215752, 0.14958812991267384, 0.14867650903561613, 0.1477538675789666, 0.14700476916168864, 0.14627333659761024, 0.14562085989304346, 0.14506466494152356, 0.14461168134958613, 0.14418371188090914, 0.14379990512280932, 0.14354067486869784, 0.14331254150911726, 0.14316734660106537, 0.14306382611845236, 0.14303810185989582, 0.14308846541524098, 0.14322751466869235, 0.1434306635606772, 0.14361186593693845, 0.1439409912818912, 0.14427214501553845, 0.14467492766587442, 0.1451701002211039, 0.1456759658199876, 0.1462439527445397, 0.14682587521646612, 0.14752391600578738, 0.14824864052828052, 0.14903626040962756, 0.1498658343059121, 0.15068991279723615, 0.15163992941300092, 0.1525690833497323, 0.1535157769947636, 0.154587870540962, 0.15562583067716249, 0.15672824873088878, 0.15791418257373727, 0.15906507420916538, 0.16024224524465888, 0.16146004234618738, 0.16272793377605418, 0.16401524460388028, 0.16534302619532726, 0.16667759792880155, 0.16802145176617284, 0.16941500695708447, 0.17083679375086488, 0.17219968523821177, 0.17368661648376038, 0.17508772359463612, 0.1765365002343583, 0.17802028766143885, 0.17949686322346936, 0.18100878023374697, 0.1824702632881533, 0.18402074636064547, 0.18549315651813578, 0.18698762971206842, 0.18853111968579903, 0.18998829838544637, 0.19152918031736718, 0.19298904190311053, 0.1945091337611324, 0.1960070135081601, 0.19746017002763377, 0.19894780177821547, 0.20037190397457316, 0.20181837181768625, 0.20322910266362165, 0.20468415682096605, 0.20603902935290444, 0.20742283199049646, 0.20879082082555003, 0.21010170101566247, 0.21146306455756322, 0.21269725640163983, 0.2139893054184753, 0.21517944420467974, 0.21639740276708935, 0.21757467763284033, 0.218721964193801, 0.21983992699891877, 0.2209391446211879, 0.22199485500654623, 0.2229733141913026, 0.22397686769532277, 0.22487650944403909, 0.22577454950137107, 0.22668780741365985, 0.22748227773274937, 0.22825143615079085, 0.22896941357553674, 0.22969711683098024, 0.23035060170897484, 0.2309208389557314, 0.23148194646394196, 0.2320151906706635, 0.23247961562658473, 0.23291195170076864, 0.2332641338219677, 0.23357661129624152, 0.2338450531703253, 0.23406528974247287, 0.2342281771077837, 0.23437301942405767, 0.23440417049720516, 0.2344295606006035, 0.2343994379952937, 0.2343312308476753, 0.23413182514012446, 0.23392833690808554, 0.2337179619283789, 0.23338159570107037, 0.23298335675331194, 0.2325898382030411, 0.2320969504423922, 0.2315564532488798, 0.2310081858795459, 0.23037323686498004, 0.22964127470801307, 0.2289250485743704, 0.22807080865787066, 0.22721962219081937, 0.22628129819912207, 0.22531836811879927, 0.22432070940186763, 0.22320197535932945, 0.22207975420162676, 0.22088493128331377, 0.2196346317958709, 0.21836464785912466, 0.21697400562777716, 0.21561646161934314, 0.2141058315540267, 0.21260142426325412, 0.21109193928183134, 0.20947770153606218, 0.2078310546887473, 0.20605592917531257, 0.2043632055185509, 0.2025297655397039, 0.20070324328446207, 0.19881850792865446, 0.19684533603362417, 0.1949082015115036, 0.19285356401100467, 0.19081118213415763, 0.18866636188344654, 0.186563524149768, 0.18433005517785056, 0.18215596569097972, 0.17987462570044135, 0.17755905156164373, 0.17522718120645708, 0.17288724350901638, 0.17048113749081034, 0.16802293045732128, 0.16555975558712036, 0.16308862294457505, 0.16057334152410724, 0.15803434058720023, 0.15541794163648825, 0.15285513207350582, 0.15020593243138516, 0.14759358122676122, 0.14495542050681748, 0.14226115000077838, 0.13956754500718166, 0.13683609042345124, 0.1341000771263339, 0.1314093118865903, 0.1286308588682252, 0.12586898504267763, 0.12310825958672529, 0.12032057602195712, 0.11757579918410144, 0.11474801628122829, 0.11200261895914221, 0.10916580652316112, 0.10642665799811238, 0.10363100451744121, 0.10082118609614966, 0.09804108512844313, 0.09528686700571162, 0.09253228305462406, 0.08979440665936647, 0.08702637511219138, 0.08433068766708061, 0.08160087316405026, 0.07891006524579258, 0.07625566835573037, 0.07357784840040504, 0.07094682075661367, 0.0683607700268188, 0.0657486803157936, 0.06322026455563674, 0.06070339601559266, 0.0581701714430918, 0.05571427977959163, 0.053289999504145515, 0.05086994842673562, 0.048531156081322996, 0.04621523918221856, 0.043888197891562994, 0.04164849008700093, 0.039476390956813524, 0.03729982265404756, 0.03520881024969161, 0.033133649909108415, 0.03112595095599651, 0.029162427462760324, 0.02720658752029026, 0.025356220965586887, 0.023572976433145876, 0.021821007449279083, 0.02014657830203992, 0.018496204738928674, 0.016929909994460594, 0.015410806174015136, 0.013936647003972479, 0.012567409672938994, 0.011262303108835438, 0.01002577634816585, 0.008814050833818095, 0.007728334511304487, 0.006666588643279495, 0.005676692634964077, 0.004798864605707912, 0.003986396928113659, 0.003197581273672515, 0.002543213986021817, 0.0019342974268164166, 0.0014345005863457233, 0.00099762814714444, 0.0006450621850942472, 0.0003572347853572705, 0.0001481587518336258, 4.966036455486955e-05, 0.0, 9.748791709014708e-05, 0.00023090488087032038, 0.0004737030722517496, 0.000780643399124578, 0.0011842763006413939, 0.001676315188597703, 0.00227818277485191, 0.0029179283091725133, 0.0036815208616470816, 0.004553286890995024, 0.005535838767471107, 0.00652262285991043, 0.00770292210295052, 0.00890561727091667, 0.010209819752769652, 0.011654340062702018, 0.013168113964898085, 0.01475320529167677, 0.016497469065051347, 0.018273325042569833, 0.020136775509541797, 0.022124928331271818, 0.02421871938548033, 0.026426422952777903, 0.028702763622729166, 0.03105806309941684, 0.03355574030553333, 0.03609804151464686, 0.03873728610871514, 0.04152598370562072, 0.04437381412634036, 0.04732601221211567, 0.05036277277240062, 0.053498509027575226, 0.05674529755635115, 0.06010048702772045, 0.06351193279574069, 0.06704543927155424, 0.07065811537890822, 0.07440663084837243, 0.07820006985654086, 0.08206638119508865, 0.0860646273008803, 0.09016983378653563, 0.09430419449840297, 0.09856211892241326, 0.10296563981816659, 0.10739269838581456, 0.11193525108196624, 0.11654769156469354, 0.12122439977671381, 0.12603898628895122, 0.13089784597070545, 0.13586582809525827, 0.14091982872122444, 0.14609458048853977, 0.15128945124283932, 0.15657098709374123, 0.16194452401432985, 0.16736933750646313, 0.17294108143249584, 0.1785399048398254, 0.18419961258708067, 0.1899861977173936, 0.19579024235689554, 0.20166469890005467, 0.20765606684168778, 0.21370256829723003, 0.2198550704019061, 0.2260194767216522, 0.23226042415141057, 0.23857235273813923, 0.24490646622408999, 0.25135807206798977, 0.2578543030451415, 0.2644032555180206, 0.27098105454344035, 0.2776860519464144, 0.28438618039802555, 0.29114176384771345, 0.29796975837034834, 0.30488729781216567, 0.3117852541779448, 0.3187460632777448, 0.3257376449243467, 0.332833027500485, 0.33989556698627327, 0.3470781588744893, 0.3542122449984338, 0.3614518675495305, 0.3686837656062696, 0.375932838857498, 0.3832599502619869, 0.3906014273909791, 0.39797807687744113, 0.4053720669849063, 0.4128226790624374, 0.42022767242382436, 0.4277292620437933, 0.43515917993556347, 0.44272503915709993, 0.45018826652870536, 0.45776787262852486, 0.46526135924556694, 0.4728172093735296, 0.4803993574923654, 0.4879489338253832, 0.49554790429815354, 0.5031137924667964, 0.5107133006101842, 0.5182835091052529, 0.5258472892218631, 0.5333874369336262, 0.5409929964836494, 0.548516497959506, 0.5560602013023642, 0.5635926902512575, 0.5711503020614117, 0.5786449405186929, 0.5861244151578644, 0.5935781639914165, 0.6010590832224771, 0.608427704727243, 0.6158799425417433, 0.6232142753432273, 0.6305878456749581, 0.637895650498736, 0.645213870408539, 0.6524186439445507, 0.6596506792337973, 0.6668060742190636, 0.6740058073748546, 0.6810811899227237, 0.6881215066402294, 0.6951284186775369, 0.7021435937476168, 0.7090070835574735, 0.71591357923342, 0.7227210528877809, 0.7294893510580238, 0.7362146378606796, 0.7428963351773573, 0.749473103612624, 0.7560346410675577, 0.7625464557688788, 0.7689357479844472, 0.7753325559448703, 0.7816011084174876, 0.787822356808808, 0.7940216216827273, 0.8001030518428228, 0.8061255856894316, 0.8121135623617202, 0.8179650293837573, 0.8237565911265137, 0.8295267902114464, 0.8351577926769382, 0.8407532844585776, 0.8462175196789218, 0.8516622533978099, 0.8569714077105813, 0.8622724448018843, 0.8674371901471749, 0.8724855411372606, 0.8774965172449287, 0.882428166668157, 0.8872102588145944, 0.8919290967270633, 0.8966147940251594, 0.9011476957812066, 0.9056024070467216, 0.9099454432755079, 0.9142329575335061, 0.9183777919918574, 0.922441218571781, 0.9264282936466958, 0.9303180145276725, 0.9340833341790812, 0.9377724590127804, 0.941384296738314, 0.9448148236387888, 0.9481963933247053, 0.9514979295710192, 0.9546745929085761, 0.9576950458398902, 0.9606942241310515, 0.9635517131693199, 0.9662680217836299, 0.968912790177909, 0.9715000143772706, 0.9738825136141644, 0.9762560758791342, 0.978446710748709, 0.9805806426178072, 0.9825650841479809, 0.9844417666330602, 0.9862392814498941, 0.9879189186093573, 0.9894819744951305, 0.9909406381098964, 0.9923323658972186, 0.993555318866553, 0.9946608058609612, 0.9957103731207291, 0.9965955320786931, 0.997439545438216, 0.9980999498685744, 0.9987194058037829, 0.9991540507736222, 0.9995478025073545, 0.9997855154830774, 0.9999498894916372, 1.0, 0.9999027216526513, 0.9997593642236661, 0.9994875541384702, 0.9990762916467926, 0.9985808466650095, 0.9980111498888095, 0.9972728321334441, 0.996467442768292, 0.9955667933964917, 0.9945514929473036, 0.993388748272181, 0.9922026828619215, 0.9908771609426927, 0.9893994889692913, 0.9878927968713884, 0.9862561849810327, 0.9845327517469749, 0.9826855567829041, 0.9807377417262007, 0.9787401854444345, 0.976574832117811, 0.9743615678949672, 0.9720659273829967, 0.9696313540469929, 0.9671275649381307, 0.9645119279399212, 0.9618483429915314, 0.9590522472453733, 0.9561907890580824, 0.9532513637806529, 0.9501944354734544, 0.9470377503296656, 0.9438449730673689, 0.9405106984307489, 0.9371677844015754, 0.933638098419898, 0.9300908015939261, 0.9264765070135641, 0.9227670599287282, 0.9189971570326844, 0.9151337437459233, 0.9112054761071106, 0.9071657857820384, 0.9030790788082688, 0.8989304001040669, 0.8946995401335978, 0.8904178751630858, 0.8860596473666742, 0.8816403848044703, 0.8771300792352622, 0.8726181414124318, 0.8679708751470612, 0.8633095559145366, 0.8585839045822432, 0.8537915325553219, 0.8489562026219692, 0.8440254613373078, 0.8390996249108472, 0.8341137668355598, 0.8290154071976921, 0.8239318443961309, 0.8188139573173809, 0.8135640223418507, 0.8083499777968829, 0.803106306798549, 0.7977599943015806, 0.7923815990310878, 0.7869985157904453, 0.7816035169323691, 0.7760947520343957, 0.7706143466060501, 0.7650745836756154, 0.7595404387664174, 0.7539356130321933, 0.7483354543652191, 0.7426935693605412, 0.7370230483626907, 0.7313078320300597, 0.7256018489643477, 0.7199356893876067, 0.7141805226923229, 0.708419708740916, 0.7026166163852617, 0.6968820439633452, 0.6910655811983483, 0.6852752595362983, 0.6794600878855148, 0.6736273763004637, 0.6678101402291751, 0.6620142436805835, 0.6561493811281931, 0.6503714856649951, 0.6445379486905919, 0.6387077699102698, 0.6329211676670319, 0.6271019324128828, 0.6212544392767273, 0.6155040409851774, 0.6096855945606612, 0.6039737979603294, 0.5981828674299776, 0.592464748398381, 0.5867096246238567, 0.5810127707183029, 0.5753063022549387, 0.5696421190043566, 0.5640123642396161, 0.5583991737656455, 0.5528059188044294, 0.5472172744964834, 0.5417225117605649, 0.5361407464762767, 0.5306863374264212, 0.5252085246645792, 0.5197946769923042, 0.5144014797407562, 0.5090547291948871, 0.5037369619354699, 0.4984838889083096, 0.49320758685579025, 0.48802643306587135, 0.4828419923018136, 0.4777448702325843, 0.4726495785678429, 0.4676381698246596, 0.4626549560347053, 0.45767116519040185, 0.45282176608192615, 0.44796848812729334, 0.44314443817438026, 0.4384013338448641, 0.4336916544149921, 0.4290569494208186, 0.4244901246787583, 0.419969593769943, 0.4154262760912727, 0.41103777989062495, 0.40664711969156153, 0.40234448761078534, 0.39809328700023716, 0.3938401190736652, 0.38971769719665705, 0.3856481977726126, 0.3816211244287294, 0.37761968798133977, 0.3737741118428374, 0.3698869723824984, 0.3661150530500407, 0.36242212251883094, 0.3587280972085648, 0.3551312792091306, 0.3516049233626705, 0.3481608656603689, 0.3447404860614435, 0.34144576646978686, 0.3381407563646386, 0.3349798434245836, 0.33177582589893995, 0.3287415703905052, 0.3257030870953982, 0.32275717984031765, 0.31986678173639627, 0.3171049432347986, 0.31432661065939604, 0.31168081117947805, 0.3090358277096036, 0.3064774082898875, 0.30401372247719144, 0.3016090615008242, 0.2992975287441251, 0.29697078645117236, 0.29476386534218657, 0.2926127264640903, 0.2905558538885511, 0.28855907880154075, 0.28655396817632217, 0.2846688655875539, 0.2828743894043687, 0.28109131157641504, 0.2794233283817347, 0.27776942274905747, 0.2762081781817969, 0.27473955374523096, 0.273265001359873, 0.2719300596451805, 0.27058653823507545, 0.2693685276844486, 0.26812724389313225, 0.2669982591535501, 0.26593233927984783, 0.2649121408791338, 0.26396478037734283, 0.2630365352019384, 0.2622452849595804, 0.2614191102806987, 0.26072691552158206, 0.26002433074276465, 0.25940342445727876, 0.2588218023056358, 0.25832576091835957, 0.25788265382088543, 0.2574348933417902, 0.2571148247645088, 0.2567939869017585, 0.256509689996893, 0.2562925915738652, 0.25614423108569273, 0.2560003767573363, 0.2559278334173947, 0.25587873393039623, 0.2558630850248621, 0.25592081777162784, 0.2560232646576426, 0.2561842123979869, 0.256342768755718, 0.2565270500857454, 0.2567480139637657, 0.2570441311308187, 0.25733729625634166, 0.2577401094763258, 0.25806730213480295, 0.2584652861463168, 0.2589538658992354, 0.25936449897283914, 0.2598689535439097, 0.26040906689158205, 0.2609318421513026, 0.2615147009332844, 0.2621133155912644, 0.26275311323791556, 0.26334511188626963, 0.26400617583816854, 0.26470964476385556, 0.2653859717024798, 0.2661030857054843, 0.266819665113382, 0.26753372741571374, 0.26828435590168803, 0.2690651636600608, 0.2698303425496549, 0.27060284945812446, 0.271416143129055, 0.2721959323623997, 0.27296536253004766, 0.2738085020811965, 0.2745806715456906, 0.27543695010649305, 0.2761950494506638, 0.27700979366065587, 0.27783120053079524, 0.2786162438062143, 0.27946613115453434, 0.2802197798643725, 0.2810079112867477, 0.2818045273939085, 0.28256868051513884, 0.2833457236070988, 0.28409177588000134, 0.28482401995877654, 0.28555343856235227, 0.28626544367719775, 0.28692989222942916, 0.28762472860443794, 0.2882849978232914, 0.288934273885406, 0.2895477336174374, 0.2902052657958868, 0.2907523911189447, 0.29131605043270903, 0.29186644086625924, 0.292394528283912, 0.2928606267536593, 0.29330755614196635, 0.29375355723346297, 0.29417619681296336, 0.2945246421651116, 0.29486798549318627, 0.295203023846085, 0.29549307295794597, 0.29571508066268104, 0.2959831406079522, 0.2961643222807918, 0.29626447614632057, 0.2963994698973792, 0.2964771013278859, 0.29652512126231556, 0.29654683682532457, 0.29653782513349014, 0.2964461776314356, 0.2963345590778666, 0.2961590140728719, 0.29598060031684337, 0.2957754260965567, 0.29546917764429187, 0.29514615161274665, 0.2947989593678817, 0.2944295016586156, 0.29396455784689723, 0.2934600500044842, 0.29297796435994544, 0.2923589966592008, 0.29177070152783025, 0.29109336291218385, 0.29033726193421855, 0.2896218336308973, 0.288799979308253, 0.2879662109734374, 0.28710453894450666, 0.28615441997657287, 0.28511542745802493, 0.28413488647447904, 0.28303178993812805, 0.2818849826860664, 0.2807171338474421, 0.27954679908308827, 0.2782305915099923, 0.27691400428779034, 0.27557937459915244, 0.27419527905087465, 0.27270083534060685, 0.27124883602392263, 0.2696869536359249, 0.26808071426759483, 0.26646868975394744, 0.2647623959112181, 0.2630869666784986, 0.2612917260557878, 0.2594797398771942, 0.257641960171273, 0.25574880688142493, 0.2537821410805252, 0.2518214811059015, 0.24980791974723995, 0.24771894341925552, 0.24561962839785337, 0.24348054664563892, 0.24134516791176325, 0.2390658419991522, 0.23683029585737259, 0.23456057704105898, 0.23223133860320266, 0.22986487897178057, 0.22745856353948235, 0.22502208035123178, 0.2225656611587126, 0.2200254163480665, 0.2174941376751676, 0.21493195954941238, 0.2123673187554515, 0.20977546891866058, 0.20708505964890958, 0.2044003670490641, 0.2017034919723393, 0.19897814365973718, 0.19624981594588192, 0.19348732208413888, 0.19064367013281874, 0.1878514325600633, 0.18504224909743508, 0.1821642640659919, 0.17927964312713288, 0.17640569112435756, 0.17348682528429596, 0.17055124107706104, 0.16761694411175151, 0.16466941779616606, 0.16175080495340954, 0.1587569969382837, 0.15578206625433685, 0.15280012181527766, 0.14985011093161213, 0.1468100754023869, 0.14385161752090173, 0.1408545653629303, 0.1378621074639665, 0.13482270591450343, 0.13183968054395584, 0.12883026995166796, 0.1258628589952025, 0.12292762062923365, 0.1199269180838434, 0.11693928627788827, 0.11402261242638961, 0.11104062693061671, 0.10811482679258183, 0.10523212834157782, 0.10232614322756756, 0.09940448321949526, 0.09654687219900274, 0.09371281663965994, 0.0909285801785141, 0.08810603752073866, 0.08529490939011185, 0.08259509291564375, 0.0798477898856966, 0.07713246006831288, 0.07449076529803762, 0.07185789434399877, 0.0692666037174197, 0.0666542357458703, 0.06416998004810254, 0.06166445991849337, 0.05917521726008381, 0.05678980914419191, 0.05441707175734388, 0.05208764963773403, 0.0497431424604151, 0.047551883748457556, 0.04530799030754797, 0.043163312092679734, 0.04104799322380725, 0.038995595450647354, 0.03699710341258519, 0.03504403199934649, 0.03317461487416518, 0.031308197549984054, 0.029529334863244616, 0.02780933826291673, 0.026104270110260085, 0.02453466808332843, 0.022939136048315784, 0.021484456870125918, 0.020021613134828215, 0.018694882333025523, 0.017376473127440187, 0.016160330668572392, 0.01500687886201338, 0.013905016768435993, 0.012851327975705035, 0.011935476340638825, 0.011050473505888786, 0.010213835462798363, 0.00949431149456419, 0.008827633939069107, 0.008263282192014585, 0.007768245755047305, 0.00730036809140604, 0.0069379796759446305, 0.006676477422617496, 0.006495837473359309, 0.00636692455078581, 0.006312993297948532, 0.006393657003898492, 0.0065165419724952135, 0.00671829588528139, 0.007042145535259641, 0.0074136004249297895, 0.007889391516839568, 0.008416382280203206, 0.009083646654026991, 0.009795758091899108, 0.010579094021887222, 0.011519398102685577, 0.012469205170020784, 0.01357375911556892, 0.014770612293709582, 0.016025329921074742, 0.017372993113591993, 0.018795265525449377, 0.02031273649543887, 0.021927625974898494, 0.023643853968706722, 0.025447426365842823, 0.027326525356451116, 0.029323610050359057, 0.03140399530730573, 0.03357869013033227, 0.035785267445508556, 0.03816578118153721, 0.040614613932754215, 0.04312314957137543, 0.04574606266308778, 0.048492069578472866, 0.05130596762314898, 0.054158431161300834, 0.057152114306746216, 0.060212714730681606, 0.06338348637544039, 0.06665655025503886, 0.06998729036410588, 0.07344866949607806, 0.07693692880512075, 0.08061357129213158, 0.08424635021978212, 0.08803222028140072, 0.09193286981976694, 0.09590252910308064, 0.09991359097110704, 0.10407099933590168, 0.10829139859895, 0.11255514563316804, 0.11699284566409446, 0.12141522175386042, 0.12598331206139407, 0.13058590433355988, 0.1353037406440147, 0.1401110063620517, 0.14498882128144389, 0.14993551160080654, 0.15492091727665044, 0.16000827727028843, 0.16518942822113422, 0.17041891082528904, 0.1757621347721984, 0.1811485723436703, 0.18662762926019205, 0.19212041732828367, 0.19775205955077704, 0.20342048587598513, 0.20913788045722867, 0.21493130180725983, 0.22079707168369325, 0.2267019332359647, 0.23271017700806795, 0.23869865815390356, 0.24485214329717203, 0.2510051021685181, 0.2572277089153015, 0.26345309234792824, 0.2697616826059499, 0.27614214436029727, 0.28257467039144535, 0.2890671159622667, 0.2955998683712337, 0.3021108008561356, 0.30876127549084353, 0.31537202776161516, 0.32206374969022195, 0.3287975373720124, 0.3355563560619702, 0.3423649323437286, 0.34919507399503646, 0.35610433303607714, 0.36296346886420333, 0.3699023847460552, 0.3768518000779272, 0.38386107864940844, 0.39083583210144807, 0.39790061213176203, 0.4049293869496799, 0.4120101975344249, 0.4190979529205421, 0.42619451480711235, 0.4333021510302088, 0.4404663878900544, 0.447604433093402, 0.4547468433747268, 0.461913095977952, 0.469047961475124, 0.47620873505624667, 0.48339656080104015, 0.4905839999202104, 0.49771575795270717, 0.5048964302425724, 0.5120299594169531, 0.5191896889946114, 0.5263402990593286, 0.5334431488588031, 0.54059595444432, 0.5476576437860303, 0.5547483505034106, 0.5618414668430748, 0.568861645546463, 0.5758722021459262, 0.5828664253124919, 0.5898732315996567, 0.5968228351227172, 0.6037299009935944, 0.6105845904933805, 0.6174694836018656, 0.6242653978463211, 0.6310322108761164, 0.637806134564555, 0.6444884083348904, 0.6511869923803312, 0.6577994864090844, 0.6643587168508377, 0.6708538201522055, 0.6773427050694403, 0.6837616114487671, 0.6901386775448876, 0.6964749039086214, 0.7027373545961445, 0.7089681482683652, 0.715137124210708, 0.7212187587372395, 0.7272459601435595, 0.7331851768830597, 0.739122355995488, 0.7449185204296179, 0.7506880796011302, 0.7563963583777795, 0.7620401603288522, 0.7675784677120915, 0.7730914690098994, 0.7785029656841098, 0.783817358439751, 0.7890493845350293, 0.7942631853253769, 0.7993556641290147, 0.8043623770439295, 0.8092517087622281, 0.8141361182912902, 0.8188988014034709, 0.8235577063769315, 0.8281630301909594, 0.8326331287875536, 0.8370332441325727, 0.8413662228147137, 0.8455746641263564, 0.849697439359074, 0.8537464393204247, 0.8577095421505532, 0.8615221141289726, 0.8652842543017013, 0.8689030590151555, 0.8724828936899801, 0.8759135159624921, 0.8792192199353216, 0.8825125455361849, 0.8855966072932683, 0.8886352470672548, 0.8915949758590828, 0.8944107648003009, 0.8971508891395623, 0.8997646106002757, 0.9022339133565439, 0.9046285795882192, 0.9069607774860331, 0.9091490461610501, 0.9111832334287349, 0.9131772917544517, 0.9149883882793837, 0.9167480805059899, 0.9184041403164706, 0.9199004947786578, 0.9213062973419204, 0.9226416985817801, 0.9237984322207742, 0.9248529604961595, 0.9258727227092485, 0.9266801004378149, 0.9274227128411869, 0.9280450695180641, 0.9285872955741519, 0.928962657981202, 0.9292648447548894, 0.9294477459823849, 0.9295109693594316, 0.9294508540651906, 0.9292721512872387, 0.9289943255331818, 0.9286555037998331, 0.9281566105576516, 0.9275322079434819, 0.9268246800536274, 0.9260175994160469, 0.9250536156219221, 0.9239977900898375, 0.9228894884373717, 0.9216208007769541, 0.9202232119698477, 0.9187602456095357