0.04798792924449711, 0.04777859940757798, 0.04756358096368029, 0.04741651173226712, 0.04722783727833313, 0.04709229985095904, 0.04699881170037226, 0.04684570542090344, 0.046720866649313464, 0.04663944931321956, 0.046538692466735816, 0.046443692691497195, 0.046340307583077, 0.046267393812790096, 0.04620293298576537, 0.04608471908571723, 0.04600596019141271, 0.045932265321093645, 0.04584464654616991, 0.045791053088054215, 0.0457299752905794, 0.0456423176283567, 0.04559755580504303, 0.0455284064711794, 0.04547197749711287, 0.04536280381492461, 0.0453379889379125, 0.04528771757736579, 0.04522399287689501, 0.045179272184402264, 0.045151302135255596, 0.04510607978284488, 0.04510083460697952, 0.045043782850655696, 0.045058866837754674, 0.04503366044127319, 0.04499766106324183, 0.04501377556857049, 0.0450049167664767, 0.04501829452171083, 0.04501557833406042, 0.04505553549512649, 0.045056428734691976, 0.04510951773025327, 0.045136792385279054, 0.04520665410528977, 0.04524721498034633, 0.04530721663704437, 0.04538470404236294, 0.04548014778171748, 0.04555734925729968, 0.04565654377492071, 0.04573260003012196, 0.045842673404586316, 0.04600902165154249, 0.04613479014756727, 0.04625014447487698, 0.04639733552358232, 0.04654636642901269, 0.0467167886150961, 0.046857546528644434, 0.04704614385468059, 0.047264162701316684, 0.047471378090187505, 0.04768730961948892, 0.047907210722309, 0.048119007721616244, 0.04835425084304339, 0.04860010814108208, 0.048883720870443674, 0.049165361311468495, 0.04944493240294493, 0.049729040729546974, 0.05003269463347207, 0.05030880352330334, 0.050650498832739796, 0.0510106813308454, 0.05131498563524736, 0.05167162332587997, 0.05205976017464805, 0.05246971612401006, 0.052865703211700164, 0.05323024610781199, 0.05367765620113234, 0.05406105028872187, 0.05452976091539899, 0.05498485519718235, 0.05541580188173658, 0.055921830007855916, 0.05637401445270364, 0.05688068236565929, 0.05741411406019643, 0.05791989727162028, 0.05846131536452214, 0.05903134664696871, 0.05958856395146363, 0.0601811871290722, 0.06078254843332215, 0.06134201065483612, 0.061978274496643365, 0.06262625952214758, 0.06324993167776276, 0.06391567131257253, 0.06458746577976207, 0.06527717552050505, 0.06600898179492881, 0.06669839625014994, 0.06741023870093828, 0.06817430989009948, 0.06890399708378028, 0.06971192124726408, 0.07053949682741964, 0.07133445659071923, 0.07214672610282992, 0.07294767535226457, 0.07382158195943471, 0.07466466818757675, 0.07554266383897064, 0.07643282951243126, 0.07738121017133252, 0.0783098245812205, 0.0792351346306693, 0.08017648497149431, 0.0811306294258854, 0.08214402153398699, 0.08314954700525119, 0.0841255395998424, 0.08518097629927568, 0.08621449515014987, 0.0872906568150296, 0.08834906538451669, 0.08941469951276139, 0.09053371041970767, 0.0916393833818761, 0.0928247279016789, 0.09393113393422552, 0.09509231618873629, 0.09627704605505803, 0.09746824941570346, 0.09866283895520099, 0.09986665478253705, 0.10111607845150708, 0.10235008781694167, 0.10361968690200822, 0.10486609554366855, 0.10615774610598704, 0.10747893650920935, 0.10876067387336441, 0.11010465371249516, 0.11144873878200835, 0.11277041670067078, 0.11415623167953963, 0.11551379579757742, 0.11693440798074226, 0.1183164945669451, 0.11968871068189126, 0.12116937278184164, 0.12258937299534425, 0.12401971566693332, 0.12547308691453862, 0.12693836836216177, 0.12841150277554064, 0.1299435937586565, 0.13138701166011277, 0.1328985006521064, 0.13441201108559844, 0.1359582405534866, 0.1375170083986796, 0.1390495735667138, 0.14059282709278872, 0.14211772559640556, 0.14369669083412379, 0.14527636343435746, 0.1468831725731363, 0.1484324564592229, 0.15008814289845698, 0.15168862431539878, 0.15327893915022242, 0.15486448162182975, 0.15648798417788964, 0.1581086174267796, 0.15977290958860818, 0.1614048389403732, 0.1630091376824372, 0.16466526531668177, 0.1662976168840469, 0.16794145299766616, 0.1696027301447902, 0.1712525251230676, 0.1728969760501451, 0.17456031567094957, 0.17624222812625054, 0.1778707958784393, 0.17954608056661225, 0.1811894668792686, 0.18286438374053957, 0.1845210024436664, 0.1861724767139364, 0.18781111441993423, 0.18944934903643443, 0.19114332144763502, 0.19276396386114183, 0.19441227238021153, 0.19606186555002464, 0.19767574029352078, 0.19928253785096636, 0.2009429921933131, 0.20256092787438204, 0.20415852803644918, 0.2057961213288271, 0.20737945137533034, 0.20899007708891376, 0.21058021340506944, 0.2121410787973914, 0.2136918297543983, 0.21529676557477176, 0.21683380700642854, 0.21837939139914, 0.2199258419030779, 0.22141151933202344, 0.22295395971761878, 0.22445552009089492, 0.22591359283003565, 0.22743323318210124, 0.22885457841537982, 0.23030338453725485, 0.23173463860925622, 0.2331826488261101, 0.2345820081491807, 0.2359666673736121, 0.23734385328474492, 0.23871891336904377, 0.2400368231466075, 0.24136195861388704, 0.24268106964747088, 0.24401950019948265, 0.2452852270337683, 0.2465051215855268, 0.24775966739158084, 0.24896456522607022, 0.2501926053955271, 0.25134489419014194, 0.25249527532246036, 0.25363558849691364, 0.2547513152153653, 0.25587419378314863, 0.2569101741891862, 0.2579985606940309, 0.2589826746526528, 0.2599901907034738, 0.26098762740825676, 0.261972919115916, 0.2628928235278762, 0.26380537643261137, 0.2646513164984216, 0.26556452606311576, 0.266363238465837, 0.26719094201632837, 0.26797222200774157, 0.2686881191870051, 0.26941914015217094, 0.2701573078077116, 0.27079310839558884, 0.2714684618974381, 0.27209208473453844, 0.27263342706431826, 0.2732377161903475, 0.27373261354690587, 0.2742732873243293, 0.27475253185353304, 0.2751552981710104, 0.2755545803916154, 0.27599373349483014, 0.2763078720508353, 0.27665890210898897, 0.27695558054796493, 0.2771806270008687, 0.2774036211748585, 0.27761671715038905, 0.2778061047848654, 0.2779526376440371, 0.2780576232145638, 0.27809453557204816, 0.27818348818538846, 0.2781397116728409, 0.27810991829647674, 0.27806508629860177, 0.2780078685382462, 0.2778875038947873, 0.2776984281559235, 0.27750608468173993, 0.2773529380475485, 0.27710080797738185, 0.27675525718640065, 0.27649682958732796, 0.2761193838334536, 0.2757223104045897, 0.27534959057971087, 0.2749033941722415, 0.27442652062125283, 0.27392231805196354, 0.27338406983740576, 0.27280786706712673, 0.27218759669019, 0.27157850340781525, 0.27087234524571624, 0.2701604355690171, 0.2694742411090782, 0.2687099253475911, 0.26789542895528795, 0.26705796945966553, 0.26622410165379395, 0.2653582360847198, 0.26443772612286953, 0.263452607024601, 0.2624814746877923, 0.26151757543826476, 0.26043324834121667, 0.2593574111106084, 0.2583102703400422, 0.2571926958690884, 0.25600329122023563, 0.25480908442062394, 0.25361228510210915, 0.25240503037292594, 0.25112329950896495, 0.24981069591903401, 0.24847804039584634, 0.24717334566023466, 0.24579687136258258, 0.24439147654904236, 0.24294191361894535, 0.24154579449345712, 0.24002940604355721, 0.23854110387729974, 0.23703333921344782, 0.2354876646128551, 0.23395701450042425, 0.23237084883426107, 0.230738756853801, 0.22912001098777715, 0.22743853995912616, 0.22576141006523037, 0.22404692249433508, 0.22238206270307226, 0.22059893330901506, 0.21888767498156167, 0.21713399530309394, 0.21530322137930433, 0.21352920550888435, 0.21170364896843213, 0.20987843583284188, 0.20798844527709143, 0.206148480068659, 0.20427982507858083, 0.20234178520919555, 0.2004192141191486, 0.19852067875617022, 0.19657360628925072, 0.19465186493704714, 0.19267510421958642, 0.19070334227326244, 0.1887231276067428, 0.18671010544382877, 0.18471365262252873, 0.18270642922395924, 0.1807043449244613, 0.1786746239833159, 0.17662012081498626, 0.17457705312212587, 0.1725605273556331, 0.17051833301342195, 0.16842651951171422, 0.1663975398002745, 0.16432256756003302, 0.1622510112689838, 0.16020869228366594, 0.1581153061954641, 0.15606330201641486, 0.15397300465381114, 0.1519095411427648, 0.14983413795048692, 0.14775803147554878, 0.14571708110648568, 0.1436147843581091, 0.14159825575711044, 0.13953277000185543, 0.13740960999603635, 0.1353991430231161, 0.1333436528671568, 0.1313218587580466, 0.12928272976852778, 0.12726570459488143, 0.1252551143930995, 0.12322031126576065, 0.1212095226446952, 0.11926897694337135, 0.11723427633056546, 0.1152701420549883, 0.11331391082274175, 0.11137563606547816, 0.10937068938437734, 0.10750577571216083, 0.10555212574720499, 0.10364528506469672, 0.10177306778923167, 0.09990841622339405, 0.09799687063225267, 0.09618024009261947, 0.09434383481395484, 0.09252269623994565, 0.09077181565373568, 0.08897619710292914, 0.08720064099697437, 0.08547488212727826, 0.0837535544813443, 0.08198329587034299, 0.0803276925502803, 0.07867048182620119, 0.07700443955238034, 0.07538344460419887, 0.07378474839048509, 0.07218500735588534, 0.07065826995564338, 0.06909918193707053, 0.06755875203178889, 0.06606193120250693, 0.06461265016157562, 0.06319306803702936, 0.06172076164969036, 0.060347109634354, 0.05897314676091183, 0.05760066792300073, 0.056284160763169014, 0.0549883285496903, 0.05373195519223105, 0.05247139838140876, 0.05125020761091607, 0.05010794830908431, 0.04891042532767094, 0.047780487004697864, 0.04667079205688576, 0.04558635932359757, 0.044541881440526745, 0.0435174636105995, 0.042489124965777995, 0.04155371337862204, 0.04063586703085402, 0.039734751492616925, 0.038844946326465755, 0.0379815659753255, 0.0371861676266022, 0.036387311837632726, 0.03563068508058048, 0.034903843606469705, 0.03422630197972715, 0.033586008525994415, 0.03293265730262559, 0.03233987834590123, 0.03177425614834769, 0.031236741638892503, 0.03073155705689616, 0.030279886552389383, 0.02979448757499228, 0.029429159954545456, 0.0290266219895293, 0.028666951014091398, 0.028397257944314597, 0.028087116337547267, 0.027876912449091087, 0.02763009854396071, 0.0274493950287472, 0.027332914979269155, 0.02721319715815175, 0.02713042418637265, 0.027083151551987886, 0.027061419071025914, 0.0271050771882089, 0.02712435438762615, 0.027220111288417524, 0.027340755648165856, 0.02749477206216869, 0.027675186247595754, 0.027885604706082416, 0.028146525595814098, 0.028435146566931288, 0.02872867352380962, 0.029083693114847955, 0.029484168954181496, 0.029895076816311074, 0.03035862634034513, 0.030835072000829487, 0.031363596883790396, 0.031935373470109406, 0.032486999238305225, 0.03311689278890779, 0.03375736513325204, 0.0344363947486328, 0.035173157385308414, 0.03591757327839493, 0.036713228144011366, 0.037506482529840825, 0.0383807135880144, 0.039267232199085976, 0.04018185703962727, 0.04110859530621499, 0.042096717074575435, 0.04313373643526515, 0.044149827516463985, 0.045276798289115544, 0.04635274349372821, 0.04750271795864327, 0.04867769824628083, 0.049913867097833464, 0.05119319674322538, 0.052419995769197716, 0.05374301345543228, 0.055063280490719485, 0.0564746446195391, 0.05787529817313947, 0.059300184006737484, 0.0607800407492521, 0.06228316919336109, 0.06382589375335157, 0.06541422191997219, 0.06698670698471114, 0.06862419979824533, 0.07028178010104519, 0.07199451805131839, 0.07371327044561271, 0.07548590140950619, 0.07726071840546117, 0.07912206803038074, 0.08096886980955986, 0.08282950603886519, 0.08474911342172708, 0.08669845420047156, 0.08870317317126579, 0.09070452674463578, 0.09277114515310912, 0.09483478084724757, 0.09697195022507267, 0.09911424322056298, 0.10125726823915107, 0.10345970413186147, 0.10572129923982887, 0.10797580029293734, 0.11028894309952465, 0.11260390749619337, 0.11498134968567221, 0.11737352485132327, 0.11982712838039099, 0.12225014075833465, 0.12473433125676694, 0.12727815348461508, 0.12983805924869546, 0.1324291148809147, 0.13503929542582718, 0.1376792458174515, 0.14036746170839698, 0.14310145920691708, 0.14580388653703968, 0.1486140067383802, 0.15138573305759412, 0.15424546807895764, 0.1571176711733881, 0.1600159990818164, 0.16297641160056886, 0.16592170658004154, 0.16890463428222452, 0.17193691051950843, 0.1750262496354776, 0.17812363697745917, 0.18121992675470394, 0.184418256992292, 0.18755975000799704, 0.19082028758556294, 0.1940610676725977, 0.19735005784417825, 0.20066367170039062, 0.20401801055978339, 0.2073774930992062, 0.2107977248797517, 0.21424865166349225, 0.21769889055396352, 0.2212126777060395, 0.2247417268400288, 0.2283287359999741, 0.23196280353870202, 0.23556669281754394, 0.23923053588525697, 0.2429417152786289, 0.24665228008487602, 0.25044347797331246, 0.25424139823951736, 0.25801243771246307, 0.2618841481651383, 0.2657479034879038, 0.26971138420578716, 0.27363714812470735, 0.2776237192296243, 0.28163124281298774, 0.2856867757543254, 0.2897606930669095, 0.29385068330216135, 0.2979295892632619, 0.30212200631907404, 0.30633316600359545, 0.3105468087475049, 0.31478193079301586, 0.3190620275784107, 0.3234380625645869, 0.3277320947103118, 0.3320865958465993, 0.3365116631628962, 0.3409589072037365, 0.34541671504911686, 0.3498668475434675, 0.35437728788936246, 0.35895213317768065, 0.363494660367053, 0.3680857228746905, 0.3727504678100481, 0.3773969409212163, 0.38208763396793066, 0.38675295885450556, 0.391494885194757, 0.39626024352677286, 0.4010184432631309, 0.40585724576400306, 0.410695987983194, 0.4155676190322506, 0.4204066074559357, 0.42533314946305134, 0.4302542848179058, 0.4352179985962391, 0.44019988799165277, 0.4451881380189223, 0.4502030956627295, 0.4552292516129036, 0.4602927992536823, 0.4654372831143155, 0.47049505211840326, 0.4756181885518178, 0.48076714998153725, 0.4859089063096857, 0.4910809076705406, 0.49628218071483576, 0.501513079016817, 0.5067020242563843, 0.5119500139255406, 0.5172362998681133, 0.5224834111666972, 0.5278070106785745, 0.5330724839063128, 0.5384095487584099, 0.5437048790069519, 0.5490616316620537, 0.5544179565245232, 0.5597286394833044, 0.5651282533167349, 0.5704879173924742, 0.5758556805906369, 0.5812443300573659, 0.5866507701820443, 0.5920418518559466, 0.5974383618021182, 0.602860240137088, 0.608261344614058, 0.613693770265996, 0.6190716100840885, 0.624517381425516, 0.6299304978294052, 0.6353110032964215, 0.6407687406346297, 0.6461735227109637, 0.6515335149646707, 0.6569553047909727, 0.6623389241659593, 0.6677297998432988, 0.673118709698912, 0.6784732954208302, 0.6838235743525168, 0.6891770121506781, 0.6945348317011769, 0.6998341385637796, 0.7051818166581554, 0.710437559397958, 0.7157374960928018, 0.7209974130854996, 0.7262850557438639, 0.7315061684343768, 0.7367131684080066, 0.7419006173999932, 0.7470769898086105, 0.75219314283325, 0.7573165648608348, 0.7624270185027845, 0.7675192298776093, 0.7725528139967727, 0.7775482557390541, 0.7825371054314072, 0.7875348384188546, 0.7924463440070886, 0.7973468699868026, 0.8021951130816337, 0.8070005532090044, 0.8118296321754346, 0.8165670939367822, 0.8212977208088319, 0.8259770867084799, 0.8306132199336258, 0.8352011017728472, 0.8397854221806111, 0.8442690395529014, 0.8487552984469641, 0.8532008379000985, 0.8575341135808271, 0.8618866583170914, 0.8661767776000681, 0.8704050445899881, 0.8745784393508489, 0.8786795478713957, 0.882756277706716, 0.8868027652225952, 0.8908077320552099, 0.8946670138018702, 0.8985343165395212, 0.9023632095642545, 0.906060712382678, 0.9097799147399873, 0.9133634796635429, 0.9168928529029537, 0.9204256966130735, 0.9238458288240479, 0.9271987600624932, 0.93050477945873, 0.9337469946292413, 0.9369147852994152, 0.9400103975021007, 0.9430425185975622, 0.9459788292702476, 0.9488828683535543, 0.9517199968398574, 0.954397837805617, 0.9571179024014548, 0.9596966542657186, 0.962178927039389, 0.9646507136990378, 0.9670062850878636, 0.9693072393208776, 0.97152039043088, 0.9736739477445963, 0.9757410448365352, 0.9776918766539094, 0.9795935737765621, 0.9814010559061955, 0.9831553244231679, 0.9847779504358908, 0.9863795069215344, 0.9878237339068311, 0.9892556401295854, 0.9905857516777244, 0.9918028631675702, 0.992961818131101, 0.993985117409931, 0.9949884411170142, 0.9958628334482801, 0.9966847569227015, 0.9973960282816275, 0.9980387596185847, 0.9985959881712488, 0.9990262835542069, 0.9994055148975453, 0.9996979527577515, 0.9998966365643076, 1.0, 0.999995042333033, 0.9999397592736861, 0.9997817484525978, 0.9995480453871857, 0.9991833480794488, 0.9987429897105842, 0.998260446906829, 0.9976516531591688, 0.996983372852141, 0.9962138979637041, 0.9953317444665404, 0.9944102192666288, 0.9933361493955278, 0.9922152597876346, 0.9909894026634011, 0.9897106143943798, 0.9883320548746671, 0.9868635249637914, 0.9853379029807368, 0.9836921846330797, 0.9819386468060821, 0.9801714088812682, 0.9782619957388099, 0.9762798270016858, 0.9742358577017638, 0.9720889032642586, 0.9698858088544612, 0.9676121404565006, 0.965218433726003, 0.9627519402807335, 0.9602445808626139, 0.9576248894272119, 0.9549245287265841, 0.9521514832522344, 0.9493320088214665, 0.9464195987867096, 0.943431279868637, 0.940406094453414, 0.9372847640759017, 0.9340532046426216, 0.9307953657483863, 0.9274694365264217, 0.9240599826700446, 0.9205916375154667, 0.9170845851480091, 0.913438769276211, 0.9097936312465226, 0.9060770032814456, 0.9023014654905441, 0.8984355782031586, 0.8945490973196366, 0.8905847030020168, 0.8865943714391298, 0.8825083553507127, 0.8784089746909411, 0.8742098997765562, 0.8699792944336252, 0.8657371657238766, 0.8613942753349731, 0.8570118390417706, 0.8526433119707947, 0.8481427256192146, 0.843690900605946, 0.8391103928390812, 0.8345450719190922, 0.8299306719695002, 0.8252749229091126, 0.8206090885803979, 0.8158820592392942, 0.8110706494363314, 0.8063045030300946, 0.8015098333435215, 0.7966753969168022, 0.7917899775747981, 0.7869291004062867, 0.7820143209745751, 0.7770444238928705, 0.772102068436973, 0.7671437053318124, 0.7621482023700419, 0.7571327212772694, 0.7520958332932263, 0.7470732625427265, 0.7420413931577572, 0.7369948704576356, 0.7319310818012696, 0.7268495232357411, 0.7217610184357061, 0.7166914412732905, 0.7116783804572622, 0.7065679437278508, 0.7014803318565603, 0.6964263391761011, 0.6913783218017582, 0.6862993704178024, 0.6812606822072841, 0.6762386033028578, 0.6712226572793515, 0.6662051047645863, 0.6611739572809324, 0.6562021059093, 0.6512385417527979, 0.6462959895306526, 0.6413713460929192, 0.636453362742551, 0.6315666793657417, 0.6267385524801845, 0.6218892170928582, 0.6170633179681169, 0.612333509773403, 0.6075754229056854, 0.6028682540120328, 0.5981963667396101, 0.5935442886323574, 0.588929597992866, 0.5843284415250557, 0.5797985683732229, 0.5753402248506949, 0.5708615361957458, 0.5664564676132297, 0.5620648415238475, 0.5577896046699483, 0.5535002199690586, 0.5492451154063633, 0.5450592945737872, 0.5408821084284785, 0.5368368351058856, 0.5327784988034041, 0.528823434781113, 0.524852497616495, 0.5209752235042135, 0.5171614275909392, 0.5133783428546421, 0.509654258428723, 0.5060245280612846, 0.502390632946119, 0.4988628529038774, 0.4953995382510683, 0.4919476199133464, 0.4885994743137535, 0.48530267220896667, 0.4820192121010869, 0.47887249207490284, 0.47575423255279453, 0.4726845779956447, 0.46970549456610816, 0.46679663498391166, 0.4639579720269125, 0.4610981257681608, 0.4584204745385967, 0.4557502719562527, 0.45316660727329455, 0.4506404230978414, 0.4481938036646077, 0.4457699192578751, 0.4434253776050341, 0.4411823165488166, 0.4390171881718884, 0.4368895496657868, 0.4348359640104194, 0.43282733361941444, 0.43091686674472085, 0.4290760574879497, 0.4273039993759258, 0.4255964711655144, 0.4239410246178501, 0.42236895902510385, 0.4208205804124644, 0.41937116972253646, 0.41801946799264844, 0.4167010667426956, 0.4154507773031426, 0.4142986314139584, 0.4131747629091241, 0.4120872025610622, 0.41113053022183593, 0.4102194750517432, 0.4093427475226685, 0.4086052625354627, 0.40782157218054277, 0.4071410012542878, 0.4065848931241194, 0.4060241916557781, 0.40552569070633177, 0.4051205713643919, 0.40472488225068126, 0.404429502562554, 0.40416462290448985, 0.4039817329470303, 0.40384800915492863, 0.4037329734883823, 0.4037039879559041, 0.40372668287254726, 0.40381700532711506, 0.4039640706689322, 0.40413246129130215, 0.40432932953538026, 0.40463904745316104, 0.4049104233063306, 0.4052904340621942, 0.4056916609539667, 0.4061438487855626, 0.4066746074231502, 0.40721825444500664, 0.4077936176481619, 0.40837985897681145, 0.40900848271052315, 0.40974441826656277, 0.41048733035375384, 0.41125435475319816, 0.4120611357075489, 0.4128784957577299, 0.413707456274356, 0.41458841776619426, 0.4155353521143475, 0.4164543850463913, 0.4174596140050182, 0.41845107644935314, 0.41944407071659806, 0.42051654831392826, 0.42157513992195417, 0.42263903043439144, 0.42373682587976036, 0.4248354820001899, 0.42599114129073024, 0.427154238138999, 0.42826090266264166, 0.42944984468624897, 0.4305732152512604, 0.4317748753996828, 0.4329782503925978, 0.43414089781201026, 0.4353427372301593, 0.4365547144864086, 0.43774993145756497, 0.4389412399273634, 0.4401443691861872, 0.441330443750327, 0.44254687450100755, 0.44371806832245386, 0.4448867294410819, 0.4460383160581752, 0.4472041373611409, 0.4483246218093569, 0.44948419162110953, 0.4506052891453523, 0.4517259712633061, 0.4528026947993057, 0.45383928771448784, 0.4549145744130658, 0.4559552626984006, 0.4569451614838118, 0.4579039103134009, 0.4589037866622296, 0.4598143308846513, 0.4607460435166122, 0.4616246171707657, 0.462453781484696, 0.46330450791244354, 0.46410297505989306, 0.46483060631798356, 0.46554879731174137, 0.46626987267567915, 0.4669215610430157, 0.4675408227366735, 0.4681216264570235, 0.4686411125477369, 0.46916906792717533, 0.46964557161338166, 0.4700711242633601, 0.4704325448492104, 0.4707443345557135, 0.4710578415350491, 0.4713108184989376, 0.4715025280806202, 0.47167668603550766, 0.4717668013831666, 0.47182687431659165, 0.47181624222358143, 0.47182596916249897, 0.47171785187373294, 0.47160649081453815, 0.4714008550336435, 0.47119590198342276, 0.47084288942656716, 0.4705205406295332, 0.4701274033832386, 0.46967302710283687, 0.469179243348616, 0.4685978282074679, 0.46801411522509795, 0.46734358554549127, 0.4665681541991221, 0.4658233615966077, 0.4649805717023849, 0.4640672476996189, 0.46317993638979477, 0.4621053721688245, 0.46109235976348717, 0.45995847741095686, 0.45876648372110884, 0.4575336607334511, 0.4562362158576202, 0.45489186748145205, 0.4534805866108956, 0.4520611012275724, 0.4505010745219678, 0.4489037040397166, 0.44730667448315303, 0.4456465672134984, 0.4438526197614959, 0.44207012114576244, 0.44019653982994866, 0.43831050565576024, 0.43631551583159256, 0.43431494176810354, 0.4322014572157798, 0.43008679788299753, 0.42792009913945933, 0.42563868056688525, 0.4233669499835253, 0.421035898777944, 0.4186220090330577, 0.41618928402385197, 0.4137273327695918, 0.4111675826392356, 0.40853842896245773, 0.4058929783528174, 0.4032027815805003, 0.4004671347449876, 0.3976856791365156, 0.39489093089762595, 0.39198368373153647, 0.3890664589165761, 0.3860518811860327, 0.3831073042667983, 0.3800340415765545, 0.37694497659387494, 0.3738008384891028, 0.37067408195678603, 0.367417772008299, 0.36422317791754866, 0.3609076847652768, 0.35759148708290855, 0.3542285005695629, 0.3508626515350789, 0.34744030268574994, 0.3439970077806291, 0.3405384307701416, 0.3369942651607619, 0.3334827878983542, 0.3299140415993022, 0.32636873195753907, 0.3227110766510538, 0.31908808462961885, 0.31543991605593635, 0.31171301105354693, 0.30807397402324027, 0.3043277869684789, 0.30057804566765345, 0.2968381338738647, 0.2930973932669833, 0.28927011358091925, 0.28550257556624764, 0.2816837343227391, 0.27785251480495365, 0.27404780766358855, 0.27019432279815514, 0.2663450563734653, 0.2625273271264187, 0.2586641681795625, 0.2548274809788471, 0.250950956360862, 0.2470837206620573, 0.2432242194642618, 0.23934245711360827, 0.23550253251651443, 0.23167943343033945, 0.22783442449245267, 0.22397322159981609, 0.2201317474011341, 0.2163441285967113, 0.21251113410915692, 0.20872426962062443, 0.20487560068186625, 0.20112697657129117, 0.19737992445845381, 0.19365311560964232, 0.1899018460866967, 0.18619675495332835, 0.1824535646487452, 0.1788148383192887, 0.17514561910014614, 0.17153224635288847, 0.16794175999197974, 0.16432915240406326, 0.16076725021288127, 0.15727217441581776, 0.15377174328065674, 0.15026369729953679, 0.1468296528086949, 0.14342498129105286, 0.1400344540374351, 0.13666781121731886, 0.1333233190986292, 0.13005734413661768, 0.12682616239071967, 0.12358542721938932, 0.12043498891501604, 0.11726302353036257, 0.11417579631143572, 0.11112651029686459, 0.10811662954704522, 0.10510526171168205, 0.10217667566601321, 0.09924338710354841, 0.09640681523544063, 0.09360044896853117, 0.0908079182177304, 0.08807626935577083, 0.0854551747187476, 0.08277886779853048, 0.0802260249485536, 0.0776414192924698, 0.07513560581848397, 0.07269643507427379, 0.07031083139596003, 0.06792141648770297, 0.06564671499908509, 0.06338203232451428, 0.06120234345773853, 0.0590395640541221, 0.0569643035119507, 0.0549013428986492, 0.05291864296901204, 0.05092522499366517, 0.04904983487254473, 0.04718394201625511, 0.045365616771940835, 0.043657383023156984, 0.04199019722378533, 0.040338597486279396, 0.03874354466695486, 0.03717686026945097, 0.03571974838280801, 0.034285224624175756, 0.03289020946841697, 0.031584547390615225, 0.030317801654054247, 0.029041141961141853, 0.02792123114142787, 0.026779481295387687, 0.025751137580506657, 0.024704865159182948, 0.0237168835752433, 0.022798260905165922, 0.02193582596444624, 0.021128369565423903, 0.020349472001578914, 0.01969434110206078, 0.01897384452828612, 0.018362318551145455, 0.01781379014653397, 0.01723463073194633, 0.016764824504905528, 0.016362230791451937, 0.015980708695005525, 0.015636280569045535, 0.01539222715094691, 0.015084813844086005, 0.01491152191452495, 0.014734800419669293, 0.01465095474617479, 0.01457480997894485, 0.014548333225595598, 0.014551300525067984, 0.014634942041414415, 0.01467419464016229, 0.014845030068878728, 0.015012231856070505, 0.01519671333262381, 0.015464480672786248, 0.015754990695852848, 0.01611127644734298, 0.01644611485761337, 0.016833383358485512, 0.017241965263869292, 0.017712129945505986, 0.01818851791715286, 0.018684545528149733, 0.019236413648531642, 0.019853079708747876, 0.020459470364928407, 0.021110359411373843, 0.021766647180870773, 0.022459067743155457, 0.023117487874591957, 0.023865077662650624, 0.024639481095288168, 0.025412250180223084, 0.026231808731010137, 0.027053987012347184, 0.027903653258259803, 0.028749794559361257, 0.02964924248253507, 0.030541376882485812, 0.03143528880231546, 0.03238023410498052, 0.03332068842726075, 0.03423582529911381, 0.03523006554435318, 0.03622813658172144, 0.03718694472771617, 0.038182290415513645, 0.03918847789629599, 0.040236764847638454, 0.041227533585066166, 0.04223017600313116, 0.04326224820771822, 0.044303808881001765, 0.04533558427175001, 0.04639995736574369, 0.047419714856619305, 0.04846690633916166, 0.04952952049156264, 0.05056005983412975, 0.05156433258320346, 0.052619333822142886, 0.053656345111004256, 0.05468774504121034, 0.055681494534386526, 0.05671525463558415, 0.057728569971881395, 0.058694926941151845, 0.059710488687695226, 0.060677806673414485, 0.061611642143750533, 0.06263617808983842, 0.0635882231485011, 0.06450180727202977, 0.06543708101436435, 0.06631147750531055, 0.06722238600337692, 0.06813662153963831, 0.06898469194926926, 0.06983622101102288, 0.07069016340916437, 0.07145985609863315, 0.0722642054516822, 0.07305547648095746, 0.07382552316579302, 0.07456393402558834, 0.07529240367493867, 0.07598357419145092, 0.076692333127908, 0.07733109729270192, 0.07798521736632347, 0.0785943035778653, 0.07917479251866931, 0.07977628459293486, 0.0803192622786733, 0.08080201553991205, 0.08132749337815161, 0.08182894228100307, 0.08227427838458386, 0.08269552331260512, 0.08310623711941177, 0.08349969101984907, 0.08386786833144577, 0.08418469679208886, 0.08447590750394755, 0.08476207050385895, 0.08502843037235829, 0.08525226243925353, 0.08547567768515892, 0.0856881320970549, 0.0858267613743283, 0.08594397997507075, 0.086049400683032, 0.08614529812851476, 0.08621738909672544, 0.08624502866629408, 0.08624381268148386, 0.08625926529043944, 0.08618730121393958, 0.08616864573227112, 0.08604182488073349, 0.08594635820767088, 0.08581500240540078, 0.08569678931389071, 0.08549842535582247, 0.08532586557338367, 0.0850906409351848, 0.08486977013393114, 0.08459154651392897, 0.08430839436747861, 0.08401276637470523, 0.08371538132155457, 0.08340303428142648, 0.08304648457976559, 0.0826637029505845, 0.08228184817087406, 0.08186527117639734, 0.08145581536339307, 0.08102417329296825, 0.08058269474008962, 0.08012263567021331, 0.07964193467875533, 0.07913343565230783, 0.0786885135370085, 0.07816610611096612, 0.07764785735939378, 0.07713757465046743, 0.07658717550009993, 0.07602331501413095, 0.07546730227279613, 0.07495956959337712, 0.0743509624726391, 0.07384398642758663, 0.07319870831852225, 0.07268911778653514, 0.0720736239735887, 0.07150959104312202, 0.07097475277072543, 0.07038468831730148, 0.06983095102043296, 0.06921882590815397, 0.06868729833822024, 0.06811577237592273, 0.06756580439326004, 0.06704735221049521, 0.06647020675999267, 0.06594354230566091, 0.06543955691089319, 0.06493026864671939, 0.06441835064728592, 0.06395770464516363, 0.06350947101986944, 0.0630483641329724, 0.06261594859170919, 0.06219386847721607, 0.06178340479108831, 0.06140580086608835, 0.06103801525634996, 0.06072222407705359, 0.06037600410702209, 0.06009348107938128, 0.0598448161746496, 0.059577322045168364, 0.05934688598715441, 0.059222787231893725, 0.05906236328550157, 0.05891432160289706, 0.058837537279484764, 0.05873384748460294, 0.05871211531336196, 0.05873040984131889, 0.05876454370438702, 0.05884227278643435, 0.058966103248845554, 0.05912979251836529, 0.05929311396560619, 0.05956128380378238, 0.059806197086420626, 0.060165275053891125, 0.06050594595871823, 0.060887975230676974, 0.061347285499769935, 0.06184107064355484, 0.062386084446038645, 0.062964916422399, 0.0636507476468592, 0.06433077986716057, 0.06505604445051102, 0.06582689856247383, 0.06668750906850314, 0.06759865794314131, 0.06857165045156555, 0.06958119174219946, 0.07062151777704315, 0.07176458169769362, 0.07292686960678794, 0.0741711891942577, 0.07549111865884858, 0.0768529006125069, 0.07823486981615871, 0.07970744210838358, 0.08127062812077748, 0.08287172251383462, 0.08451788355009669, 0.08627448565801521, 0.0880542900980854, 0.08990631460124132, 0.09184019021844889, 0.0938566663004289, 0.09589803233745664, 0.09799044326064708, 0.10020723435548817, 0.10247692080051536, 0.10479123388599584, 0.10717778348962724, 0.10965100015910263, 0.11218745217231878, 0.11476648352270803, 0.11745977372096593, 0.12018786678839946, 0.12298703965959089, 0.12589474350946656, 0.1288079409704236, 0.13185580741554004, 0.1349424787832374, 0.13809677140066198, 0.14133655537433443, 0.14466053845889887, 0.14801261694540593, 0.15145892400738092, 0.15495247070844012, 0.15855347814753246, 0.1622104761740322, 0.16593185914392553, 0.1697288491132007, 0.17358983314310125, 0.1775409635846429, 0.18154047669549517, 0.18560111895438444, 0.18974201525601136, 0.19394684163345682, 0.19822546132713173, 0.2025703749701744, 0.20702452512784986, 0.2114904613471139, 0.21601863181594697, 0.2206368951757958, 0.2253163374665532, 0.2300668398873154, 0.23486153457580355, 0.2397317373625603, 0.24465720171431649, 0.24967693796784735, 0.25472059705017625, 0.25985653356350547, 0.26501955406598166, 0.27026040906431353, 0.2755356834566134, 0.28091285487282847, 0.286320225745063, 0.2918068831123769, 0.29730182273596856, 0.3029033258318287, 0.3085296258667612, 0.3141983717120954, 0.3199405666676907, 0.3257254325697362, 0.3315672962986884, 0.33745534753105466, 0.34336179261468447, 0.34934587426574226, 0.35534875397306004, 0.36141520216006207, 0.3675223496094606, 0.3736824994628548, 0.379851547027246, 0.38606179165199606, 0.39235066832714954, 0.39866169850267, 0.40497693615702934, 0.41131271960969734, 0.41773924215447794, 0.42417247060850927, 0.4306221134222045, 0.4371141687315378, 0.44361777391543195, 0.45014420906368663, 0.45672018721335517, 0.46332288217887735, 0.4699049530627947, 0.4765414524055153, 0.4831516246873614, 0.4898352298562414, 0.49651092534956853, 0.5031519016433406, 0.5098624437889845, 0.5165975633201649, 0.5233040134064321, 0.5300089206231877, 0.536732673556882, 0.5434836725996467, 0.5502016534364146, 0.5569149190850287, 0.5636607890969112, 0.5703576835235667, 0.5771046312675825, 0.5838319440606978, 0.5905299639299713, 0.5972143422748574, 0.6039180155215772, 0.6106164519140475, 0.6172662684810089, 0.6239011487881436, 0.6305331728862965, 0.6371144760562238, 0.643685530269045, 0.6502714168512503, 0.656806002446259, 0.6633059206573273, 0.6698021794889539, 0.6762296445701899, 0.6826458314532904, 0.6890525676006776, 0.6953972945669216, 0.7016895001868085, 0.7080006366576481, 0.7142538822342765, 0.7204484804689935, 0.7265786395929796, 0.7327186838585963, 0.7387359138767131, 0.7447974302735824, 0.7507120510581531, 0.7566386151625195, 0.7625242762518268, 0.768327596386572, 0.774068273377369, 0.7797420469370261, 0.7854125593294301, 0.7909426418338361, 0.7964761935214452, 0.8019453376640705, 0.8073344405652063, 0.8126174283853536, 0.8178792491010299, 0.8230707212099253, 0.828205056476972, 0.8332134630584702, 0.8381975697985197, 0.843047387895699, 0.8479002721443392, 0.8526260905493213, 0.8573026024308396, 0.861889153396641, 0.8663679440908438, 0.8708375329865893, 0.8751219388805751, 0.8793618406144417, 0.8835633259510445, 0.8876341962619048, 0.8916375428284469, 0.8955210191696511, 0.899356755433841, 0.903078647390962, 0.906678013257983, 0.9102424055935843, 0.9136786027622216, 0.9170561800771427, 0.9202750501242369, 0.9234306447937582, 0.9264910120360235, 0.9294768885932656, 0.932350874599133, 0.9351023476830651, 0.9377903069842974, 0.9403296152545996, 0.9428067623020431, 0.9451940754343153, 0.9474502652276486, 0.9495891337405488, 0.951676295640431, 0.9536088772522403, 0.9554540622869467, 0.9572069186116047, 0.9587984440302737, 0.9603679930611165, 0.9617785828743828, 0.9631260710154333, 0.9643089374845482, 0.965441973460255, 0.9664223029021117, 0.9673120142323416, 0.968131916873716, 0.9688311342924465, 0.9693878938135595, 0.9698471623956462, 0.9702045863482325, 0.9704346256454904, 0.9706103449671412, 0.9706431805928867, 0.9705662272139933, 0.9704291877800133, 0.9701466929853251, 0.969728891714432, 0.9692458813127728, 0.9686449169694089, 0.968001305509234, 0.9671495366478732, 0.9662684037065328, 0.9652520409046108, 0.9641412251605183, 0.9629458408245858, 0.9616035190782685, 0.9602051254037688, 0.9586424272993709, 0.9570579556689289, 0.9553446936833183, 0.9535117736935277, 0.9516262134197667, 0.9495871905536194, 0.9474917964866999, 0.9452827028800402, 0.943007476459683, 0.9406286942545647, 0.9381202045008474, 0.9355577221958722, 0.9329012003929706, 0.9301101277363979, 0.9272699397523658, 0.9243646405187455, 0.9213703782987025, 0.9182621552024757, 0.9150959138641019, 0.9118165310778608, 0.9084263758469915, 0.905011151618176, 0.9015388767615119, 0.8979018484569165, 0.8942539253540752, 0.8905412954716218, 0.8867124682530308, 0.882821006365869, 0.8788374011988317, 0.8748482987423647, 0.8707251205630762, 0.86660322900794, 0.8623527448440536, 0.8580525125704296, 0.8537225697513559, 0.8492999879044513, 0.8448335238266557, 0.8403048971842032, 0.8356883468702224, 0.8310707208228313, 0.826356724096747, 0.8215922474034004, 0.8168626964332836, 0.8119890154797123, 0.8070616029341591, 0.8021666983319657, 0.7971546403313656, 0.7921543176150476, 0.7870801287903917, 0.7819943386215301, 0.7768533606122863, 0.7716591246955748, 0.7664683825532205, 0.7612534835596504, 0.7559698306524688, 0.7506874758540402, 0.745344743579164, 0.740038003516577, 0.7346696700675525, 0.7292751395495327, 0.7238489248548354, 0.7184126450061646, 0.7130474204181905, 0.7075513130910217, 0.7020723924585078, 0.6966019143513508, 0.6911421878607468, 0.6856344382261461, 0.6801129583890083, 0.674626648225316, 0.6691492467679526, 0.6636198046850142, 0.658107437822337, 0.652651375800975, 0.6471587838677972, 0.6416583954500621, 0.6361626068350923, 0.6307329616738283, 0.6252548481444518, 0.6198200075681748, 0.6143981456706663, 0.6089878666106889, 0.6035731171032769, 0.5982306578849235, 0.5928549465298225, 0.5875295946446464, 0.5822147316407167, 0.5769515964262139, 0.5716824352636389, 0.5664663766332008, 0.5612993495810109, 0.5561312730946765, 0.5510022185005656, 0.5458774157957378, 0.5408519800484191, 0.5358413421341903, 0.5308376328353318, 0.5259356288901297, 0.5210354630843768, 0.5161458126967742, 0.5113628786572599, 0.5065870470566544, 0.5018765363271863, 0.4971839806668746, 0.4925595862058375, 0.4879738874010543, 0.48349622277044085, 0.4789779453075587, 0.474585046208561, 0.47022557732046677, 0.4658898446457269, 0.4616763154414927, 0.45747156052018395, 0.45333071445894835, 0.44923684277401216, 0.4452274194504204, 0.44126690484251846, 0.4373992965179658, 0.4335966047663727, 0.42979165511408757, 0.4260353721709564, 0.42242531471217576, 0.418877598763716, 0.4153343880691865, 0.41186426964359474, 0.40850460315109677, 0.40519914353158126, 0.40193305379904626, 0.3987899496434083, 0.39563997171959353, 0.3926212305080002, 0.3896576386763792, 0.3867485012823219, 0.3839139342869565, 0.3812026726802055, 0.3784882215720327, 0.3758525743091512, 0.3733117356955306, 0.37080580064429514, 0.3684137256448775, 0.36607965684703164, 0.36382775273836176, 0.3616460481246378, 0.3595042497022486, 0.35745520584358986, 0.3555147456086926, 0.35358371989762954, 0.3517418017483087, 0.3499751565290829, 0.34826076927408217, 0.34662797793471456, 0.3450963195329711, 0.34359503325825924, 0.34218599176864634, 0.3408485867267486, 0.3395999740294784, 0.3383582832775082, 0.33722729203633556, 0.336126901477385, 0.33513225181717754, 0.3341770224350068, 0.3333429878944745, 0.3324836701892988, 0.33176137712024834, 0.3311019493036961, 0.3304449144689785, 0.329910163935099, 0.32938755308272355, 0.3289512717986658, 0.3285997782473334, 0.32826196921760975, 0.3280414144072654, 0.32782844253926857, 0.3276897734214599, 0.3275803692388714, 0.3275979723014103, 0.32759849710995576, 0.32765878315657443, 0.32776827423498955, 0.32796443944426024, 0.328208278935098, 0.32850219507119627, 0.3288146704747492, 0.3291780815624628, 0.32961063113635736, 0.3300400102571928, 0.33059239564744586, 0.331112477676064, 0.33168515249026215, 0.3323596234855376, 0.3330203733233743, 0.3337265092508139, 0.3344606386169854, 0.3352199897819981, 0.3360791754467515, 0.33687007625156623, 0.33781398175292765, 0.3386577689544435, 0.3396518689450475, 0.3405631285940597, 0.34157563062422813, 0.3426026037067332, 0.3436095848526714, 0.34466470435840896, 0.34576125589712, 0.34685089736297864, 0.34798899478564893, 0.34916460505077973, 0.35025900451207914, 0.3514186658958019, 0.3526090077654592, 0.35380139126845306, 0.3550312726285843, 0.3562233994393672, 0.3574672266814617, 0.3586371719973447, 0.3599017752600846, 0.36113794333003507, 0.3623312081781689, 0.3635875332621703, 0.3648009654833313, 0.3660476554195275, 0.3673157106407486, 0.3684786879329598, 0.369718779969126, 0.3709505178346324, 0.37215850889375907, 0.37334069685571536, 0.3745087164795491, 0.37566840705778726, 0.3768174614295924, 0.37798288191771473, 0.3790780228960001, 0.3801816502115412, 0.3812881211368018, 0.3823624290860753, 0.38340911805272554, 0.38441138141205083, 0.38542733508614263, 0.38642300006333674, 0.38733999577760103, 0.388285226002446, 0.3891868669770023, 0.3900510784445809, 0.3908367763960376, 0.39169447208256797, 0.39246446864061657, 0.39319260777395093, 0.3938534159148334, 0.39453078750906595, 0.39520836623480404, 0.3957890369293426, 0.3963648112450327, 0.3968798492642038, 0.3973446982700782, 0.39776768841768007, 0.3982075517447068, 0.39855938480418635, 0.39884303569009233, 0.39914288359123035, 0.3993658117032964, 0.39951198187030357, 0.39966844579001864, 0.3997168618383985, 0.39977444773467646, 0.39978695806925363, 0.39975487267679655, 0.3996426644255919, 0.39946887412581883, 0.39923439842478986, 0.39902402696354267, 0.39870324614852776, 0.398332765977192, 0.39792112963293425, 0.3975021929495669, 0.3969789639875117, 0.39641480990035444, 0.3957891626528394, 0.3951038280091872, 0.3943741208701607, 0.3936051710473266, 0.39278324773023177, 0.3918863565587516, 0.39095355962358275, 0.3899406445490988, 0.3888934113382911, 0.3877768560630048, 0.386659855506648, 0.385404614518258, 0.3841890551060488, 0.38281647148778825, 0.38145354606603993, 0.3800226013829627, 0.37857358312282596, 0.37702101939716187, 0.3754239442781613, 0.37378542853442365, 0.37206615854684827, 0.3703274604679612, 0.36849318652152935, 0.36667789596690564, 0.36475090885211664, 0.3628194294142882, 0.360807533956074, 0.3587027584709679, 0.3566192755403268, 0.35443747668744807, 0.3522530395168904, 0.3499786241544619, 0.347663200265765, 0.3452987757880876, 0.3429491961859467, 0.3404913556922003, 0.338002737351514, 0.33540614468412927, 0.33284012982562866, 0.33024439688371454, 0.3275805757958051, 0.32479920698492626, 0.3220837394643182, 0.3193015598980639, 0.31644492215196773, 0.31355219790312683, 0.3106645169330719, 0.30772540485986155, 0.3047243468951713, 0.30171620993056203, 0.2986264557677255, 0.29550486205598747, 0.29238705322616515, 0.28923633730161963, 0.2860583034687844, 0.2828545123156224, 0.2795835199323654, 0.2762835639262143, 0.2730184798692255, 0.26968187593625353, 0.2663032383436168, 0.26291039655522747, 0.25951210925259394, 0.2560812128986515, 0.25265297018590493, 0.24917335820685146, 0.2456791302320089, 0.24218023043501358, 0.23864770242947175, 0.2350780453714419, 0.23155671599158087, 0.2280015991169136, 0.22439462300184534, 0.2208191095810228, 0.21721072831083194, 0.2136040209186155, 0.20996678445661696, 0.20634810248598248, 0.20272136285807127, 0.19906792306308063, 0.1954800060784835, 0.19179685630729548, 0.18817613985817197, 0.1845424903453875, 0.1808898293098938, 0.17722491561010287, 0.1736279164511182, 0.16996915115619818, 0.16631596803087995, 0.16271692972531085, 0.15910691536819974, 0.1555014758526609, 0.15189873112790708, 0.14834550246701692, 0.14474769509195073, 0.14120897128631038, 0.137690105017527, 0.13414545458529675, 0.1306352012783997, 0.12710032372354585, 0.12368036441604104, 0.1201783549781049, 0.11675212557268164, 0.11334549773775993, 0.10996261120111996, 0.10656488342357073, 0.10321488606322127, 0.09991565539359411, 0.09661875367431579, 0.09334734309315833, 0.09008126809619535, 0.08688227267097837, 0.08371093330257375, 0.08060485320870185, 0.0774533417065944, 0.07436397888313044, 0.07128341445886595, 0.06826132446415947, 0.06529083928743473, 0.06234575668897873, 0.05941807681775128, 0.05655435134319942, 0.053710875117873334, 0.050905216430072626, 0.048122207192410144, 0.045416488457892354, 0.04274528501949463, 0.04004804244049932, 0.03746040424090278, 0.034891168746589755, 0.03240157523041442, 0.02993065232712749, 0.027498067164837048, 0.025113188303508307, 0.022775240985803705, 0.020423791485672523, 0.01819478858831473, 0.01600285198430742, 0.013793011734429138, 0.01170568772308139, 0.009621352299744866, 0.007620887428550729, 0.005600645386209467, 0.003671592962477539, 0.0018540803458347338, 0.0