0.04628610108077921, 0.04613543273129839, 0.04600380013430693, 0.04588290994538217, 0.045844994209621306, 0.04579221050931438, 0.04569403825502288, 0.04565550721554043, 0.045672425669211605, 0.04560285609356381, 0.04563736461421265, 0.04559298171741023, 0.04557659644443441, 0.04558345339393072, 0.04559353396404153, 0.04557347062108652, 0.04558653400962285, 0.04558289503432932, 0.04562872576106241, 0.04564900226517726, 0.045638532802745414, 0.045667024655494756, 0.045696235540352764, 0.04567463555108014, 0.04574318649576969, 0.04576599529644117, 0.045799718524180306, 0.04580818638865404, 0.04584726337287615, 0.04592935400809927, 0.04599761704467681, 0.04605038452870716, 0.046091249857116844, 0.04613746353690766, 0.04624001929620844, 0.04628892499591022, 0.04637649978927213, 0.04648193146711026, 0.04658405392084205, 0.04668855820675185, 0.04683166692036832, 0.04690204887508594, 0.04707828857874012, 0.047193786988749147, 0.04735112551677221, 0.047465818102673155, 0.047645709281241885, 0.04781374178508426, 0.048012293445919764, 0.04821460566703476, 0.04837916252145924, 0.048605932777777104, 0.048821792021389754, 0.04905941337172823, 0.04925756880433674, 0.049554774259295206, 0.04980063253309799, 0.05005358469378728, 0.05035272401743723, 0.05060676734884366, 0.05095344745167988, 0.051227580390506185, 0.05154492362094765, 0.05190517200285599, 0.05227300026154096, 0.052630440954132426, 0.0529613546957176, 0.053380272487153275, 0.053737115794175457, 0.054142973160901345, 0.05454000484157775, 0.05498428008420818, 0.05543494045784626, 0.05592490631637778, 0.05637153132900453, 0.0568600789949401, 0.05730343328114318, 0.05782458155217629, 0.05833573356661135, 0.05892582020836124, 0.059410152747269795, 0.059978323823899095, 0.060578119675882065, 0.06113397380778789, 0.06177035536872448, 0.06235404381392467, 0.06298915842591055, 0.06367835070262538, 0.06434225204649939, 0.06501426804579272, 0.06569203607929393, 0.06635602514493265, 0.06709863941614143, 0.06783746795299005, 0.06861693824803675, 0.06940193976799361, 0.07018740707721058, 0.07098671942517272, 0.07177064042722328, 0.07265958433117367, 0.07349213959499222, 0.07433891849654069, 0.07523296212422816, 0.07616441109295728, 0.07710536362633955, 0.07803743408652232, 0.0789573880909376, 0.07994443925280219, 0.0809515171512206, 0.0819346760787103, 0.0829707301204052, 0.08407232421595727, 0.08508623405408107, 0.0862168372039654, 0.08730802481291226, 0.08838526342721971, 0.08953039177875204, 0.0907035943489611, 0.09189643750828043, 0.09307046074943585, 0.09426408493813283, 0.09549227848258758, 0.09673742673885298, 0.09801484113886891, 0.09932439261141873, 0.10062246905652004, 0.10196434649773893, 0.10327200186406615, 0.1046600372012914, 0.10601919853218444, 0.10740705907924902, 0.10882389369566989, 0.11028599256981192, 0.111735605807168, 0.11316974732032814, 0.11467373296481786, 0.11619314070762747, 0.11772311828349294, 0.11928165993856049, 0.12080307103865243, 0.12241821213107675, 0.12398831839786313, 0.12561342974634412, 0.12722599373417565, 0.12891117970210605, 0.13055902915788395, 0.13226250131259382, 0.13394540643798625, 0.1356325793015995, 0.13739760472517498, 0.13912558007135906, 0.14089606189077675, 0.14267823526439177, 0.1445064077441814, 0.14629306642994708, 0.14814245570789247, 0.14994219273427448, 0.1517906203699768, 0.1537015463427789, 0.155587971717731, 0.15745601916611385, 0.15936855879807804, 0.16129846533197723, 0.16323885558773785, 0.1651843248416636, 0.16718662884217894, 0.16913296969420538, 0.17114219223931246, 0.1730993988063948, 0.1751453599380514, 0.17716772380763895, 0.17917600838447634, 0.1812579704796059, 0.18326474335631288, 0.1853626832208386, 0.1874313259649221, 0.18948436299493587, 0.19155876421301293, 0.19365374521034545, 0.19581439230456363, 0.19791168438138584, 0.20003650399064582, 0.20211352269586105, 0.2042556992286718, 0.20640365400216953, 0.2085623251133981, 0.21070036012278545, 0.21281148538891578, 0.2149829103318021, 0.21715959819098526, 0.21931313083298024, 0.22145593073677888, 0.22361176605037006, 0.22582257402352235, 0.22798013026133346, 0.23012043980943644, 0.23229659823643137, 0.2344581366370632, 0.23659420242116033, 0.23880696680332417, 0.24090866431435973, 0.24309300918118903, 0.2452741304584964, 0.24742089570221149, 0.2495136234971089, 0.25169162652075094, 0.2537943628373251, 0.25597844596235947, 0.25804549175216057, 0.2601830575473668, 0.2623100536205213, 0.26436907566764, 0.26649728910990633, 0.268568189811739, 0.2706670628808362, 0.27268759345459476, 0.2747238020988845, 0.27681710328503756, 0.2788323927639928, 0.2808096526735618, 0.28280640465046236, 0.2848193048075242, 0.2867899077789759, 0.2887411137114393, 0.2907136802993939, 0.29259825469389006, 0.2945103188282898, 0.2964032356803147, 0.29827438989381844, 0.3001348355510507, 0.30195785175822815, 0.303769966730309, 0.3056037920150768, 0.3073762836328251, 0.30910278623460646, 0.3108643040480068, 0.31254962938193104, 0.31425290769085895, 0.31590495676730906, 0.31754185359421544, 0.3191415996011023, 0.32072369055535616, 0.3223003973919697, 0.3238176830463602, 0.3253765675914127, 0.326842776192841, 0.3282750797175585, 0.3297307333333172, 0.3311114033892064, 0.3324880021774957, 0.33379317686828397, 0.33510345017074233, 0.3363777794519288, 0.33762929963352717, 0.33886928117190707, 0.3400058607081695, 0.3411729602120489, 0.34230254607341937, 0.34337968201678876, 0.34443065467949113, 0.34540443228855966, 0.34641065519967706, 0.3473184209589675, 0.34823661383081134, 0.34911091889130313, 0.34993265067131596, 0.3506888635968869, 0.35144923087746155, 0.3522288716357478, 0.35288526176440804, 0.3535318429411678, 0.35408186300986066, 0.35467942570848116, 0.3552189811034418, 0.3556690497132847, 0.356115661395294, 0.3564896466664769, 0.35685476696651347, 0.3571954185499528, 0.3574662007935746, 0.3576778007458672, 0.3579104148792535, 0.35805156063532234, 0.35812922954233134, 0.35818974521968827, 0.35822534792644617, 0.35820230314195006, 0.3581489084459466, 0.3580745026353751, 0.35788016355641367, 0.35769561886691825, 0.3574285830097286, 0.3571547681159737, 0.3568302740288987, 0.3564927686040131, 0.35607616843024664, 0.3555921917969858, 0.3551161441298185, 0.3545857563978036, 0.3539917140549928, 0.35332049066179827, 0.3526281627838217, 0.3519683495989988, 0.351153018254222, 0.35039846084449827, 0.34949015418001333, 0.34865741794914445, 0.3476642091392102, 0.34673460153377494, 0.3456963806322449, 0.3446002548947816, 0.3435271423726202, 0.34237500824705447, 0.341180623052145, 0.33992200034206876, 0.33863143315056643, 0.3373390439994632, 0.3359773269280832, 0.3345362231287298, 0.3331405182478043, 0.33160369335824286, 0.33009497387580905, 0.3285632133544504, 0.3269162038289161, 0.32530058398484096, 0.32360234406542504, 0.3218576937105774, 0.32011899879082806, 0.31832501919966666, 0.3164815259356125, 0.3145884300168626, 0.312691644448194, 0.3107310976878291, 0.30874977393123987, 0.30673418856919193, 0.30472234463809017, 0.30262746901007226, 0.30049553038775023, 0.29832046666993045, 0.2961149215470437, 0.2939052888090942, 0.2917021444131113, 0.28936744376859297, 0.2871124818919283, 0.28472528416767995, 0.2823662392019614, 0.2799843309462419, 0.27755428833623635, 0.27507157332916177, 0.2726029906833483, 0.2701256961686075, 0.267593959509608, 0.26500209086313353, 0.2624188488338559, 0.2598658348306111, 0.25722354696615324, 0.2545493919007746, 0.2518800561253294, 0.24920265039519213, 0.24653243637356692, 0.24376464188946695, 0.2410028605150753, 0.2382883303530836, 0.2355072046176794, 0.23269438900934775, 0.2298434725858682, 0.22706839738289342, 0.2242020261998025, 0.22136810446289693, 0.21847858656804756, 0.21558773232624842, 0.21270799740112056, 0.20982838613108803, 0.20690452038142432, 0.20399097133653402, 0.20111380736798384, 0.19813704940447863, 0.19525037228913525, 0.19227240865927517, 0.1893424671196359, 0.18638340279874968, 0.18346616465395504, 0.18047285189983525, 0.17751423630185334, 0.17458509428491795, 0.17160842897927606, 0.16866620268723478, 0.16572581319784654, 0.16277632395835648, 0.15986862018066547, 0.15692530677117741, 0.15400560047851586, 0.15106478790324634, 0.148129948967914, 0.1452195675535062, 0.14233347892644058, 0.1394411178551557, 0.13660739695454402, 0.13374338635019728, 0.13085921212186524, 0.12800454128077937, 0.12521130109454048, 0.12241240655171359, 0.119631417572277, 0.1168419681185441, 0.1140634360732343, 0.11130768057879684, 0.10863069858977677, 0.10594661018706499, 0.10326491337083082, 0.10060658586833522, 0.09794761096820882, 0.09531998053684353, 0.092782293516754, 0.0901847360224692, 0.08767319858439385, 0.08519118869926834, 0.08268704825152286, 0.08019344335856388, 0.0778066888016752, 0.0753875521284012, 0.0730261447303913, 0.07070160971308814, 0.06840516346456725, 0.06612394425220423, 0.06388522467315615, 0.06172200650548955, 0.05955223352948475, 0.05736674989472355, 0.05531525395154919, 0.053253337770622564, 0.051226021909165725, 0.049233020056789166, 0.04727214846683331, 0.045335339680228494, 0.0434676965367705, 0.041641215239426425, 0.039903980966187164, 0.0381070779254033, 0.03645686704749341, 0.034747735297050476, 0.033142179371466685, 0.031589192220358824, 0.03001260792878946, 0.028549991249356206, 0.027098196091813343, 0.025743186156189424, 0.024393305733103783, 0.023082784485063585, 0.02181878124040048, 0.02060632359411982, 0.019422837076217683, 0.01834657893372261, 0.017266120890525368, 0.016284896902091724, 0.015320205696346135, 0.014362954655055372, 0.013511632947641596, 0.012700744528667832, 0.011948844361330571, 0.011265343029031562, 0.010633787633598322, 0.01001692291798302, 0.009429663449026824, 0.008946714809543961, 0.00852148326145245, 0.00812861299165436, 0.007815346591658818, 0.007492354325221164, 0.007304771238616199, 0.007113957843203607, 0.006989213650353884, 0.006911964387771648, 0.00691270269435883, 0.007010308430911465, 0.007068162747095251, 0.007244599493624383, 0.007464248191043342, 0.007743774647255122, 0.008085257854783966, 0.008478154995002552, 0.008890318059140525, 0.009435875613176891, 0.009965366156160385, 0.01056214593011327, 0.01123090951705711, 0.011971354028607377, 0.012765171768038647, 0.013654002298890085, 0.014527589173111487, 0.015458133477535572, 0.016522679013614944, 0.017591217639787868, 0.018701512066762332, 0.019883695651047747, 0.02114853764875881, 0.022423795705396984, 0.02379202615284393, 0.02521965007890118, 0.026737514302113866, 0.028240987416569475, 0.029811638729682073, 0.03146793774984602, 0.03317706738164052, 0.03492763343792128, 0.03679721649802468, 0.03864985252909693, 0.040580692651131414, 0.04258061504262556, 0.044589012314168244, 0.0466883536526545, 0.04883513596144564, 0.051100591237961096, 0.053322119252973386, 0.055679695163037606, 0.05805732334388104, 0.060458207059238114, 0.06293674282621953, 0.06547603750647749, 0.0680912719449023, 0.0707755024856431, 0.07347344065188183, 0.0761987000625176, 0.07904145697384068, 0.08188454515986254, 0.08481302793296226, 0.08777862804567349, 0.09078020478381056, 0.09386809381856945, 0.09697144944234698, 0.10015020600935631, 0.1033746101779725, 0.10664732923384272, 0.11001824998600891, 0.11334347074750156, 0.11678810971402773, 0.12029054069363838, 0.12378320353893249, 0.1273484865548283, 0.13099347716098156, 0.1346342206891227, 0.13834420336628991, 0.1421151142558778, 0.14591858919426767, 0.14982311391478195, 0.15368251565396876, 0.15765878577476283, 0.16161818739837658, 0.16568531339745216, 0.1697059469547537, 0.1738899260727454, 0.17804921474539093, 0.1822122835191101, 0.18647385721284482, 0.19080273526321603, 0.19509941162228053, 0.19949828707206188, 0.20393397770608085, 0.20840165826031196, 0.212865495521066, 0.2173847799826623, 0.22196870192406395, 0.22659555163338377, 0.23123012332011988, 0.23592395712069067, 0.24064391131601645, 0.24540121804423376, 0.2502196367440002, 0.255078170315193, 0.2599297666600447, 0.26481056698435934, 0.2697319600581103, 0.27468263787019664, 0.27967321475561685, 0.28470710909455643, 0.28980973163245555, 0.2948867907204853, 0.3000058113443909, 0.3051568728258411, 0.3103107423387977, 0.31553788149819995, 0.32078461448268614, 0.3260061179233621, 0.33134937490249033, 0.3366313101462451, 0.34199885407736147, 0.34731362725157316, 0.35272543285180996, 0.3581756319175804, 0.3635506777731566, 0.369036338886837, 0.3745178927009864, 0.3800262932700669, 0.3855101876055942, 0.39109741235245915, 0.39661767735698256, 0.40222029375943646, 0.40779912379179584, 0.4133861751827482, 0.4190198489614651, 0.42470719666473433, 0.4303264818525521, 0.43598249512722764, 0.44172415532993164, 0.4473629192489533, 0.4530781742692821, 0.4588125405580615, 0.4645477655625891, 0.4702960094941315, 0.4760489425937018, 0.48177336786050307, 0.48754577484365413, 0.49332147903847606, 0.4991328253620082, 0.5049141962881338, 0.5106770951427123, 0.5165132133762206, 0.5222506631066737, 0.5280813029092736, 0.5339108680235699, 0.5397066195453321, 0.5455011291430931, 0.5512936330614181, 0.5570962045408793, 0.562919148989027, 0.5686938384185323, 0.574485409286079, 0.5802965244516262, 0.5860628530663349, 0.5918672566761939, 0.5975885289589067, 0.6033927401693532, 0.6091260291443612, 0.6149021547101012, 0.6206293496073273, 0.6263536297254251, 0.6320325245202751, 0.6377863133291417, 0.6434375559485124, 0.6491392037052327, 0.6547719488392696, 0.6604360777446425, 0.6660144021986151, 0.6716752007541765, 0.6772644964623915, 0.6828170396855398, 0.6883524141058185, 0.6938623056189036, 0.6993852662862307, 0.7048915418344662, 0.7103280794680701, 0.7158050751222491, 0.7211535226793646, 0.7265444597484424, 0.7319525690384221, 0.7372282174380558, 0.7425313674176268, 0.7478001375754828, 0.7530871667127851, 0.7582559294428676, 0.7634278844064046, 0.768555045114442, 0.7736796126147913, 0.7787437279382057, 0.7837744782884613, 0.7888005316114576, 0.7937801125493615, 0.7986992346833666, 0.8035625126189688, 0.8083850982038353, 0.8132178770385716, 0.8179858443119318, 0.8226642778847272, 0.8273879184906456, 0.8319886593184775, 0.8365589653423368, 0.841098678028047, 0.8456251425905967, 0.8500259750616237, 0.8544505557882028, 0.8587758988421685, 0.8630956741362206, 0.8673024262652422, 0.8714968395437674, 0.8756642571039149, 0.8797282881066041, 0.8837864609163744, 0.8877031541109919, 0.8916584818670747, 0.8954910127429145, 0.899328451228681, 0.9030530553742881, 0.9066936693363989, 0.9103592039840264, 0.9138774116489768, 0.9173736679208189, 0.9208591113550104, 0.924202417237511, 0.9275339211073915, 0.93076693139328, 0.9339254439291961, 0.9370467256943003, 0.9400445623062228, 0.9430686371720279, 0.9459598829536635, 0.9488105576961219, 0.9515694745600782, 0.9542620186893427, 0.9568756239736609, 0.9594457366626845, 0.961898571261521, 0.9643121460183917, 0.9666494200553329, 0.9689023960411883, 0.9711071173532062, 0.9731824211340058, 0.9752341853522323, 0.9772039253469618, 0.9790554458951403, 0.98088173960862, 0.982612148736618, 0.984217484802045, 0.9858144628759619, 0.9872823855061001, 0.9886853696671553, 0.9900001016248645, 0.9912266170008447, 0.9924114201597267, 0.9934769608038738, 0.9944914841664176, 0.9954297239704538, 0.9962438707367582, 0.9969824490512691, 0.9976616799220989, 0.9982518373035768, 0.9987218122761821, 0.9991550982520788, 0.9994738450447148, 0.999740259538795, 0.9999259412914259, 0.9999651135988582, 1.0, 0.9998714078925698, 0.9997326989421399, 0.9994278145566632, 0.9990950113724878, 0.9986446836551831, 0.9981481154427382, 0.9975304903371379, 0.9968457591182187, 0.9961137841486729, 0.9952055913471759, 0.9942712093214826, 0.9932620316353135, 0.9921479418169763, 0.9909620457403479, 0.9896857557637733, 0.9882852903071754, 0.9868255944726158, 0.9853098973675218, 0.9836769529958326, 0.9819731880500595, 0.980213857423391, 0.978321425700561, 0.9764185641832854, 0.9743550764135498, 0.9722159356647172, 0.9700567453951133, 0.9677945008056571, 0.9653906552093128, 0.9629685971417989, 0.9604937191175584, 0.9578838490916266, 0.9551681662340563, 0.9524323290442964, 0.949597920422107, 0.9467020594486668, 0.9437041677951804, 0.9407007495434022, 0.9375651463661326, 0.9342994860860924, 0.9310326244567639, 0.927680139008443, 0.9243003888078719, 0.9207775588306714, 0.9171886552917051, 0.9135677930727676, 0.9098670008600233, 0.9061284651315045, 0.9022422654903104, 0.8983298689372387, 0.8944072387911377, 0.8903182146964824, 0.8862700568820598, 0.8820982957861538, 0.8778576325193569, 0.8735418457508256, 0.8692074021424155, 0.8648580941374197, 0.8603500117166673, 0.855855316661851, 0.8512587142876374, 0.8466546579039751, 0.8419580322007894, 0.8372703256116728, 0.8324442301055351, 0.8276142398668072, 0.8227769066691281, 0.8178080955203929, 0.8128641811693431, 0.8078000336983804, 0.8027346917192241, 0.7976850252910539, 0.7925259766781545, 0.7873001719542836, 0.7820824488296584, 0.7768397910038021, 0.771522027525247, 0.7662075829291214, 0.7607939444660055, 0.755409299224698, 0.7500088315692292, 0.7444899648054223, 0.7390589596812852, 0.7335208276573075, 0.7279695267767454, 0.7224167001922893, 0.716771049771021, 0.7112219382817091, 0.7055370945753191, 0.6999222357706835, 0.6942023339485008, 0.6885326859398472, 0.6828746889393144, 0.6771072695834645, 0.6714163592544309, 0.665628860697091, 0.6598882868829149, 0.6541504323984829, 0.6484169179732684, 0.6426235309721883, 0.636845231326644, 0.6310746561371076, 0.6253005912758157, 0.6194896705104651, 0.6137668095087861, 0.6079684988779922, 0.6022276139124368, 0.5964562268179274, 0.5906547999454638, 0.5849612251813974, 0.5792176752567912, 0.573491949760601, 0.567775919024862, 0.5620452281447861, 0.5563871541090801, 0.5507484624527739, 0.5450469483672117, 0.5394296724283184, 0.5338593718458138, 0.5282526839210042, 0.5226517429419117, 0.5171266279455187, 0.5115978529958013, 0.5061056495389384, 0.5006926140193119, 0.49522627290039034, 0.489818537122701, 0.4844464580591349, 0.4790808869115734, 0.473797759446727, 0.46853960938041256, 0.4632503394005548, 0.45809740339234506, 0.45291987894262664, 0.44778047693472994, 0.44272163334598374, 0.43762782672391853, 0.43265302837948144, 0.427694715287938, 0.4227636779012281, 0.41788060599666366, 0.4130699753017806, 0.4082730989959418, 0.40358409166167514, 0.3989147774038797, 0.3942624797909749, 0.389669479323979, 0.38509594656976354, 0.3806289241653616, 0.3762360740888229, 0.37185692625365774, 0.367524590113215, 0.3632290948344019, 0.35900738555123696, 0.3548390747705046, 0.35078169500539214, 0.34673148288357697, 0.3427076300763728, 0.3388086760875998, 0.33492513873454366, 0.3310771037047312, 0.3273255862085501, 0.32364315331930316, 0.32005081845602495, 0.3164338459501533, 0.31292940252685764, 0.3094816016072771, 0.3060722483714336, 0.302757688509969, 0.2994716998250798, 0.2962963494135177, 0.2931262986623157, 0.2900337046444582, 0.2870066340706956, 0.2840884376851342, 0.28115982256959127, 0.27832802518598976, 0.27561021596036867, 0.27288899110850734, 0.2702043609066495, 0.267638446161562, 0.26512078533051203, 0.2627188966962572, 0.2603126815202051, 0.2579788109317054, 0.25567649434409206, 0.25351316347723757, 0.251342474262986, 0.24931352496539766, 0.24726545806522093, 0.24529171629029797, 0.24344025448222945, 0.24156865926361318, 0.23979739288632315, 0.23810568367711535, 0.23647254987931038, 0.23486788629143554, 0.2333326387340553, 0.2318141498363348, 0.2304415205071536, 0.22902197612599373, 0.22776833716041164, 0.22650444608415696, 0.2253308742777502, 0.22416835676367816, 0.22307640666788642, 0.22207694880698403, 0.2210583099149777, 0.22015996615884287, 0.21925835596056065, 0.2184575896760298, 0.21768830845203316, 0.21695848221690262, 0.21625579606408313, 0.21568587139312043, 0.21509741549897696, 0.21451913067797823, 0.21404690578202654, 0.21363300194283283, 0.21319699637933, 0.21283427155190993, 0.21253369252846913, 0.21225304706993323, 0.2120372988991179, 0.21180379505099317, 0.21167781452270312, 0.2115336541729416, 0.2114383516078895, 0.21141442356275494, 0.21140388329138593, 0.21144594763971108, 0.21145300246794513, 0.21153746031800602, 0.21164497149600595, 0.21180698759918315, 0.2119453076012891, 0.2121483177728986, 0.21238723203273124, 0.2126251460982853, 0.21290527535196688, 0.21318219774040106, 0.21352855882044688, 0.21384204347515537, 0.21419636403337616, 0.21456101654889576, 0.2149498229633354, 0.21535629732612335, 0.21578043263479801, 0.21622168047676885, 0.21665820451324225, 0.21717065198796295, 0.21763387762106576, 0.21808286222252396, 0.21859733813008642, 0.21906118036083855, 0.21959056101821964, 0.22012227557408084, 0.22059760496283753, 0.22112976442995963, 0.2216407819400606, 0.22218075741680277, 0.2227006386928403, 0.22323550970668327, 0.22371870952026443, 0.224278937565722, 0.22476730348665014, 0.22527787373675862, 0.22580810478686675, 0.22628658099270946, 0.22679375976998728, 0.22724926123848574, 0.2277121137645396, 0.2281931622206558, 0.22860214131022116, 0.22907223822944842, 0.22950542935578092, 0.2298920345437807, 0.23028999488673974, 0.23066973066296853, 0.23104706996121951, 0.23133597857221236, 0.231670039536158, 0.23201143464415383, 0.23229548816988682, 0.23251409436572687, 0.23280720286515091, 0.232974714578678, 0.233225700210587, 0.23334602859491518, 0.23349718360622262, 0.23361858340393205, 0.23376169501115454, 0.23383493550546577, 0.23382557140189497, 0.23385261904050827, 0.23384659612599065, 0.23378522238904684, 0.2337434746904358, 0.23361742287848158, 0.23352031698177184, 0.2333189781809579, 0.2331307040666079, 0.23292296308794272, 0.23264893783269663, 0.23240829590926818, 0.2320460945921986, 0.23170731962850616, 0.23132001265397048, 0.23091423316992826, 0.23040994553469116, 0.22997711823746442, 0.22939389635084528, 0.22884518403799123, 0.22826040182125107, 0.2276415799172374, 0.22696687256194506, 0.22631005956170364, 0.22555951919401113, 0.22476964332535498, 0.22396216166544786, 0.22313585677788858, 0.22223881405522206, 0.22132144813265664, 0.22042231233523712, 0.21939707680851048, 0.21837785568875126, 0.21735240189595392, 0.21626650996913993, 0.21512182350575987, 0.21393982023033623, 0.2127949244287849, 0.21151267595905635, 0.21027279047265335, 0.20897984635695635, 0.20766512324365416, 0.20625149741922644, 0.20487066045250957, 0.2034422294230457, 0.20199725013826067, 0.20049936994158868, 0.19897091368401804, 0.1974089230615718, 0.19581230480754677, 0.19414992954575494, 0.1924932886177875, 0.19081580392535252, 0.18910533682891942, 0.1873860789224763, 0.1855873572399789, 0.18383204298335581, 0.18199237336895485, 0.18009592952390188, 0.1782728964968079, 0.17633156865904434, 0.17437690448737514, 0.17242954744624103, 0.17044668757738682, 0.16844879162210244, 0.1664608717586504, 0.16438742714503385, 0.16229258477550346, 0.1602500343777526, 0.158137654098741, 0.15600564432630448, 0.15381594722746328, 0.15165730816546807, 0.14947539029495682, 0.14733493631086747, 0.1451133819302776, 0.14288186215477328, 0.14062696666973573, 0.13840811843569284, 0.13610388054167716, 0.13384665662866138, 0.1315643494713921, 0.12931862360919602, 0.1270057228398055, 0.12469557290155803, 0.12240129042362376, 0.12008974425671114, 0.11776726238691261, 0.11539546367528995, 0.11312661966108724, 0.11075433720436491, 0.10842845813212208, 0.1061189694479373, 0.10378566120238283, 0.10151943666895251, 0.09918096270542899, 0.09687709410067863, 0.09454920695470063, 0.0922233562898789, 0.08997414243410472, 0.0876768846335293, 0.08539706559070863, 0.08309768579224759, 0.08084974929523459, 0.07862002944407574, 0.07639314317275661, 0.07418345033894078, 0.07194670933851047, 0.0697966570103017, 0.06758530743516919, 0.06546444633472889, 0.06334957459806898, 0.06119151414710369, 0.059120073491664656, 0.05702973105196786, 0.05499641663433501, 0.05299649470314421, 0.05094905884326843, 0.04902103102251788, 0.04703278131169764, 0.045105602887681916, 0.04326023984286814, 0.041348657057575657, 0.039542934510896036, 0.037704690646217606, 0.03597983530313849, 0.03423614169294704, 0.032488852930732975, 0.030847405747895445, 0.029218581726421024, 0.02758445495063175, 0.02602285228087749, 0.024520898141781627, 0.023004691161826855, 0.021607315657452116, 0.020164394694902457, 0.018834613534999566, 0.01745481667452959, 0.01619785110068205, 0.014975678490545308, 0.013795118291686392, 0.012641148655636023, 0.011487256976956444, 0.010479411207554011, 0.009468760966095384, 0.008458042520469694, 0.007561140077697548, 0.006730041106741904, 0.005867766948447176, 0.005136734872514508, 0.00439013705001531, 0.003779230958844629, 0.0031239368873449327, 0.0025596393491193, 0.0020507910924177915, 0.0016233601743584883, 0.0012445247993249392, 0.0009034933587762828, 0.0005685417407776062, 0.0003560956698474781, 0.00018038893233505881, 4.5034591172234026e-05, 4.498677131746804e-06, 0.0, 2.433451215167983e-05, 0.0001409860295064667, 0.000354175123078459, 0.0005760934214474775, 0.0008559283452992808, 0.0012292950098949068, 0.0016344392093126609, 0.00207112631425877, 0.0026007264314297875, 0.0031912261088600192, 0.003879779058642746, 0.004599143340092806, 0.005384370249488963, 0.0062056667000370954, 0.007085401705676102, 0.008065734351512584, 0.009086297425246352, 0.01022425416357593, 0.011351891929878092, 0.01254579577739621, 0.013866905407609128, 0.015193580911745762, 0.01660892573631346, 0.018106894120129106, 0.019588499288671315, 0.021217569363703268, 0.02288504979786956, 0.024602167922712886, 0.026371367443292833, 0.02824058486391607, 0.030163032915188823, 0.03218266462696723, 0.03417289183257528, 0.036317591011661564, 0.03849599508543211, 0.04069498676427519, 0.043035168710405615, 0.04538084023724917, 0.04778332409862329, 0.05030571008251864, 0.052856630807347135, 0.05546044909185092, 0.05814184914492734, 0.06087556854648891, 0.0637123969742214, 0.0665719944622416, 0.0694446602543072, 0.07243733671687468, 0.0755059654132915, 0.07859926456916233, 0.08176674002463569, 0.08500713748024916, 0.08829058857762132, 0.09166801239515265, 0.0950380856572899, 0.09849773689922983, 0.1020696934479525, 0.10561850884244812, 0.10927886656671618, 0.11292788223422963, 0.11669432734015713, 0.12049503169764493, 0.12436289478096384, 0.12829379687591247, 0.13229146280190565, 0.1362787309554141, 0.1403964422715243, 0.14454012683329126, 0.14872890737085176, 0.1529525168204476, 0.15722525230201304, 0.16158474751591287, 0.1659606125400228, 0.1704502833399519, 0.17495152765746347, 0.17947760857892503, 0.1840405803528894, 0.18868515780347955, 0.19338295084122215, 0.19815295911012532, 0.2029340773641815, 0.20773887628818036, 0.2125895445471151, 0.21749705410780593, 0.22250699415993436, 0.22747958054883047, 0.23253568101020228, 0.23763128373932343, 0.24273863072791377, 0.2478704654116657, 0.2530900258903438, 0.25833670844198237, 0.26360101171859057, 0.26890943780502863, 0.2742986482016249, 0.2796486877805543, 0.2850994798003161, 0.29055517439124096, 0.2960067729667821, 0.30157146242389543, 0.3071102427839218, 0.3126526096179218, 0.3182898641103309, 0.3239196173997234, 0.3296249583673443, 0.33527206790872216, 0.3410092295123069, 0.3467520585360318, 0.3525491557482981, 0.35830024903373076, 0.3641455926626968, 0.37000919551352135, 0.3758536391086641, 0.38169388653252934, 0.38763226197207784, 0.39353802960388506, 0.3994510183519493, 0.4054597043714177, 0.4113977523892038, 0.4174047921893131, 0.42336852936182795, 0.429391242553007, 0.4354036701679019, 0.44143729285680483, 0.44748851997181643, 0.4535623441068164, 0.45963225301145755, 0.4656737016576336, 0.4717704761433223, 0.47783839358728747, 0.4839229368890825, 0.49003321386284077, 0.49608192215384517, 0.5022319312828893, 0.5083228392198188, 0.5144120393720163, 0.5204565132740483, 0.5265826032751771, 0.5326520053575173, 0.5387537397237424, 0.5448085871286624, 0.5508812385567584, 0.5569861579638953, 0.5630077888388815, 0.5690692963596995, 0.575104208452592, 0.5811734654428576, 0.5871621860439027, 0.5931386732478519, 0.5991237400276752, 0.6051060921584199, 0.6110463770775612, 0.6170103103501001, 0.622903934472196, 0.6288599596615414, 0.6346954176868367, 0.6405781394995147, 0.6463818483158793, 0.6522416175676589, 0.6580208443435519, 0.6638011112421871, 0.6694901178163996, 0.6752274295744942, 0.6809393275442402, 0.6865459648922833, 0.6922040316054113, 0.697820086910245, 0.7033376641596022, 0.7088893096577108, 0.7144058362840673, 0.7198718092115634, 0.7253061650998578, 0.7306677409655086, 0.7360087350923523, 0.7413281957546618, 0.7466321906371045, 0.7518449226866996, 0.7570151701241058, 0.7621793641362037, 0.7672827993449125, 0.7723503717273447, 0.7774059089792675, 0.7823582338358671, 0.7872945401434943, 0.7921487187882439, 0.7969535402461858, 0.8017282975771024, 0.8064742763350644, 0.8111727737373476, 0.8157655742079069, 0.8203388098777524, 0.8248320147873439, 0.8293353728292616, 0.8337127527590955, 0.8380823347234881, 0.842328083844041, 0.8465609145732185, 0.8507285131186468, 0.854878992904909, 0.8589358409793002, 0.8628723718618028, 0.8668064619558491, 0.870713433376209, 0.8744940330477559, 0.8782137336958628, 0.8818717129644437, 0.8854834440760433, 0.8889975141355305, 0.8924995552574109, 0.8958961686838847, 0.8991797274006273, 0.9024368019181138, 0.905652104975613, 0.9087395311701085, 0.9118118860657956, 0.9148004295736204, 0.9176773537595242, 0.9205107681429029, 0.923225529952153, 0.9259406813148198, 0.9284959138067522, 0.9310637884870024, 0.9335065889770684, 0.9358297426805775, 0.9381512389706427, 0.9403492716538263, 0.9424779018145298, 0.9445242296547248, 0.946516673178472, 0.9484367598859137, 0.9502280697460684, 0.9519748130522769, 0.9535891654564072, 0.9551482912259485, 0.956667491099908, 0.9580914233805256, 0.9593604185413205, 0.9606376565471098, 0.9617567586863128, 0.9628345611174328, 0.963867827444277, 0.9647184392845437, 0.9655859932211422, 0.9662751919033844, 0.9669072273876589, 0.9675042042500342, 0.967956909122448, 0.9683699212566934, 0.9686631346301914, 0.9688763506290319, 0.9690551387681008, 0.9691082284973063, 0.9690465191701693, 0.9689426130791949, 0.9686788059447115, 0.9684465202850171, 0.9680149439334619, 0.9675736872353972, 0.9670300115829268, 0.9664123870164959, 0.9656579922487094, 0.9648483697938471, 0.9640133815097411, 0.9630266814537006, 0.9619463826169685, 0.9607629124644477, 0.9595523681321027, 0.958235239276571, 0.9568666828225502, 0.9554041943302215, 0.9537874333748761, 0.9521615166258104, 0.9504343661013679, 0.9486062158827073, 0.9467444222186175, 0.944743903005814, 0.9426975226410917, 0.9405674611756859, 0.9383790731038268, 0.9360357819810252, 0.9336638203486678, 0.9312259193260374, 0.9287229016149617, 0.9261227097567948, 0.9234165702211126, 0.9206476993129349, 0.917818427851461, 0.9149507441344477, 0.9119142300873767, 0.9088854644695683, 0.9057489558771414, 0.9025682714932222, 0.8993031609320988, 0.8959363271987829, 0.8925599129802774, 0.8890821284281645, 0.8855476071164524, 0.881894590752526, 0.8782268840896652, 0.8745353817772329, 0.870679609351341, 0.8668183694114721, 0.8628914855419597, 0.8589450429215472, 0.8548338501606173, 0.8507478253370816, 0.846572152997195, 0.8423553849330447, 0.8380489877186404, 0.8337277359262455, 0.8293194534398701, 0.8248759085012904, 0.8203791042090559, 0.8158642045137328, 0.811242406943132, 0.8065841828048856, 0.8019273152261751, 0.7971694319545162, 0.7924035779398495, 0.7875227289563045, 0.7827029834087452, 0.777738899955622, 0.7727917724502669, 0.7678002909773931, 0.7627664317024103, 0.7577104873615151, 0.7526038265669536, 0.747464408630641, 0.7423001384062413, 0.7371060888860365, 0.7318561988517039, 0.7265957046977181, 0.7212965300634526, 0.715994807689401, 0.7106954237083999, 0.7053147088194458, 0.6999019820960485, 0.6944969765471014, 0.6890677346559343, 0.6836167316172169, 0.6781326786809619, 0.672696171373147, 0.6671818698193418, 0.6616693467252001, 0.6561563908578507, 0.6506074012739095, 0.6450911283342778, 0.6395216461221623, 0.6339675762901958, 0.6284149893621013, 0.6228990445797088, 0.617309007837509, 0.6117401478728499, 0.6061400986225599, 0.600618456388857, 0.5950467632396791, 0.5894494655008585, 0.583947747284521, 0.5783439891046918, 0.5728151333613017, 0.5673281520629931, 0.5617653997868469, 0.5562570944961687, 0.550778017711676, 0.5452883188564711, 0.5398379703657992, 0.534385942777824, 0.5289294776709138, 0.5235199228208794, 0.5181396810213784, 0.51274577359587, 0.507447290891813, 0.5020809389033296, 0.4968177623428082, 0.4914973231620347, 0.48630251941225994, 0.4810510534524284, 0.47584258376500166, 0.4706855240201569, 0.46557423878559057, 0.4605116273995888, 0.45540772061394613, 0.4504180514812934, 0.4454350250593067, 0.4404780983347166, 0.43554482739873995, 0.43065779018932254, 0.4258417474753933, 0.42102307761882646, 0.41629877320527264, 0.41157347322488347, 0.4069250566323978, 0.40226747831303294, 0.39768601313494084, 0.3931632215424136, 0.3886692743000534, 0.3842747405225221, 0.37987283628193314, 0.3755356927324729, 0.3712399882285416, 0.36694371707932927, 0.3628042441878834, 0.35863793621991247, 0.35453283890765974, 0.35052919311381353, 0.3465130950094431, 0.3426082092617615, 0.3387100565789303, 0.3348969846020415, 0.3311448061675297, 0.3274233448818238, 0.3237765964082459, 0.32016882354894804, 0.31662796757355066, 0.31314765685289847, 0.3097593456661579, 0.3063478351854699, 0.3030379196936748, 0.2997834181117579, 0.2966113560753848, 0.29345665519734543, 0.2903835368808402, 0.28736723155569405, 0.28445506975808466, 0.28155428382080144, 0.2786663271262646, 0.2758922858665592, 0.2732303734562003, 0.2705172021069702, 0.2679303105020497, 0.2654396924444579, 0.2629556247687898, 0.26052877429747284, 0.2581295598775509, 0.25583719414679695, 0.25364015739751256, 0.2514451687996969, 0.24932339563789013, 0.24726067285870648, 0.2452826185883813, 0.24333782031679158, 0.2414106444793481, 0.23961401601394333, 0.23781993143392793, 0.23613812653558416, 0.2344694316309518, 0.23283684886473463, 0.23129915897196457, 0.229806113663357, 0.22837731422685795, 0.22700997174421703, 0.22569779232097276, 0.2244239508015181, 0.22319235164860332, 0.22199650506052707, 0.2208914190104013, 0.21982414138315556, 0.21878639862765326, 0.21781864516753102, 0.21690241654884393, 0.21606302378227657, 0.2152122329873363, 0.21447255037290336, 0.2137126212987724, 0.21304960222145378, 0.21238474198194454, 0.2118181494636286, 0.21123086984246653, 0.21072591195794008, 0.21029889040120378, 0.2098299478468379, 0.20949310518119926, 0.20909440415476346, 0.20882301664922176, 0.20855317379129404, 0.20831453392436483, 0.20807040185339837, 0.20791403249103177, 0.20781513823144035, 0.2077100806917983, 0.2076225416123119, 0.20759022880227912, 0.2075878189153986, 0.20763057681077637, 0.20770623901330026, 0.20774992623276192, 0.20786559766332965, 0.20802803618855767, 0.2081286125736166, 0.2083199510380438, 0.20854919513108408, 0.20875206294403298, 0.20901814853028355, 0.20925592580364055, 0.20954136260349362, 0.20983499725978277, 0.21013619895689073, 0.2104462676661175, 0.21084375620238752, 0.21118861962357607, 0.21151154238344333, 0.2119203271704188, 0.21230676023478504, 0.21272692412378374, 0.21310149109955362, 0.21349884119749643, 0.21392969440443246, 0.21433698240240054, 0.2147645449365844, 0.2152012759555452, 0.21564306746801146, 0.21610320851628045, 0.2164848671162639, 0.21692672077201225, 0.2173668275795363, 0.21781391773568068, 0.21822040102535467, 0.21859930930349297, 0.21901941681405304, 0.21943995042747963, 0.21985609584862623, 0.22025740165370766, 0.22062742698949542, 0.22100022054684468, 0.22132293313166562, 0.22167632714836555, 0.22205134206154892, 0.22236680916864437, 0.22263616476570922, 0.2229639985613335, 0.22325333649985973, 0.22351813908608575, 0.22375031013155847, 0.22398368547475406, 0.22419377645118155, 0.22436350884757644, 0.22451343538682475, 0.22466429528513535, 0.22479926450049673, 0.22490809726342792, 0.22501823993973885, 0.22508489371895296, 0.22511487498367017, 0.22507075692499287, 0.22506028286927673, 0.22504051627470056, 0.22497553272576348, 0.22486709555755213, 0.22475734658606913, 0.22459753269388433, 0.22447632626193031, 0.22425327608681006, 0.22400260901490665, 0.22375722114423247, 0.223465483131392, 0.22313454083870232, 0.22278389510655047, 0.22241436125639932, 0.222000522798704, 0.22152383732301936, 0.22108629061927412, 0.2205673928684472, 0.2200240610389288, 0.21944806424381552, 0.21889363086870947, 0.21825456226975848, 0.21755848863550425, 0.2168740506851827, 0.2161423642759513, 0.2154198179813256, 0.2146396959338433, 0.21375839916231726, 0.21294852360136077, 0.2120265296314446, 0.21113419394412056, 0.21013410651909367, 0.20919101154834197, 0.2081380138096529, 0.20708128710608936, 0.20605088492518575, 0.20493306978626166, 0.20373520757535776, 0.20259674938068659, 0.20140055608542737, 0.2001437227397122, 0.19885210782672288, 0.19755553048226238, 0.19626728533789892, 0.19487380848923133, 0.19353029053959772, 0.19205787343390937, 0.19061410722626126, 0.18916592370487842, 0.18763689420600418, 0.18615193625893128, 0.1845710715229005, 0.18299467573770328, 0.18138506792078943, 0.17977312657672884, 0.17809938665794356, 0.17642374602746808, 0.1746873077040165, 0.17295545005680255, 0.17122639395532593, 0.1694342467968549, 0.167663561576371, 0.16580868399041834, 0.16397754862059186, 0.16208820601669535, 0.16024698292250716, 0.15833296663023563, 0.15641017771925678, 0.1544751764885677, 0.1525643168452554, 0.15056959963539582, 0.1485932353141332, 0.14661032157687676, 0.14460968479053646, 0.14254677696857537, 0.1405361966248179, 0.13850877644101278, 0.13642931165337072, 0.13435332997917548, 0.132287503051603, 0.13017601809347243, 0.12810266352896185, 0.12604375407900814, 0.12389972144477007, 0.12183277872243191, 0.11968120777503247, 0.11759585408392556, 0.11544862673196028, 0.11337240381792271, 0.11122465697728598, 0.10909661513378713, 0.1070116345381124, 0.10489994089600516, 0.10275242217862207, 0.10064695326464546, 0.09857960513429213, 0.09647466447093607, 0.09436023133240849, 0.09227285200918567, 0.09021231931219031, 0.08817645016505198, 0.08608396423910826, 0.08408636559098143, 0.0820283492453575, 0.07998483804667085, 0.07802102431300065, 0.07599769748327995, 0.07401804078589891, 0.0721129484863121, 0.07011569124846874, 0.06821883563827844, 0.06628975184901348, 0.06442949456372844, 0.06258215265876392, 0.06070130387049141, 0.05892115987413745, 0.057107867871710266, 0.05535114101406011, 0.053613751662531885, 0.05184545768610644, 0.05015673183252178, 0.048525033481010955, 0.04685658637922171, 0.04525075084984069, 0.04366629850466934, 0.04216264508664047, 0.04063518990640979, 0.03914213931815988, 0.03770784893763687, 0.03629339121375593, 0.034905699839301016, 0.03352165768635471, 0.03224649208164399, 0.030940371250716376, 0.029734392447308803, 0.028513828111501598, 0.027384485281759897, 0.02623052830125836, 0.02519121341392014, 0.024158121776693974, 0.02316140725436149, 0.02218223247222619, 0.02127634367589587, 0.02042283783112159, 0.01960599139642248, 0.018831069378351134, 0.01806261059279749, 0.017390175970746116, 0.016797271456530753, 0.01619717631487041, 0.015608365487375136, 0.015117415987321832, 0.014707098332656822, 0.014286262417128145, 0.013938522955995247, 0.013634578591536843, 0.013387255670459584, 0.013187147867684356, 0.013064795481549324, 0.0129577361176128, 0.01291638566922085, 0.012977442449721169, 0.013035725211643928, 0.013139126289207896, 0.013308005691165754, 0.013530057523919637, 0.01380927136787172, 0.014136072766211828, 0.014580087875783927, 0.015014940005656102, 0.015508463460135074, 0.016057281976703638, 0.01670762219736952, 0.017387536632049984, 0.018078144912765836, 0.018891428065090456, 0.019737849523697497, 0.02064922536531129, 0.0215950192326077, 0.022598954403105737, 0.023716112306307494, 0.024831310331068092, 0.026047389527851333, 0.027257214518521422, 0.028594672221841633, 0.02995534210563399, 0.03135818593286234, 0.03290013727787178, 0.03438274618713958, 0.036039742103213805, 0.03764232176335656, 0.03941512854970869, 0.04118050635696429, 0.043009593286967386, 0.044862894832038, 0.046824735109667906, 0.04886112310853894, 0.05092329928418057, 0.0530449829882987, 0.05519972360871275, 0.05748963057505542, 0.059774215212295916, 0.06210716186120255, 0.06451265600135037, 0.06703406241119475, 0.06953906604007053, 0.07214072389326133, 0.07478110119384448, 0.07748012020786471, 0.08023408880006773, 0.08300037331773415, 0.0859085691068698, 0.08879735529631691, 0.09179753092369403, 0.09480162243625358, 0.09789681075181464, 0.1010404185225851, 0.1042739127276843, 0.10749603634036964, 0.1108219757499711, 0.114138399789691, 0.11752622018218564, 0.12098130651037642, 0.12454506773145727, 0.12810204238488393, 0.1317038869875942, 0.13532868068627918, 0.1390812044264173, 0.1428513926503109, 0.14663316012989291, 0.15049008094281222, 0.15440563257700873, 0.15838708446175556, 0.16240032205593988, 0.16640697727499476, 0.17050466773985967, 0.174702259209216, 0.17884527606877282, 0.183127861162488, 0.18736748938434006, 0.19170639953795807, 0.19603220887602255, 0.20048751399830275, 0.20492701475556385, 0.20943569575462842, 0.21391867194270628, 0.21854026996612266, 0.22315194170920008, 0.22780886800111108, 0.23249805555628433, 0.23720178177499282, 0.2419951146984702, 0.24678812421761565, 0.2516117212799725, 0.2565174335445539, 0.2614010280976365, 0.26639531578939013, 0.27132006722558394, 0.27633142667127836, 0.2813809377182496, 0.2865036632871373, 0.29160103205762933, 0.29669711327490206, 0.30186647489239626, 0.3071000104405968, 0.3123100689779406, 0.317547602011192, 0.3228356652548543, 0.32808986633516324, 0.33344225773648817, 0.3388072464501605, 0.34414559697865177, 0.3495784488380325, 0.35501061951084406, 0.36044737336423777, 0.36589527436772046, 0.37137324101370367, 0.3768796476222394, 0.38240448833380025, 0.38792351009883985, 0.3934414285350054, 0.3990346192604514, 0.4046446038122576, 0.41019554602121683, 0.41585832750525753, 0.4214574638525178, 0.4270979100551975, 0.43273582492074186, 0.4383918358176159, 0.44405134642798577, 0.4497384217738669, 0.4553865630612026, 0.4611182646385828, 0.46677844772932686, 0.4724760908815166, 0.47818745449106237, 0.48388261281554934, 0.48961315716677173, 0.4952902092796756, 0.5009968309768699, 0.5067013358200432, 0.512406609766537, 0.5181520959119232, 0.5238460739566596, 0.5295473031449831, 0.5352477451528401, 0.5409035389788963, 0.5465710100847456, 0.5523013874089403, 0.5579636249787502, 0.5636147182046368, 0.5692613982381268, 0.5748536290592667, 0.5805054226111579, 0.5861424150834393, 0.5917003244472957, 0.5973464967497372, 0.6029035583352953, 0.6084545804839412, 0.6139784576276583, 0.6195088842764407, 0.6250023843105973, 0.630462580072104, 0.6359600160823058, 0.6413714946219737, 0.6468034597163554, 0.6521655150095117, 0.6575341379662264, 0.6629236890700545, 0.6681918779065803, 0.67352042761123, 0.6787583009490058, 0.6839863468014242, 0.6891730599744067, 0.6943540634057643, 0.6995445946959251, 0.7045941740997334, 0.7096846312952062, 0.7147558569184, 0.7197133927046265, 0.7247085981647163, 0.7296071468923135, 0.7345062441703757, 0.7393530115629285, 0.7442054873350282, 0.74898530642746, 0.7536706991672875, 0.758364804838954, 0.7630200561865853, 0.7676183947936815, 0.7721886809583252, 0.7766906357249076, 0.7811638423424487, 0.7856071579130594, 0.7899491970815778, 0.7943017006591705, 0.7985788228402798, 0.8027508340242461