0.03944315490462002, 0.039084126907190736, 0.03880877965841287, 0.038568929418108605, 0.038250000119561825, 0.03802790058439595, 0.037857257409993614, 0.03766639458025588, 0.03743383767233212, 0.0372513696998921, 0.03707822902652179, 0.03690725788653483, 0.03676953173860074, 0.03663446826433888, 0.036454321615859125, 0.03630995565343609, 0.03618316028241286, 0.03604063865659001, 0.03589781004752996, 0.03577836645667187, 0.03565551908463805, 0.035548761256154915, 0.03538257195882961, 0.03524706239961313, 0.03517414180008611, 0.03502452775241776, 0.03497124450723256, 0.03482152195079534, 0.034777882100775426, 0.03464912405245862, 0.03458660682020925, 0.03447009059505637, 0.03441107404210032, 0.03435459947414337, 0.03428875202172506, 0.03422286434122713, 0.03418790107251936, 0.03414035950504129, 0.034188992369409844, 0.03409190764568768, 0.034087305935290746, 0.03413553933175896, 0.03410768706095035, 0.03411745976506557, 0.03415896954417477, 0.03423762002803114, 0.03430438155764209, 0.03435723195399921, 0.03437510277376722, 0.03450371807178047, 0.03461332933478925, 0.03468075714538202, 0.03480001976477946, 0.0349881005574228, 0.03514358314921176, 0.03527982766432939, 0.035427987572974655, 0.03563260953756269, 0.035834579503065705, 0.03597848420172879, 0.036212877176151514, 0.03649000008770103, 0.03675353095335665, 0.03701801922608242, 0.037252126294646214, 0.03759132217599906, 0.03785205003401553, 0.0382309993371866, 0.038579009994860455, 0.03884600208572842, 0.03922323222645043, 0.039667479033038265, 0.04001176798355825, 0.04043601289514279, 0.04087220511041185, 0.04132451198261239, 0.04175511715847805, 0.042221708645667565, 0.042719195755319135, 0.0432269939403093, 0.04379133389128969, 0.04426274153385148, 0.0448496272809102, 0.045397895015315666, 0.04600405558716301, 0.046605105238221846, 0.04723398508040435, 0.0478916763333027, 0.048603462006624354, 0.04927187743673148, 0.049938186844420786, 0.05062178554938069, 0.05136988868511374, 0.052194685600522005, 0.05290442613254308, 0.05376141934665706, 0.0545479597221065, 0.055370992954935416, 0.05620297870658729, 0.05710559353218056, 0.0580487783651118, 0.058906775022797876, 0.05985283591369583, 0.06081038131927927, 0.06178754733474966, 0.06279534087883568, 0.06385535128905527, 0.06490280361636219, 0.06596885946362491, 0.067035139843367, 0.06817428543766481, 0.06923514644399689, 0.0704237381687427, 0.07162317734375812, 0.07277845751885012, 0.07400754483481126, 0.07526866128637306, 0.07658418991844729, 0.0778054711434087, 0.07915218517988529, 0.08045640306869793, 0.08184171574058782, 0.08324017489905487, 0.08459401899964093, 0.08604163316704903, 0.08754578988592494, 0.08894210236880407, 0.09048281738565571, 0.0919816902727085, 0.09352479901846439, 0.09510452097929616, 0.09672213095345936, 0.09833726865981168, 0.09994113940856647, 0.10161937024569036, 0.10327784501184178, 0.10497365154448274, 0.10675619198307008, 0.10850936837989661, 0.1102213040343671, 0.11201781651924941, 0.11383629212922967, 0.11569019876065446, 0.11760389869910058, 0.11944915136071016, 0.12134722246755394, 0.12334240554836201, 0.1252919115148653, 0.1271940338945481, 0.12919732934702086, 0.13122940858277424, 0.13328686601423587, 0.13534847535653038, 0.13745116817489955, 0.13953896520950584, 0.14165018555409137, 0.1437454894724569, 0.14591053722417655, 0.1481009371662758, 0.1503324772764443, 0.1525777885119997, 0.15478207159610372, 0.1570474335388559, 0.1592866387000353, 0.1615846075243207, 0.1638852594982309, 0.1662712760539555, 0.16859699285032306, 0.17093471857103434, 0.17337296670752037, 0.1757701926696814, 0.17816622343240748, 0.18052534398334139, 0.18299443074810282, 0.18544497269424545, 0.1879524004533471, 0.19040790974301572, 0.19297201257206917, 0.19542165227278763, 0.19793354992435358, 0.2005347463465762, 0.2030295528936574, 0.20565580037794018, 0.2082037700847341, 0.21081647234575168, 0.21335137480158595, 0.21602144844404259, 0.21856082849869882, 0.2212683395794155, 0.22389540714017078, 0.22651894458330835, 0.22916268200164092, 0.2318371033571132, 0.23451503893048906, 0.23713094611722615, 0.23986932730759264, 0.24247977680525915, 0.2451854671144624, 0.24787789610008534, 0.25063416043875264, 0.2532796749410168, 0.2560502950142234, 0.25872212894124835, 0.26142951398492004, 0.2641461460694487, 0.2668027092767434, 0.26951116687973714, 0.2722881994958642, 0.2749940661434985, 0.2776313000930791, 0.2803832520339237, 0.2830951245767589, 0.2857830302677818, 0.288478933740144, 0.2911414441076058, 0.29387157987037643, 0.2964862079145928, 0.29918580405907513, 0.3018446820621497, 0.3045483901431253, 0.30721071502391256, 0.30978716099944936, 0.3124285420841802, 0.31510495685872747, 0.3177142073516839, 0.32030507837518934, 0.32287967034646053, 0.3254327747581371, 0.32802491173090353, 0.33057694698332224, 0.33310929175009485, 0.33563098587839374, 0.33814603158749407, 0.3406790077222173, 0.34315202809719436, 0.34557162496569604, 0.3480072989374202, 0.3504335256168202, 0.35287769227631105, 0.35522232837877804, 0.3575715477007736, 0.3599819860874967, 0.3622841245578868, 0.36459716435818085, 0.3668653239478779, 0.3691226048561531, 0.371301712026235, 0.3735554718363248, 0.37574857930576305, 0.3779273499399752, 0.3800211340006714, 0.38210307786688585, 0.3841950843942705, 0.3862463588299247, 0.3882786908420457, 0.3902728176642841, 0.39223446969334747, 0.39419050242935616, 0.3960537661891442, 0.39798616180621305, 0.3997767196471132, 0.4016242910744795, 0.4033538453126632, 0.40511106864509944, 0.4068146370184768, 0.40853732024933753, 0.41017804827511783, 0.4117322354436335, 0.4132931820357842, 0.4148813844666457, 0.41631802390622, 0.41781852222387206, 0.4192161003047883, 0.42062507109537306, 0.4219777578356846, 0.42328648031850574, 0.4245205412183682, 0.4257975468572113, 0.4269384206725228, 0.428113371839536, 0.42923151627485195, 0.4302857961787831, 0.4313175311904761, 0.43229227552791694, 0.43324121875887633, 0.43413336784262, 0.43504187443286874, 0.43585480043944747, 0.4366213427689996, 0.4372865318354497, 0.43803983160247467, 0.4386589483452833, 0.4392211644406909, 0.43984591236030934, 0.44029109628878954, 0.4407539244641552, 0.4411656801873202, 0.44161196123101737, 0.44194282286807035, 0.4422093654495238, 0.44240515044482, 0.4426137823388745, 0.44276788197798334, 0.44289175693876476, 0.44290554526159964, 0.4429058265567323, 0.4429084640675052, 0.44282156851803045, 0.44269587231667906, 0.4425243526943058, 0.44226273310700215, 0.44202783446407234, 0.4416690445447603, 0.4413024515855234, 0.4409286974668795, 0.4405112857650181, 0.43999354415712894, 0.43941453701897065, 0.4388598244974473, 0.43821735329839867, 0.4374627494627577, 0.4367977460077482, 0.43598109304150195, 0.4351829416729109, 0.43434936810351255, 0.4334278707171115, 0.43246319863741706, 0.43147609950409793, 0.43043069230285114, 0.42934691986193096, 0.42818590129123574, 0.4270219541147016, 0.42576201981552086, 0.4245298142457837, 0.4232051037873309, 0.42190467004276005, 0.4204718627705557, 0.4190702441008834, 0.41762808966229326, 0.4160957363748385, 0.41454592181111927, 0.4128735291654533, 0.4112595142820469, 0.4096179962113903, 0.4079280216445105, 0.40610718246024313, 0.4043546994713275, 0.40254454417611024, 0.400621069172485, 0.39878247548865714, 0.3968076360113109, 0.3948586298629957, 0.39279731699965664, 0.3907676981919697, 0.388724596728911, 0.38660163300514344, 0.3843802608306968, 0.3822713796354811, 0.38005382253943676, 0.3778052665082533, 0.37552192836014303, 0.37317954756083466, 0.37081684475490995, 0.3684593228322195, 0.3661037569066682, 0.3636833144857418, 0.3611890904282125, 0.35872082275452755, 0.3562738680371169, 0.3537051536485696, 0.35115053454804623, 0.3485133278531173, 0.3459716474576719, 0.3432922808418363, 0.34061589119007035, 0.33794354160554957, 0.3353124491261032, 0.3325725178323399, 0.3298396281721767, 0.3270528330509695, 0.32423796369294805, 0.32143970002638317, 0.3186414044666103, 0.31584307823587954, 0.31301735416000365, 0.3101058077841615, 0.30721028716742205, 0.30433366643606763, 0.30141349313416166, 0.2984950138087511, 0.29560594205844504, 0.2926336576030984, 0.28967246324030366, 0.2867553391522684, 0.2837930492331346, 0.280745292281113, 0.2778104280655336, 0.27476974798613185, 0.27180413316389584, 0.26873842556912414, 0.265763675544574, 0.2627443097947257, 0.25972642276650826, 0.2566685281282545, 0.25370994184457457, 0.2506240230704921, 0.2475955730174694, 0.2445599029119754, 0.24155747485278528, 0.23855624893362715, 0.2354786277621505, 0.23250438448074182, 0.22949229429810072, 0.22640390211453024, 0.22342699677083194, 0.2204139440072513, 0.21745228571479916, 0.21439802384655185, 0.21140037334525677, 0.20844189571154642, 0.20551151835593595, 0.20253127522404618, 0.19956073203501087, 0.196632424790262, 0.1936990990089067, 0.19077415965517047, 0.1878051871266115, 0.18491978642751855, 0.18207714053463706, 0.17914459911573996, 0.17634562034307213, 0.17348618715937827, 0.17068713755164344, 0.1678269167614021, 0.16505805693410558, 0.16227201126631563, 0.1594656375291136, 0.15677610314383728, 0.15398319600248317, 0.15133478988302457, 0.14863410995830423, 0.14597397984069094, 0.1432829345648321, 0.14063682731894006, 0.13803212253368616, 0.13546895690373506, 0.13292667115721388, 0.13031011531868017, 0.12785987532120735, 0.12533159532243107, 0.12286724034019438, 0.12036388504405987, 0.11796361864988358, 0.11556963008372251, 0.11318075123013482, 0.1108434610981618, 0.10851902241282833, 0.10615543250115438, 0.10395537336953563, 0.10163171069700203, 0.0994755097097503, 0.09726121489511219, 0.09503840761297254, 0.09294699487771589, 0.09080152162195655, 0.08871584659847885, 0.08673482179151243, 0.08467127755758283, 0.08266136486444527, 0.08073470064881988, 0.07879248166707278, 0.07687656623908692, 0.07501229411925492, 0.0730985340084621, 0.0713574599225798, 0.0695165620074596, 0.06775613693759183, 0.06604513065464641, 0.06435570856123267, 0.06276694318067315, 0.06106369628399845, 0.05946363619333182, 0.05798210676328035, 0.05642189377289025, 0.054901152383064596, 0.0534488232080807, 0.05204826326844513, 0.05058541224693492, 0.04926820331599752, 0.04789462129747793, 0.04667176384254942, 0.045355819948345755, 0.04410568923990556, 0.04297563163372884, 0.041734930005791857, 0.04060982319354563, 0.03956977073791726, 0.03846492737948131, 0.03746965635293097, 0.03648648552956221, 0.035518316980263163, 0.03458257277711415, 0.03367090962263091, 0.032798693050918586, 0.032035882872149944, 0.031247409224420125, 0.03043109919259031, 0.029766024916424466, 0.02910593814915838, 0.028379686119126103, 0.027770923902763592, 0.02720321895569263, 0.026697987661241478, 0.026199858374598366, 0.02567009931737272, 0.025282877604808306, 0.024832950986004222, 0.02444281573911283, 0.024137196211147578, 0.02381120485313152, 0.023547427972926215, 0.023306725440847484, 0.02312553416830831, 0.022953625668959043, 0.022883166793290527, 0.022706225973487523, 0.02266219189983901, 0.02268224889065251, 0.022637152132816824, 0.022693201993770503, 0.022805779773312763, 0.02288245608533202, 0.023108152434071383, 0.02325574831824094, 0.023460768514566327, 0.023708346728129916, 0.024052168493618444, 0.024315429328933956, 0.02469724553205185, 0.0250808152052016, 0.025550195779571502, 0.025983705956538868, 0.026482923858806663, 0.02703127438100924, 0.027605131823401, 0.0282168495897261, 0.028863109601241065, 0.029601776849299037, 0.03027211914597105, 0.031055993980421612, 0.031818439692380886, 0.032643112524913, 0.033516292702210466, 0.03442209332103203, 0.03533512701799881, 0.036249930849974674, 0.03729023956467436, 0.038363346586333384, 0.0394108231788363, 0.04051377898422131, 0.04163269936291849, 0.04286094561237352, 0.04405293966769698, 0.04529805234401033, 0.046641702715485116, 0.04792965768740654, 0.04929081682312443, 0.05075274847719074, 0.052189573559579906, 0.053609205892989786, 0.05512444867748446, 0.05668036874387991, 0.05825447505434363, 0.059879552939626664, 0.061531932389558945, 0.06322388368296783, 0.06502220469762349, 0.06677825135840225, 0.06853123949590023, 0.07036536305865174, 0.07226296888345335, 0.07417648203435609, 0.0761824154212411, 0.07820038136627709, 0.08015634798716763, 0.08230899150066778, 0.08439470649899543, 0.08650311863422067, 0.0886930804331685, 0.09099718641846304, 0.09318311863412056, 0.09556124076820817, 0.09784870249359089, 0.10025916414943832, 0.10271151449597664, 0.1051397738005201, 0.10763062816758481, 0.11022616716058908, 0.1128072302514108, 0.1154259722028597, 0.11808702369426646, 0.12071986089552508, 0.12352522942344409, 0.12625552375727397, 0.12915083717531176, 0.13197483309876923, 0.13491901237409365, 0.1378062133384644, 0.14082022653501694, 0.14382315879813404, 0.14690423074012063, 0.1500254350532653, 0.1532072148620277, 0.15638407884574687, 0.1596113438994919, 0.16283659065182612, 0.16613254633464258, 0.16948412101940397, 0.17289829328851555, 0.17631867683493654, 0.17982478841626529, 0.18333417320612777, 0.186864803484607, 0.19047966084149895, 0.1941320886581035, 0.19780636096999968, 0.20147970432802617, 0.2052443659001372, 0.20911797149635436, 0.21288961892459715, 0.21683527053065868, 0.22071999621442223, 0.22470009613950379, 0.22867721021577403, 0.23270242448692863, 0.2368270602648992, 0.2408919943515125, 0.24513206296676862, 0.24926777044751702, 0.25356911026155976, 0.2578589309962993, 0.26210482405794305, 0.26645738132510804, 0.2709055128193169, 0.2753211878631614, 0.27977492519290537, 0.28433533804627836, 0.2888719504635409, 0.29342231563630433, 0.2981046360740024, 0.3027329788555091, 0.3074282539925783, 0.31211681520908885, 0.31690219678591786, 0.32173980714270123, 0.3265154717630561, 0.33137932514757157, 0.33630268441840905, 0.3412881152052565, 0.3462230039136505, 0.35123951136893455, 0.35623260697730114, 0.3612653096690026, 0.3663916282893832, 0.3715603454648803, 0.3766984382235433, 0.3818195626268463, 0.38710382413395594, 0.39227910735758187, 0.397603141250095, 0.4028420505402358, 0.4081813638070578, 0.4135315498875155, 0.41893586952090633, 0.4243037052759082, 0.4296764678582954, 0.43510775819560565, 0.4405881677489435, 0.4460511843597829, 0.45160298568057594, 0.4570797090226088, 0.4626691538246829, 0.46815897447958116, 0.4737332896655091, 0.47937428085872597, 0.4849161800336137, 0.4905420927042498, 0.4961806298834499, 0.5018672468845672, 0.5074521690622692, 0.5131792987240237, 0.5187818189090193, 0.5244912590335098, 0.5301517088172296, 0.53585972996375, 0.5415893888655609, 0.5472467956049881, 0.552952234243519, 0.5586678490415714, 0.5644124219499206, 0.570062109971433, 0.5757924986079667, 0.5815124859509475, 0.5872137738246869, 0.5928743845302529, 0.5986034934933371, 0.6043099779515209, 0.6099529133067532, 0.6155848037743492, 0.6212486017902429, 0.6269381765912653, 0.6325451075342728, 0.638163383573556, 0.643720502030163, 0.6493069087973197, 0.654933580339015, 0.6604807305859343, 0.6659323982601429, 0.6715064701211467, 0.6769230605700556, 0.6823763276458653, 0.6878121873987705, 0.6932754105046823, 0.6986462550139146, 0.703960291974359, 0.7092281628069468, 0.7145124729618528, 0.7197727204539248, 0.725013541256234, 0.7301786660286668, 0.73532517163575, 0.7404203041343301, 0.745488823816808, 0.7504604970926753, 0.7554057804779323, 0.7603934686563518, 0.7652204132195772, 0.7700635353557745, 0.7748454231699181, 0.7796296262203005, 0.7842759890719402, 0.7889203469989807, 0.793507492042034, 0.7979752581219869, 0.8024341863020211, 0.8068526799414366, 0.8112154413754931, 0.8154856695666235, 0.8196973450558661, 0.8239196422768128, 0.8279500016326101, 0.8320170493919129, 0.8359379808583576, 0.8398388649293285, 0.843667638378521, 0.8474518501224302, 0.851094138388495, 0.854690492047575, 0.8582439308862677, 0.8616834183801371, 0.8650614533198229, 0.8683665227569349, 0.8716376036071853, 0.8747347574182908, 0.8777955791626757, 0.8807865359452762, 0.8836689604047997, 0.8865349177985813, 0.8892464700914724, 0.891842337326888, 0.8944581482406535, 0.8968574008649469, 0.8993050624879312, 0.9015252039220625, 0.9037206473371495, 0.9058814060953181, 0.9078412957592877, 0.9097509101899773, 0.9116524137130082, 0.9133475247767534, 0.914943741128992, 0.9164959934493321, 0.9179456179121441, 0.9193164772406557, 0.9204899925588689, 0.9217175170334905, 0.9227387283514408, 0.9236411290227264, 0.9245506855729839, 0.925249953745416, 0.9258850287701612, 0.9264329826507613, 0.9268576163030606, 0.927195702153006, 0.9274155413515476, 0.92756267650651, 0.9275838862791005, 0.9274765083804656, 0.9273130863514188, 0.9269633217626644, 0.9265751440646538, 0.9261395808285523, 0.9254621419075415, 0.924805773235429, 0.9239838757375369, 0.9230356931970061, 0.9219880183949586, 0.9208435923782746, 0.9196367580252354, 0.9182867734236257, 0.9168365062978029, 0.9152422731717594, 0.9136107859305823, 0.9118728673509986, 0.9100024888767286, 0.9080406911219981, 0.9059143200464724, 0.9037334631358085, 0.9015198756589266, 0.8990584101756857, 0.8966442362301257, 0.8939985189483131, 0.8913221417493409, 0.8886093214675064, 0.8856901337208178, 0.8826962052989911, 0.8796426335587819, 0.8764462144291346, 0.873199723375135, 0.8697971243159511, 0.8663367372550891, 0.8628542361087409, 0.8592069362317345, 0.8554575190386361, 0.8516145037880787, 0.8476507601257953, 0.8436559387718182, 0.8395636710606238, 0.835453277927695, 0.8311111844690549, 0.8268093739922725, 0.8223790895778034, 0.8178745777730438, 0.8132908111532798, 0.8086310771962868, 0.8038756934768729, 0.7989885872002076, 0.7941172123053415, 0.789161970417748, 0.7840970209250557, 0.7789922051968834, 0.7738377027472446, 0.7685656719173232, 0.7632781955075454, 0.7578851293957201, 0.7523878995174661, 0.7468578827265702, 0.7412976766012817, 0.7356848565298876, 0.730013205190964, 0.7242760620106614, 0.7184672831010772, 0.7126288350603263, 0.7067590967865135, 0.7008409153567137, 0.694788927918018, 0.6888098492244602, 0.6826692903354865, 0.6766089235837364, 0.6704472306031113, 0.6642057015993019, 0.6579875766750959, 0.6517776606393035, 0.6454816050008849, 0.6391522526067419, 0.6328046516415228, 0.6263649388749323, 0.6200062376106473, 0.6135699949856014, 0.6071061293024047, 0.6006450906125541, 0.5941755449935612, 0.587713827006101, 0.5812226037667086, 0.5747233236876866, 0.5681666363182389, 0.5616118789811924, 0.5551032097326908, 0.5485685475835389, 0.5420521458814397, 0.5355380934430088, 0.5289606798412464, 0.5224045323522314, 0.5159676050816318, 0.5093939295198653, 0.5028960987176758, 0.49646731327498117, 0.48993063831368194, 0.48352538716602006, 0.47708700905087725, 0.47067072535129506, 0.4642295173514146, 0.4578756080284879, 0.4515654448392161, 0.445295307640762, 0.4389987546731076, 0.4327584758934489, 0.42654158715057344, 0.42030541765750923, 0.4141907590680163, 0.40806342877466567, 0.4020261974719139, 0.3960482694093315, 0.39000997936812326, 0.3841505650208488, 0.3781979816617895, 0.372404200937996, 0.366584430546315, 0.36086898708670734, 0.35518413239663876, 0.34961940654949575, 0.3440350743994492, 0.33849970545132985, 0.33310958137194085, 0.3276753287729906, 0.32234588770410055, 0.3171526973192661, 0.31196751142772133, 0.30677315836327707, 0.3017178393098985, 0.29679359344838224, 0.2918207863714643, 0.2870431083971324, 0.2822530871094137, 0.27753656411008776, 0.27293790881768787, 0.26834694043484447, 0.26393921474988624, 0.25948675181667336, 0.25518648193757903, 0.2510203915622636, 0.24681456750458997, 0.24279819586077722, 0.23876964581738985, 0.23486300729163206, 0.23105565796754482, 0.22735982165422786, 0.22368419510619272, 0.22019452612289636, 0.21671146291821922, 0.21330852076761433, 0.20996300499443232, 0.20676092890299766, 0.20366321488204514, 0.20064849529734025, 0.1976891874670321, 0.1948583101932337, 0.19209828385525946, 0.18944368071028697, 0.1868489694216399, 0.18435357421994256, 0.1819703122950893, 0.1796373542999305, 0.17748274432771985, 0.17532559878960016, 0.17327415814329936, 0.17136603769446915, 0.16954919907979282, 0.16774473425015557, 0.16607232773731248, 0.16449718752962403, 0.16308330388131742, 0.16161005214719704, 0.16030350088100387, 0.15908887698328175, 0.15801271009060422, 0.15692541784516315, 0.15600801850104223, 0.15509126274972573, 0.15431476846358427, 0.15361820158504552, 0.1530430811266125, 0.15247950151211728, 0.15211973242186225, 0.1516852574200415, 0.15146011017243804, 0.1512469294302093, 0.15109875399457565, 0.15107543129499038, 0.15112749267030345, 0.1512864528826082, 0.15144937760268828, 0.15171889903274596, 0.1521223293920763, 0.15257155435529485, 0.15300920858677947, 0.15358102862993753, 0.1542301388913612, 0.15496166854287519, 0.15570097230258426, 0.15652729532300716, 0.15745752210924238, 0.1584287910623503, 0.15948473186134698, 0.16060425463498915, 0.16170360625344568, 0.16292271899713753, 0.16422563238573124, 0.16560270867589338, 0.166969624325045, 0.16833506133898113, 0.16988769162372183, 0.17137080448719755, 0.17296360937460842, 0.174580875983965, 0.17632180367638914, 0.1779736811279417, 0.17973356857202105, 0.18153849587491905, 0.18344060499301287, 0.1852357624951218, 0.18720526108805477, 0.18911434140144126, 0.1910744411466195, 0.19313241696895386, 0.19511828910380832, 0.19719697249985588, 0.1992804471072446, 0.2014392844827689, 0.2035517366262498, 0.20563457275670116, 0.2078383710553154, 0.21004439907852995, 0.21219152292448604, 0.21446825876452985, 0.21669104883244247, 0.2188460165019808, 0.22112141366109034, 0.22340398872592193, 0.22558312647493733, 0.22784257175161624, 0.2301481866538071, 0.23239889009786854, 0.23459633859272838, 0.23689116122067116, 0.23907533303351566, 0.24133753932420868, 0.24354975461458903, 0.2457838210314705, 0.24795440869898863, 0.250183171551033, 0.2523023615204988, 0.2544621664787184, 0.25655655180530307, 0.2586976747874842, 0.2607522313965814, 0.2628498584865127, 0.26485812616215126, 0.2668348042580676, 0.26882061283871406, 0.2707858087001512, 0.2727158505008838, 0.2746109578799292, 0.27641172221965304, 0.2782863964391873, 0.2800012859359919, 0.28173504450144227, 0.28349851851342195, 0.2851499720733044, 0.2866949306581032, 0.2882820316615096, 0.2898384430470055, 0.2913113106724335, 0.29276427584213394, 0.29413500894416367, 0.295443816773051, 0.29667701586553424, 0.2979245736358111, 0.29912696287959256, 0.3002669373602307, 0.30133519593452524, 0.3023251418808476, 0.3032777583886141, 0.3042308529572294, 0.30501275837403313, 0.3058251402429345, 0.30655530871995834, 0.307175891181157, 0.3077810465133361, 0.30833578598462236, 0.308860366549928, 0.309269721902981, 0.3095881510263996, 0.30987578332119364, 0.31007167741371944, 0.310200535186007, 0.31030021081067216, 0.31038132858630924, 0.31034286341416045, 0.31023661671936686, 0.3099847283603129, 0.30979282557337845, 0.30948797812134615, 0.3090667148161073, 0.3086439173678983, 0.3081265224391292, 0.3075677680204098, 0.30696523994885444, 0.3062525008349752, 0.3054584795573755, 0.3045793626585339, 0.30368208317319734, 0.3026952657161571, 0.30166344532544576, 0.30050229789650273, 0.2993185281961486, 0.2981093046911132, 0.29680050701076416, 0.29536152628482437, 0.2939554285554501, 0.29244181757435544, 0.2908446482664983, 0.2892200613491816, 0.2875677870096465, 0.2857762152518136, 0.284004001387535, 0.28210068425673385, 0.28016494383510493, 0.27809383591933823, 0.2760434313767998, 0.27392684372236564, 0.27180441037876274, 0.2695672760537658, 0.26725646038842893, 0.26494187397867414, 0.262521855532635, 0.26006510293855917, 0.2576051834879795, 0.254990163740694, 0.2524417159745233, 0.2497660349877457, 0.24711644088717047, 0.24432098776571928, 0.24161299870634734, 0.23875567191865635, 0.23592311780083774, 0.23301402092134874, 0.23002598964000825, 0.22702245280541491, 0.22401653596102908, 0.22097615082484284, 0.2178723702135963, 0.21476490688503352, 0.2116378076545842, 0.208452033465213, 0.20523846522806505, 0.20201903114787045, 0.1987374204060448, 0.19545888219811614, 0.19215153471882968, 0.18876224592101412, 0.18547083396801442, 0.1821223439367522, 0.17868686114856844, 0.17529804044836278, 0.17194818650231758, 0.16853811960829465, 0.16509101000025986, 0.16162382732108604, 0.15821292079228996, 0.1547570946916122, 0.15132598065202763, 0.14791913234265966, 0.14439396376707567, 0.14101560584405468, 0.13754966695112547, 0.13408093075087404, 0.13068152819550563, 0.1272929290008177, 0.12382092808768451, 0.12046760153034507, 0.11705007556073094, 0.11374170338584953, 0.11041749810692257, 0.10705430987216404, 0.10375773310551506, 0.10050328948716061, 0.09721498269095619, 0.09397269468631719, 0.09074991514155653, 0.08764253343576163, 0.0844459819441719, 0.08135068239248104, 0.07825694091626825, 0.07527179809946434, 0.07221398983821646, 0.06928355285664933, 0.06634871609212806, 0.06352590610732428, 0.06067286323694106, 0.05791733833772175, 0.05511806945217865, 0.05248631424565284, 0.049798660398526824, 0.04727152631981687, 0.04468375054970376, 0.042229355496967894, 0.03978794870505026, 0.037456646617291554, 0.03515313653283339, 0.03293611765563056, 0.030779072650968714, 0.02858616092777451, 0.02654992463466045, 0.024611449796141577, 0.022693866646146626, 0.020801157000409316, 0.01903131929090531, 0.01739864829926501, 0.015691950706246356, 0.014211590917162198, 0.012652088123173243, 0.011284280356898968, 0.009953695405054188, 0.008708630629642049, 0.007540773631430314, 0.006425238230258848, 0.005447167727139733, 0.004492029559572809, 0.0036654860437308912, 0.002956853372628106, 0.0022619153996178165, 0.0016688367717894207, 0.00113559779762706, 0.0007118602277537531, 0.0003918888614067468, 0.00021345093215809432, 6.491793720062432e-05, 2.3268292590145215e-05, 0.0, 0.00016334744792272508, 0.0003584684478818003, 0.0006787260063427862, 0.0011548402681282322, 0.0016239653596840657, 0.0022363676169342875, 0.002895103234541611, 0.003676921814406814, 0.004626568531413879, 0.005572180517408153, 0.006670854620560047, 0.007852028250946557, 0.009111344377957428, 0.010478115366229297, 0.011954958658027707, 0.013531850543982779, 0.01512905676307559, 0.016923135315893786, 0.0188329079741309, 0.020708855851163704, 0.022761610736106674, 0.024987607730029494, 0.027176976874439245, 0.029525807879002944, 0.032044885288267405, 0.034578304553120526, 0.037168690466926696, 0.03990548834571233, 0.042722798260133144, 0.04571357986809941, 0.04867742136442326, 0.05185041064947673, 0.055066713281412584, 0.058368705761515635, 0.061781889627117746, 0.06526200971404729, 0.06880631329477514, 0.07249884701169303, 0.07631378111520483, 0.08018422988815802, 0.08411058990048167, 0.08816389835869974, 0.09230925731395842, 0.09659603252949385, 0.10089092057851555, 0.10531844478572325, 0.10978084506266528, 0.11436173889805899, 0.11905039930066437, 0.12376881579780452, 0.12857746900535222, 0.13348673397434033, 0.13847801070183485, 0.1435463317130076, 0.14872625647078605, 0.1539426616268055, 0.15925112996883117, 0.16467393185349793, 0.17007003153825548, 0.17563816992292225, 0.18127718156396946, 0.18689856381088477, 0.19262606073484764, 0.1984813277621178, 0.20433959401852916, 0.210290281626185, 0.216309310857286, 0.22237159647082091, 0.2285842645850047, 0.23473019562359052, 0.24097657119381716, 0.24735640501219353, 0.25367516104167487, 0.26009220184505083, 0.26658841120606624, 0.2731290784412728, 0.27976927592376033, 0.28639339334667013, 0.2930870928272735, 0.299790535360243, 0.3065468148011357, 0.31343448692024484, 0.32024416800539396, 0.3271839351625065, 0.3341457109910012, 0.3410976012422835, 0.34816889674741724, 0.3551631473366995, 0.36232169512236334, 0.36943553368092447, 0.37655073582909815, 0.3837478435419985, 0.39091869326509515, 0.39817883217857125, 0.40539164114790865, 0.4127100980299462, 0.4199456101216488, 0.42727436017230447, 0.43461084706675013, 0.4419423449510693, 0.4493479628358354, 0.4566521820801537, 0.46403885506131837, 0.47143240932585795, 0.4788712881089378, 0.4861950393557343, 0.49365451007979466, 0.5010558581250626, 0.5083959798451063, 0.5157905248352888, 0.5232315690723048, 0.5306166880050421, 0.5379398632075054, 0.5453102790787446, 0.5526617694722424, 0.5600793446161239, 0.5674116562498959, 0.5747119158910888, 0.5820286897879279, 0.589254609055224, 0.596552011175904, 0.6038141436286544, 0.6109767667560887, 0.6181759149709044, 0.625404815934922, 0.6325353232544607, 0.6395699123165788, 0.6466635345090825, 0.6536953244649164, 0.6607158707982062, 0.6677033530351403, 0.6746646873776317, 0.6814985388928834, 0.6883508914326583, 0.6951698068848242, 0.7019436429744711, 0.7086348494092333, 0.7153335406490887, 0.7219259453802167, 0.7285060589546516, 0.7350858215312609, 0.7415087930533796, 0.7479061774572011, 0.7543284861572, 0.7606056610997508, 0.7667938211083418, 0.7730508181962238, 0.7791654055146738, 0.7851738572917272, 0.7912212346117414, 0.7971777215170006, 0.803035047116443, 0.808797040267068, 0.8145544709201215, 0.8202579937242372, 0.8257850828230013, 0.8313246596345558, 0.8367638269448182, 0.8421983681297006, 0.8474635512359485, 0.8526756500865809, 0.8578197960719127, 0.8629298548664048, 0.8678651701339102, 0.8727746895171089, 0.877609537697072, 0.8823924885950293, 0.8870116132580205, 0.8916338688355484, 0.8961306583497123, 0.9004672889084918, 0.9047938483028151, 0.9090822872113595, 0.913210502840584, 0.9171986711765533, 0.9211751806211266, 0.9250554602562939, 0.928887239202935, 0.9325007457583837, 0.9361647932163523, 0.9396051013287837, 0.9430255898825025, 0.9463617545717914, 0.9495352586874508, 0.9526654236396266, 0.9557440118811211, 0.9586648544152192, 0.9614325043633187, 0.964207199718331, 0.9668192308995938, 0.9694099476555801, 0.9718171244485927, 0.9741055156839848, 0.976414967802207, 0.9785004943129465, 0.9805206520682267, 0.9824544527220811, 0.9843531084003323, 0.9860175657216903, 0.987716611971513, 0.9892292300900442, 0.9906549956176725, 0.9919691819957589, 0.9931710750583879, 0.9943094522009991, 0.9953418066742695, 0.9962432745648988, 0.9971235583043294, 0.9977838912941002, 0.9984344072218718, 0.9989061051546939, 0.9993230975457426, 0.9996780677233873, 0.9998192714821466, 1.0, 0.999950443516926, 0.9998358404973238, 0.9997099176443505, 0.9993482733742403, 0.9989444246097207, 0.9984600977884349, 0.9978927197657527, 0.9971664615999557, 0.9964440192989179, 0.995488383104871, 0.994556967911736, 0.9934110404690946, 0.9922224557101953, 0.9909689114228784, 0.9896298659998635, 0.9880950841232353, 0.9865330345037702, 0.9849460267898971, 0.9831320513336268, 0.9813269427264638, 0.9793932424372659, 0.9773329658059161, 0.9752301317634358, 0.972995924341328, 0.9707046765714362, 0.9683646146119141, 0.9658443403955618, 0.9633093535663249, 0.9606175191262311, 0.9579523786092924, 0.9550869091939325, 0.95219217002697, 0.9492273246897668, 0.946149154280786, 0.9430064355505734, 0.9398359469132677, 0.93648987041183, 0.9330856505848417, 0.9296845722328718, 0.9261379682798713, 0.9224758947238466, 0.918800863353989, 0.9150825743098171, 0.9112584667766657, 0.9073155190115293, 0.9033637831860574, 0.8993301277829536, 0.8952370775617686, 0.8910782201390048, 0.8868526593821299, 0.882570648808297, 0.8781938586352804, 0.873781719311852, 0.8692842030319433, 0.8647541251592046, 0.860215767459052, 0.85550656540292, 0.8508246289332397, 0.846040475107391, 0.8412866172669919, 0.8363949958166536, 0.8314664462254937, 0.8265595726725877, 0.8215105474768765, 0.8164972768341126, 0.8114274420736232, 0.8062313896805015, 0.8011260416065425, 0.7958920015207208, 0.790599684104693, 0.7853213564398654, 0.780046754678859, 0.7746789060950947, 0.7692562004286935, 0.7638546427659059, 0.7583951696313173, 0.7529344896328981, 0.7474222593178043, 0.7418847637880062, 0.736357451723666, 0.7307531818829348, 0.7251354112564774, 0.7195774974331814, 0.7138809367279412, 0.708264588045236, 0.7025833214114113, 0.6969043974355345, 0.6912465306158041, 0.6855463855953257, 0.679802992343269, 0.674058991231413, 0.6683672174630576, 0.6626222395114025, 0.6568994536209732, 0.6512103203641266, 0.6454057134207726, 0.6397003786742113, 0.6339901323964092, 0.6282231321579053, 0.6225282014885705, 0.6168368144988592, 0.6111145612608739, 0.6054270004551621, 0.5997280355497268, 0.5940486784721969, 0.5883516614595857, 0.5827116254081149, 0.5771536074478897, 0.5714904609986977, 0.5659217301624538, 0.5603237737106108, 0.5548387973199267, 0.5493167932755301, 0.5437984956485655, 0.5383355475733087, 0.5328330765248444, 0.5274218975640463, 0.522048098904309, 0.5167480104471848, 0.5113834235131884, 0.5061230955074109, 0.5008636579013763, 0.4956003928091124, 0.49044633218065536, 0.4852549767716861, 0.48020247820785317, 0.4751146104091813, 0.47012940677057946, 0.4650982880175887, 0.4601844423132323, 0.4552738472029027, 0.4504401811169882, 0.4456893590282607, 0.4409359909527778, 0.4361599463078733, 0.43156163635152645, 0.4269027065151394, 0.4223849789195078, 0.4178781311989924, 0.41342780795256556, 0.40904849171419855, 0.40472661303239194, 0.40044868081080676, 0.39618816569030163, 0.39202481434314373, 0.3879145414500382, 0.3839067718823486, 0.37990353981516145, 0.37596697859515155, 0.3720786023156415, 0.368323936917945, 0.36452148171972826, 0.36082828270263734, 0.3572711591983397, 0.35365124683572513, 0.35022515804035914, 0.346799335877541, 0.34342809864847157, 0.34012784075096925, 0.3368710035933279, 0.333669654466677, 0.3305939988147592, 0.3276207474425782, 0.3246021246770346, 0.3217203711495324, 0.3188885482415526, 0.3161910922339372, 0.3134340385683225, 0.31081378776296703, 0.3083163964861215, 0.3057664173389316, 0.3033765768424605, 0.30100876613571825, 0.2987323550952951, 0.29659240474295895, 0.29436436997569704, 0.29234825347943744, 0.2902850939740929, 0.2883753194469372, 0.28654410436278754, 0.28468292872573836, 0.282994636239481, 0.2812924202972351, 0.27969364613924247, 0.2782232795142598, 0.27669121477651343, 0.2753659769954577, 0.27402518078434157, 0.2727150597891967, 0.2715570184627161, 0.27043760554058277, 0.26937611282635693, 0.26838483952968145, 0.26745018519368374, 0.2665441884383335, 0.26577889730821663, 0.2650009434063934, 0.26428327016926556, 0.26368127081247844, 0.26317094525316054, 0.2626534293527287, 0.2621678998319968, 0.2618126518769993, 0.26151675881403463, 0.26118060122408704, 0.26097477874335506, 0.2608697438241927, 0.2607551679329853, 0.2606763204174107, 0.26069372726646606, 0.26074227406886064, 0.260851183724184, 0.2610222898886938, 0.26127301566886, 0.2614736895959697, 0.2617841094692384, 0.2621334619171613, 0.262568182218237, 0.26303598250707944, 0.26349923719154955, 0.2640284781191479, 0.2645596321155138, 0.265202988574934, 0.26580997054474903, 0.26657441823609873, 0.2672424121195968, 0.2680179216403617, 0.2688410469665451, 0.26967985065449473, 0.27052846333411806, 0.27143200480528, 0.27240480295277353, 0.273376615964779, 0.2743499413606501, 0.2753605905394566, 0.2764170008499156, 0.2774774344490169, 0.27856782409413455, 0.27966783663805744, 0.28082815401409467, 0.2819344677701116, 0.28314456077768296, 0.28436814482396866, 0.28550955792606, 0.286767245940875, 0.28804467534941325, 0.2892911177124725, 0.29052258305686596, 0.29177175162371294, 0.29308511010166916, 0.294374796491362, 0.2956650863691864, 0.2969201409159147, 0.29823733232435734, 0.2995966824733676, 0.30084348226894453, 0.30217310102906353, 0.3034780403368135, 0.3047465107533145, 0.3060344998778212, 0.3073966161735635, 0.3086747216356141, 0.3098777795020852, 0.31120399607230015, 0.3124442053873527, 0.31365517804934334, 0.31490582743532636, 0.3161329280306305, 0.3173916940877276, 0.31851084855438905, 0.31975734047943766, 0.32084808085076066, 0.32197986601356465, 0.3231680390589711, 0.32423286394133005, 0.3252604009972599, 0.32635376768307056, 0.3273356032684178, 0.3283447460988143, 0.3293454300478621, 0.3302866038712268, 0.33115798798107315, 0.33211023107292315, 0.3329531990532106, 0.3337530269578988, 0.33452974328539714, 0.33532898584358656, 0.33604609939707214, 0.33667338887527504, 0.3374082126717931, 0.3379866353732797, 0.33859106799320643, 0.3391116791475797, 0.33958084529856153, 0.34010670180118296, 0.34046008665921695, 0.34090849188558875, 0.34119253732858423, 0.3414826917506275, 0.3417851861891452, 0.3419720311092465, 0.34213170362129697, 0.342230173716099, 0.3423294763986938, 0.3423078097962781, 0.3423570409319567, 0.34221628676804916, 0.3421093146655865, 0.3419938816500971, 0.34175372765330525, 0.3414714338715746, 0.3412049013616368, 0.34080071951927327, 0.3404659358581069, 0.33996571030002243, 0.3394416054172905, 0.3389283588835317, 0.33824882243124205, 0.33762218681757417, 0.3369047369329875, 0.3361247987529206, 0.3353657336349356, 0.33449999070675707, 0.33354803599425886, 0.3326170368372969, 0.3315554556416039, 0.3304779345860225, 0.3294059796251959, 0.3282479372874684, 0.32703228540470936, 0.3256933345550948, 0.3244334086510892, 0.32307819895869183, 0.3215943956168313, 0.32018916784742696, 0.3186640583980883, 0.3171003017785424, 0.31548537966524415, 0.3137511381889046, 0.312105704786686, 0.31028087430221124, 0.30848577354012535, 0.30667792797643734, 0.3047354602556614, 0.30279658805573234, 0.3008041728131345, 0.29877261314630854, 0.29674374784477403, 0.2945539973426634, 0.29245328055428554, 0.29022096270673936, 0.2879238844149825, 0.2856370801412638, 0.2833362654891261, 0.28098054555378, 0.2785762302134782, 0.2761170762057349, 0.27357037492740816, 0.2710648292419723, 0.26852416573855564, 0.26593450038925087, 0.26328936782724305, 0.26062779566006256, 0.25800656896505286, 0.255240712911857, 0.2524790501520421, 0.2497292564815005, 0.24693387918095133, 0.2440774986922127, 0.2411834594700381, 0.23835020474339397, 0.23541536691023784, 0.23246444857412277, 0.22954242545758305, 0.22652378962466413, 0.22352850977754105, 0.2205331989207219, 0.21750949476694062, 0.21443056051101236, 0.21134182153549408, 0.20824318322522598, 0.20516781971929815, 0.20204653313590748, 0.19896635320152178, 0.19579759281307865, 0.19273055196481875, 0.189516930840149, 0.18635844853551667, 0.18325759057772237, 0.18005194628365526, 0.17692888800826548, 0.17375677144262183, 0.17053500107986128, 0.16737254565658927, 0.1641934135581271, 0.16109910831819566, 0.15787821259061363, 0.1548014295577845, 0.15159082776812421, 0.14851021610893175, 0.1453226932994126, 0.1421957549825868, 0.1391165857772696, 0.1360842294677818, 0.13299918828431984, 0.1299226783007541, 0.12688909612093838, 0.12384060763370444, 0.12081479789874662, 0.11789375339833831, 0.11494462967159946, 0.1119670691476236, 0.10909606919386457, 0.10614149816300612, 0.10330783416406711, 0.10052652763943447, 0.09770285038530462, 0.09494741407687933, 0.09220486885228782, 0.08950039569103917, 0.08677017582330925, 0.08414602345453474, 0.08160032394029942, 0.07901560697305864, 0.07647727620698119, 0.07403326725964637, 0.07151387827893564, 0.06919031389293434, 0.06675430940472583, 0.06451038158445871, 0.06223503344174325, 0.059997450090254326, 0.057804483533967776, 0.055712276828077216, 0.053620344013623165, 0.05153670165260735, 0.04961614361000455, 0.047682493616051494, 0.045778890780387174, 0.043981036829977595, 0.042207722012934254, 0.04044166506940577, 0.03883304778910401, 0.037205638881939, 0.035669918660958255, 0.03418525836734297, 0.03279733173916121, 0.03140422885482062, 0.03015384418639855, 0.028898699971168357, 0.027735281965493616, 0.02655884412105662, 0.025576739452459352, 0.024570953840797178, 0.023611724224255715, 0.02276264492305673, 0.021988975720159187, 0.021290205248690235, 0.020618319845334857, 0.02003446384142875, 0.01955453637803855, 0.01911751961426954, 0.01873879675445217, 0.018446544671881844, 0.018161690214697074, 0.01805466726885732, 0.01793329073212293, 0.017918819931748375, 0.01801795830300231, 0.018100926085316413, 0.018327351170553802, 0.018638817957140792, 0.01898867697993215, 0.01938479046254557, 0.019854956024736047, 0.020489504800782096, 0.02114685733359193, 0.021867680978243993, 0.02260647809887486, 0.023522317136284956, 0.024500873592899215, 0.025539098756325537, 0.026567415873791526, 0.027827656157198094, 0.029044429304470706, 0.030343822638730353, 0.03182259495350604, 0.0332982020780226, 0.034839102105730144, 0.03648006795947774, 0.03821433961049751, 0.03994681060256157, 0.041864015378116785, 0.04375728244461081, 0.045779139885559185, 0.04789939936421422, 0.05001251633512045, 0.05231236846964023, 0.054607966503709145, 0.05701279074943566, 0.059400963563799467, 0.06198788859002056, 0.06460812782652114, 0.06730003754833522, 0.07002610508386979, 0.07289393754685602, 0.07575822579317072, 0.07873048627075005, 0.08176954147234586, 0.08493363850589511, 0.08813174771301414, 0.09132305487302463, 0.09472450707850105, 0.09808606137857816, 0.10155346503891943, 0.10506444576204912, 0.10868944311882749, 0.11235384444442774, 0.1160769657515419, 0.11988780492059246, 0.12377164076655424, 0.12775836018311523, 0.13168165980809662, 0.1357543371549322, 0.13990516702561698, 0.14406646193027586, 0.14835314839015157, 0.15264145795590178, 0.1570212723741415, 0.16150816246401437, 0.16599548233263856, 0.17055096391771912, 0.17507665957848023, 0.17980050568903513, 0.18452234355713684, 0.1892771182862517, 0.19415981768455953, 0.1990626712318838, 0.20399146970893195, 0.20901184692103403, 0.21405207671284968, 0.2190904448265186, 0.2242693207235176, 0.2294700234144886, 0.23476615754260136, 0.24008832187014692, 0.24539389413865234, 0.250749332481253, 0.25619748807364295, 0.26173176975195567, 0.26720758724705895, 0.2727926234069867, 0.27842952382258146, 0.2840428800592236, 0.28974249214104514, 0.29546022442311815, 0.30122934257176015, 0.30703478594645023, 0.3129117880329739, 0.31880456419636394, 0.32465309701344985, 0.3306725376429956, 0.33662859187359917, 0.3425725561885758, 0.34864104426756715, 0.3547202270609341, 0.36080281161815614, 0.3669339263064995, 0.37314709397021323, 0.37927354578844485, 0.3854777243462988, 0.3917386342705808, 0.3979483905135084, 0.40427206193615933, 0.4105891781215346, 0.41685667881848637, 0.42322984260751967, 0.42957972184197074, 0.4358891790902532, 0.4423348974472828, 0.4486713305500657, 0.4551589723209764, 0.4615247365244805, 0.467972723631095, 0.4744809688523657, 0.4809132176532036, 0.4874093020210406, 0.4938833985958744, 0.5003705012677866, 0.5068639514860448, 0.5133213814608205, 0.5198617180742428, 0.5263817671271503, 0.5328428514511028, 0.5393417847533897, 0.5458435589006592, 0.5523619280084919, 0.5589004855082675, 0.5653525275453755, 0.5718994408553506, 0.5783530351386635, 0.5848310617921493, 0.5912931218219143, 0.5977822726586325, 0.6042768202979799, 0.6106912454468001, 0.6171591371772788, 0.6235255107248124, 0.629936384453445, 0.6364028876132265, 0.6427259484593324, 0.6490771401481789, 0.6554297330667916, 0.6618253492782415, 0.6680884443302612, 0.6744036232205141, 0.680621661972107, 0.6868644286370617, 0.6930948583081142, 0.6993541159335308, 0.7055236369770242, 0.7116309969312591, 0.7177704992347805, 0.723863209335435, 0.7298860236976542, 0.7359158164528842, 0.7419117112683691, 0.7479424173456874, 0.7538660616181548, 0.7597383790078249, 0.7655926794432882, 0.7714703609350888, 0.7772891494575542, 0.7829932151421571, 0.7886860967656542, 0.7943998870662579, 0.8000120524769486, 0.8056212674994264, 0.8112123288736218, 0.8167216639586705, 0.8221193106478161, 0.8275468968966578, 0.8329265912766188, 0.8382878193598311, 0.8435685607225193