0.029900398200019634, 0.02944882397175282, 0.029005906826041105, 0.028597401573718945, 0.0282262267865984, 0.02787117489207946, 0.027535205642761327, 0.027220630583982795, 0.026921503097392937, 0.026601114405439004, 0.026330501821541723, 0.02602515011881764, 0.0257738711832954, 0.025525859369065686, 0.025288761090364154, 0.025045586668342956, 0.02484795412022791, 0.024606012603813163, 0.024369860632135306, 0.02411558444099421, 0.023893708188700957, 0.023697315754594783, 0.02348180811389621, 0.023272557372999134, 0.023030188148713125, 0.02283925256344571, 0.022642663826440448, 0.022463576176383865, 0.0222901657114803, 0.022178643798131354, 0.022011762332193836, 0.02179504592683194, 0.02165789236489107, 0.021528686588093073, 0.021392320578295668, 0.021283194198048028, 0.02115680548604156, 0.02107006903686134, 0.020992438241860388, 0.020964390440614353, 0.020902452477664018, 0.02077759349044703, 0.020753046725273692, 0.02073854628677138, 0.020766715769536804, 0.020770986629189088, 0.020765826036780836, 0.020802216089612746, 0.02085243811758486, 0.020898558160230528, 0.020980402616084835, 0.021047510945587482, 0.021162242883336922, 0.0212907560771454, 0.021454888604292472, 0.02161033965490363, 0.02176154055653796, 0.021953776422742263, 0.022162378546643265, 0.02240366427009154, 0.022644358837747135, 0.022900955729603756, 0.023179306681329805, 0.023476512467872492, 0.023837717321531032, 0.02416766144150021, 0.02445363481725235, 0.0248359230443422, 0.025236333246564283, 0.025681752134996204, 0.026116451112291512, 0.026479630329279, 0.026968067903300363, 0.027472619510469816, 0.02801535463521594, 0.028552188333475382, 0.029164357799543423, 0.02973444139469414, 0.030328534969798045, 0.030875332646203436, 0.031526534549830905, 0.03224805005709034, 0.0329338112125753, 0.03364377398421055, 0.034364885289388025, 0.03512539355558134, 0.03585437881957909, 0.03667008379809565, 0.037507187277889494, 0.038437728658979244, 0.039310704950262676, 0.040182004025238506, 0.04111339394993325, 0.041975424902279145, 0.04297057488995477, 0.04398664409774993, 0.04501936193148325, 0.04608087267828431, 0.04721857692258186, 0.048320909506815585, 0.0494510406133524, 0.05064879012388784, 0.051830085659427705, 0.05296270903756188, 0.05421501357296212, 0.05549315693693275, 0.056850503634972634, 0.05817519068333532, 0.059487856380067074, 0.060878330228491415, 0.062296599029736006, 0.06376146944445346, 0.06523390362927342, 0.06672809336239294, 0.06826096215025854, 0.06982320269226612, 0.07143342538246546, 0.0730524147605943, 0.07469948481769823, 0.07638017912719418, 0.0780913055604924, 0.07985131168575811, 0.08162083516519106, 0.08339528348236648, 0.08523063355733615, 0.0870954702286745, 0.08894493580295088, 0.09087455334005413, 0.09286821841436421, 0.09484765680775911, 0.0968569068826339, 0.09891441343661704, 0.10098079803928955, 0.10307785530387625, 0.10520535240139807, 0.10736306276632242, 0.10952170758602325, 0.11174285563003886, 0.11395758823428068, 0.11623894362646353, 0.11854629926147126, 0.12093536158990177, 0.12328834590184451, 0.1256049304866502, 0.12802516168332076, 0.1304705727672554, 0.1329466109793214, 0.13544214483458283, 0.13799252487253577, 0.14053591529125983, 0.1431065870682578, 0.14570417725146995, 0.14832831604054664, 0.15093372061450763, 0.15361549710802205, 0.1563201503975722, 0.159081983062448, 0.16182788395800057, 0.16457719265118306, 0.16737438857203182, 0.1701940185162008, 0.17308597246104432, 0.17594320019477033, 0.17879036230847198, 0.18169970289288534, 0.18462986381890026, 0.18760152942053615, 0.19056930317739007, 0.19352864661341254, 0.1965406944157152, 0.19957044226639764, 0.20268088615198077, 0.20573679396572114, 0.20874929604871273, 0.21185222950178728, 0.21496969651165831, 0.218098677515498, 0.2212443833598306, 0.22440061617655827, 0.22757255702839532, 0.23075662043018838, 0.23398404037026216, 0.23718692286104917, 0.2403388437872293, 0.24357382344671033, 0.2468161135526227, 0.25010243685999983, 0.2533538406716271, 0.25659520267344477, 0.2598651345724156, 0.26314105707495294, 0.26650957158604277, 0.2697847229944798, 0.27298709477630634, 0.27628948221927235, 0.27959378399594687, 0.28294700348059815, 0.2862474635013617, 0.2894689102586478, 0.2927844740479247, 0.2960963464180052, 0.2994042377471529, 0.3027077977770787, 0.30601982874709577, 0.3093117898359249, 0.3125987989216286, 0.31589341545908717, 0.3191668820480767, 0.3223945008343473, 0.3256597083537106, 0.32891482441604264, 0.33221745392393054, 0.33544347027921284, 0.3386319500725814, 0.34184359026201233, 0.3450429662420969, 0.3482239906052082, 0.35139708731863806, 0.35459745843928675, 0.3577344547402213, 0.36085727198755496, 0.36390402360592305, 0.3670028067376628, 0.3700886371446078, 0.37314412002894576, 0.3761780501010725, 0.3792399469110254, 0.3822223988199882, 0.3851814127646321, 0.3881214858503373, 0.39103841300991726, 0.3938545651550033, 0.3967318421691167, 0.3996209520151087, 0.40243169564895004, 0.40521367438727257, 0.40801631166302776, 0.4107321182544544, 0.41334043590224423, 0.4160086109290316, 0.41864181738858963, 0.4212924583766153, 0.4238477307229665, 0.4263696175799523, 0.4288571758026908, 0.43130949226911425, 0.4336913420713778, 0.43607488840734226, 0.4384477455433197, 0.4407475918805789, 0.4430082430957573, 0.44523947646575235, 0.44741805648700694, 0.4495504486168606, 0.4516470754390909, 0.45370090767974686, 0.45572444192191636, 0.45768890326858436, 0.4596145247122635, 0.4614893170572963, 0.4633188053130254, 0.46501244286297183, 0.4667605090668574, 0.4685089576868224, 0.4701455307096728, 0.47173272546595607, 0.4732463114945448, 0.47473639100570836, 0.47616383897822484, 0.47755087702925986, 0.47888474791685676, 0.4802286589537537, 0.48144759157577127, 0.48253440348035825, 0.48366247595422557, 0.48473427826813315, 0.4858000142628968, 0.4867529404140686, 0.48758103848050816, 0.48843549282102594, 0.4892315155196517, 0.48998775360200936, 0.49066500125934526, 0.4913116173957008, 0.4918713293899072, 0.49237526601629605, 0.4927966868332333, 0.4931914624886037, 0.4935809112541329, 0.4938526548501924, 0.4940691304316024, 0.4942615750481277, 0.49436217922244524, 0.49432090613852653, 0.4943225627787873, 0.49430321108218445, 0.49417889282476946, 0.4939967438014555, 0.4937065209176321, 0.4934149223773255, 0.49307316410878643, 0.4926592092661477, 0.4921859601696472, 0.4916484361794127, 0.49105816837764854, 0.4903907124971773, 0.4896857237158657, 0.4889216675433906, 0.4881703445896021, 0.4872805561478882, 0.48626577081856376, 0.4852775139114173, 0.48423137241504827, 0.48311470050673383, 0.4819561301774715, 0.4807537852159255, 0.4794802128333598, 0.47815164540129496, 0.47672102744879524, 0.47528995944598984, 0.4738317670287092, 0.47228554621777363, 0.4706865010948075, 0.4690299225966819, 0.4673276181757965, 0.46563202895416594, 0.4638202006885313, 0.46196147747542055, 0.46000318485370034, 0.45805788196773933, 0.45609506757528845, 0.45404809133628654, 0.4519551905988107, 0.4498115792384754, 0.4476290211531909, 0.44543088672868214, 0.44315602164722323, 0.4408394437852393, 0.4384261259333516, 0.43603452140991467, 0.4336101387091609, 0.4311315399222265, 0.4286122348676763, 0.42601880018422356, 0.4234251735866733, 0.4208260023468539, 0.4181494583133919, 0.4154373118507113, 0.4127141939524674, 0.40993041808393926, 0.40709648417253386, 0.40425240694552306, 0.4013770486001004, 0.39840792016931686, 0.3954807485768134, 0.39253469782669187, 0.38954312778851435, 0.3865230476083569, 0.3835153154023825, 0.38043687991062664, 0.3772803029909485, 0.374164377902305, 0.37102435886765606, 0.36789326059748756, 0.3647049552908145, 0.3614876037364937, 0.3582646297125926, 0.355024497401019, 0.3517233485652332, 0.34845771398524983, 0.34521250578463125, 0.3419104755968249, 0.3385966973251976, 0.33526160436735114, 0.3319286614729171, 0.32855202751433366, 0.325205800675235, 0.3218504356845757, 0.31857443153560466, 0.3151937093738652, 0.3117676914745744, 0.30839237489286064, 0.3050152167842704, 0.3016266219427675, 0.29825002847935367, 0.29489504216212065, 0.2915177784487525, 0.28814426696281903, 0.2847251762967907, 0.28136809788218525, 0.278067386166845, 0.27471198539173103, 0.2713656114743306, 0.26798413283648836, 0.2646638283029447, 0.26138937623699177, 0.25808330978133864, 0.25479049694088884, 0.25142721224908116, 0.2481740096779224, 0.24497928728378762, 0.24174342996432738, 0.2385240732567391, 0.2353221653558401, 0.23213863085621483, 0.22899550421227594, 0.22584872980911838, 0.22272415822763766, 0.2195828373378556, 0.21650969583096855, 0.21345062580293186, 0.21042346906525086, 0.20741980299450932, 0.2044458836552392, 0.20149140499005475, 0.19853444361125908, 0.19563759106536785, 0.19276725784037763, 0.18994819291993625, 0.18713076018678268, 0.18434657888655376, 0.1815906548625129, 0.17886671214170013, 0.1761779494703007, 0.17351928854577695, 0.17087852456027866, 0.16828984137214031, 0.1657349628395561, 0.16321710921953309, 0.1607312111160523, 0.15831789185569986, 0.15589898128011662, 0.1535186564254586, 0.15116911613653225, 0.14886734901788817, 0.1465935660320259, 0.14437045567218168, 0.1421857407925139, 0.1400846264606042, 0.13797190591467967, 0.13586661035899658, 0.13384165115163615, 0.1318563368375544, 0.1298501288085574, 0.1279524204464981, 0.12614438059567357, 0.12431432459990542, 0.1225253065858865, 0.12074306840368748, 0.11904069891328894, 0.11741462257538562, 0.11578651307964437, 0.114200365577641, 0.11262175810752634, 0.11112362278930131, 0.10969430923854734, 0.10827219803376685, 0.10689177421185263, 0.10553175342967801, 0.10423690926557111, 0.10296094489472433, 0.10174878004459659, 0.10057537400360168, 0.09942760609013108, 0.09833359660965793, 0.09728827931228544, 0.09626923319515934, 0.09528894492204355, 0.09432349564685502, 0.09342325628890384, 0.09258895203510567, 0.09175873564242569, 0.09096685435917208, 0.09019970232567057, 0.08948494900541581, 0.08886201513258878, 0.0882126000330635, 0.08760193192092655, 0.08700803513985736, 0.08647503319808858, 0.08594016805538975, 0.08548148487339711, 0.08505465580782424, 0.08470428681932422, 0.08433454795214959, 0.0839030709368939, 0.0836112970688274, 0.08334601030796467, 0.08313099872344758, 0.08291563661145639, 0.08271996215280562, 0.08256041226659473, 0.0824271594661891, 0.08233298062582754, 0.08224931680402388, 0.082201840346164, 0.08216742883506047, 0.08215790422932714, 0.082161925143158, 0.08220117946231947, 0.08225974556731015, 0.08234253616174805, 0.08249853948263935, 0.08261470416229594, 0.08275278131972787, 0.08287462798664952, 0.08305776284430956, 0.08326529507642048, 0.0834796220013186, 0.08370935716442919, 0.08391669191086387, 0.08417944051517065, 0.08448738807436561, 0.08476699033851923, 0.08505829914297829, 0.08535780864433923, 0.08567027795975479, 0.08599173143400154, 0.08632134420055597, 0.08665829432770442, 0.08697270596373205, 0.08732555072934578, 0.08771863575012388, 0.08807274621014731, 0.08843101340767644, 0.08873704387588119, 0.08910789154701562, 0.08949027659493906, 0.08985568624958759, 0.09021927072562738, 0.09058570183734364, 0.0909431152652587, 0.09133673521839594, 0.09168160355694305, 0.09202386874994975, 0.09238099097584546, 0.09271265742192222, 0.09302656816546379, 0.09334973382300406, 0.0936655099165078, 0.09396509777548578, 0.09426450341049221, 0.09456146213463747, 0.09483839411532623, 0.09510395831527428, 0.09539437607351924, 0.09563027194382404, 0.09583089061875719, 0.09604579545163187, 0.09624593968736926, 0.09643591758913396, 0.09660383147997349, 0.0967658554068611, 0.0968988618310394, 0.09701471353239181, 0.0970942280918803, 0.09717606796965794, 0.09730906394918927, 0.09734111077226679, 0.09735611631179733, 0.09739006610200439, 0.09736340814186945, 0.09731903817471112, 0.09725589209312457, 0.09717300731900122, 0.09707215571164521, 0.09694693555030758, 0.09679183911674165, 0.09662306063400461, 0.09643063963234752, 0.09631449121028739, 0.09606075347075926, 0.09580096932217885, 0.09550592105445006, 0.0951902344847551, 0.09485557882490335, 0.09449549326203004, 0.09418897925747434, 0.09377250056757212, 0.09333610431952614, 0.09288928911203924, 0.09240867768663738, 0.09190071656166562, 0.09137591929234291, 0.0908274456953368, 0.09029976728095725, 0.08969705870502509, 0.08914349977884298, 0.08848690447833595, 0.08781120719816246, 0.08712081705831144, 0.08640379339682774, 0.0857318667092312, 0.08496414911602358, 0.08417840157865888, 0.08337123389095831, 0.08254768403371467, 0.08172005100537247, 0.08085436446694122, 0.07996921956120681, 0.07915162025450696, 0.07821614993749337, 0.07729235595644066, 0.07632350559274399, 0.07534044267886146, 0.07436384456923127, 0.07334848199944631, 0.07233504699316992, 0.07128965037484891, 0.07023098560346444, 0.0691801315987165, 0.06809222442542129, 0.06702413765913068, 0.06590858217068087, 0.06478326923973425, 0.06369581637025712, 0.062545305959134, 0.06139090356157738, 0.06022700129256554, 0.05905686417943386, 0.057946768720215064, 0.05675663478250512, 0.055596697777976545, 0.05439955094349264, 0.05320281965655966, 0.05195632718694474, 0.05076695483671354, 0.04962582663902338, 0.048427023647376284, 0.04723075501942634, 0.0459794067202196, 0.044797143155419925, 0.043705721979693295, 0.04251536894709965, 0.04133350186629874, 0.04015268605269678, 0.038990352734955755, 0.03782194153249253, 0.03668194953913442, 0.035552483638938454, 0.0344794749301001, 0.033368484871819995, 0.03223935154389312, 0.031165828700892132, 0.030108100033092205, 0.029106910887836557, 0.028079140799846882, 0.027035810763964722, 0.02605639531238757, 0.02509804321894753, 0.02422008735434415, 0.023300170142361392, 0.022387097529512803, 0.021526550953497047, 0.020694339259370788, 0.019878271350330587, 0.019107469970268205, 0.018406994516160034, 0.01769376551324733, 0.017015815142856626, 0.01637135725139082, 0.015766901046155128, 0.01518175618631124, 0.01465621510854447, 0.0141694054734438, 0.013725129091239656, 0.013318925245677979, 0.01296563522215136, 0.012643915057174996, 0.012367379990616071, 0.012110644719848317, 0.011930914151453757, 0.011800628800978407, 0.011715421136130123, 0.011679636983228407, 0.011723507672035897, 0.011786397323675007, 0.01189058939476128, 0.012065043742265108, 0.012295023998266593, 0.012536618117580754, 0.012886299952007392, 0.013347410599320795, 0.013803314166751618, 0.014320875064658038, 0.014850670097404544, 0.015500194402106154, 0.016195020858401483, 0.01697002925019668, 0.01780760256934407, 0.01871422795832113, 0.01967981331011111, 0.020679991580315867, 0.021783154141750142, 0.022952756259393484, 0.024245421755202, 0.025544271103331594, 0.026881574326677787, 0.02833085483046574, 0.029852001482751307, 0.03145106583356746, 0.03311754110367246, 0.03480024904363719, 0.03662337255279558, 0.0385583882578797, 0.040522053680174364, 0.0425621512389092, 0.04466071632530941, 0.046857558349683026, 0.049186738455546296, 0.05153086899338112, 0.05395606895158675, 0.05639104277407947, 0.058987486331807164, 0.061632042400450414, 0.06438711619049492, 0.06721889268519209, 0.07015978343448548, 0.07314300502236011, 0.07617223846668013, 0.07932070667378632, 0.08254795890817215, 0.08586759597593019, 0.08925185194293965, 0.09272716214183137, 0.0962711379057922, 0.09989630637914047, 0.1035761541293501, 0.10736672094415621, 0.11126302185048602, 0.11520890490795695, 0.11923556969038451, 0.12330573059467448, 0.12749769767688618, 0.13180700784652563, 0.13614932460797172, 0.14057136241459445, 0.1450435458780841, 0.14962712881916362, 0.15425814278097555, 0.1589980415167374, 0.1638120825195652, 0.16868950696010163, 0.1736525180085695, 0.1786592307214889, 0.18377112077033328, 0.18895344405180783, 0.19427202374828526, 0.19958612752490007, 0.2048730811850216, 0.21034533361762897, 0.21588317526557818, 0.22152866278066277, 0.2271916057289444, 0.23289779206703867, 0.23869692391406303, 0.24455999220184696, 0.2505232332151171, 0.256507200558204, 0.26248872300854764, 0.26860700998676335, 0.27478273664724856, 0.28107858624654136, 0.28735895621340113, 0.29367153508433813, 0.30007104961662634, 0.3065248191037053, 0.313002555356865, 0.31956478639087177, 0.3261573734069609, 0.33281855695652246, 0.3395253381509635, 0.34624498483600996, 0.3530438031158613, 0.35990956476426017, 0.36678514060977335, 0.3737007274148515, 0.38066292128821655, 0.3876535001783783, 0.3946672178450882, 0.40173065010255365, 0.4088266434932423, 0.4159246893409753, 0.4230850885724798, 0.43026403630776466, 0.43747706889437354, 0.44471344404452473, 0.45194802947920054, 0.45922996570652125, 0.46653231779556487, 0.47384815230430155, 0.48117921223109433, 0.48855573589154067, 0.49590880887909555, 0.5032320975161195, 0.5106136254686969, 0.5180015588875265, 0.5253732481043409, 0.5327720671347208, 0.5401634984610989, 0.5475629243711224, 0.5549594516397177, 0.5623410086065505, 0.5697285080400731, 0.5771712520503166, 0.5845328777647627, 0.5918867576938069, 0.5991382915005172, 0.6064819583901321, 0.6138486004232817, 0.6211470230191835, 0.6284258170674937, 0.6356567780611659, 0.6428942765705745, 0.6500788510830848, 0.6572650696695718, 0.6644200614651562, 0.6715608701435849, 0.6786466808321001, 0.6857268793419724, 0.6927379559539933, 0.699712537902794, 0.7065614776733984, 0.7134681837914426, 0.7203461305300503, 0.7271547891223519, 0.7339147515482876, 0.7405849149737632, 0.7472480246194517, 0.7538741784603251, 0.7604228185874343, 0.7669145170436135, 0.7733081598742177, 0.7796864896241643, 0.7860486666187196, 0.7922923586956461, 0.7984725203621272, 0.8045002847664849, 0.8105593320255289, 0.8166241562939203, 0.8225252960533002, 0.8283554462233303, 0.8340521378104633, 0.839742878702627, 0.8453303936816716, 0.8508640999141208, 0.8563147169136381, 0.8616706790214408, 0.8669534128491474, 0.8721599132764182, 0.8772666931780033, 0.882285196886333, 0.8872248298649934, 0.892061955020856, 0.8967550642751473, 0.9014152418773089, 0.9059787703875527, 0.9104844727404934, 0.9148472599909178, 0.9191104882417105, 0.9232785779396233, 0.9273472349825624, 0.9312704319868567, 0.9351425640812014, 0.9389094602553056, 0.9425704437113108, 0.9461248232247419, 0.9495851062377079, 0.952922503197803, 0.9561281553028949, 0.9592518105291236, 0.9622645707352534, 0.9651209599941886, 0.9679158997276183, 0.97061685481954, 0.9731786952832948, 0.9756261850738117, 0.9779721104990735, 0.9801879674063106, 0.9822493392469016, 0.9842399733888444, 0.9861125312889666, 0.9878589529406808, 0.9894959441803072, 0.9910509651380767, 0.9924452907603557, 0.993722564070549, 0.9948374930956311, 0.9958852239829651, 0.9968387664456453, 0.9976420517236171, 0.9983264170271426, 0.9988653362334494, 0.9993149013585569, 0.999717792445427, 0.9999169333674125, 1.0, 0.9998741664362866, 0.9997357457917397, 0.9995042627795817, 0.9991185519479445, 0.9986135800004969, 0.9980002730810213, 0.9972565450445593, 0.996368881247382, 0.9953937977521743, 0.9943559111557605, 0.9931378943581218, 0.9918059879993933, 0.99034190984148, 0.9887852581826082, 0.9871145125225035, 0.9853302311572575, 0.9834330147465595, 0.9813733160611446, 0.9792585412465324, 0.9770538337240636, 0.9747098028734817, 0.9722557128434203, 0.9697136464576867, 0.967039636658239, 0.9641804167079275, 0.9613053380096085, 0.9583215693044528, 0.9552385946001506, 0.9520410823572462, 0.9487398901258715, 0.9453364128929636, 0.941832031296331, 0.9382624556964398, 0.9345560283203953, 0.9307362282824867, 0.926843459677724, 0.9228569775790492, 0.9187675217010457, 0.9145988824584026, 0.9103399041096722, 0.9059920287393696, 0.9015567062639919, 0.8970380374261666, 0.8924318749390684, 0.8877639563098687, 0.8829908179973446, 0.8781389391952359, 0.8732096556192671, 0.8682043408726039, 0.8631059137923665, 0.8579551374639228, 0.8527316215239122, 0.8474634366416233, 0.8420960782645612, 0.8366624610659122, 0.8311640608517641, 0.8256023909987075, 0.8199922075914985, 0.8143070064105673, 0.8085904331415865, 0.8027878509077038, 0.7969320706149579, 0.7909452432942609, 0.784997336960848, 0.7790516208799827, 0.7729923327753127, 0.7668872328916522, 0.7607195142306452, 0.7545302067662866, 0.7483889912102679, 0.7421067933213427, 0.735791728486751, 0.7293763033158688, 0.7230078379776319, 0.7165906229127041, 0.710160342544249, 0.703700232396555, 0.6971965442424575, 0.6906850604503249, 0.6841755138666703, 0.6776139024990234, 0.6710335987321834, 0.6644180025759324, 0.6578083209135273, 0.651181929312928, 0.644546472232245, 0.6379008294764076, 0.6312100216070646, 0.6245546649621677, 0.6179167547523206, 0.6112479665494963, 0.6045785850566289, 0.5979184606694893, 0.5912526418280061, 0.5845923745911774, 0.5779394463196345, 0.5712956295962216, 0.564662682334585, 0.5580423478239132, 0.5514099393179447, 0.5448233411399602, 0.5382530143427484, 0.5318117994468977, 0.5252656349379047, 0.5186471568080178, 0.5121707005208023, 0.5057185256134571, 0.49931888333343083, 0.4929173968493782, 0.48658932202959754, 0.480246289067612, 0.47393977117732744, 0.4676286456388149, 0.46140395678252755, 0.4551772970121367, 0.4490344769780035, 0.44293016762701143, 0.43690316909483606, 0.4308765944672205, 0.42486680853011327, 0.41893693099232915, 0.4130539129295425, 0.4072404124740442, 0.4014529692042148, 0.3957708324891209, 0.39008287453417867, 0.38445276172475434, 0.3788653885137088, 0.37335523047490665, 0.3678673607176318, 0.3624813613808919, 0.3571544411913232, 0.35185877723503306, 0.3466573467179589, 0.3415459914251045, 0.3364642615598562, 0.33144778636220196, 0.3265133830038776, 0.3216282833167059, 0.3167513752515077, 0.31201259093977485, 0.3073408060784961, 0.3027583448938958, 0.29822138234328066, 0.29374537809461904, 0.28935359479265466, 0.28503428550250737, 0.28081201252492044, 0.2766369573126564, 0.27249829458662117, 0.26848072389588806, 0.26453780904560414, 0.26071517117624826, 0.25691797178309894, 0.253260661734808, 0.24961422273167605, 0.24605066675383166, 0.2424164511485108, 0.2390370795440121, 0.23575754344903863, 0.2325226920901329, 0.22936465744653398, 0.22635004359558866, 0.22333890854585794, 0.2204097549844528, 0.21756238948440187, 0.21479661786021523, 0.21203299666858222, 0.20943983459741705, 0.20694698169365733, 0.20450430120176574, 0.2021402335817978, 0.19987860409662256, 0.1976688561661625, 0.19550999217180176, 0.19346350505413232, 0.19149471591596912, 0.18959031040150945, 0.1877782152940401, 0.1860373211604648, 0.18437871432287378, 0.18279594224828885, 0.18129671332867767, 0.17986390449910855, 0.17846958145472658, 0.1771919460580796, 0.1759867903241724, 0.17490937226651096, 0.17384144834083176, 0.17281392656027816, 0.17189897058651915, 0.1710551121051594, 0.17031082223183872, 0.16960368979610824, 0.16895685109879455, 0.16839184842513977, 0.16789525831158866, 0.16741076149638903, 0.16705545391050428, 0.16674172667359777, 0.1665140695000393, 0.16634697511037197, 0.16623210673536526, 0.16618582248611263, 0.16622988233502484, 0.16629631042895954, 0.166421951011139, 0.16662433540464625, 0.16686315845178182, 0.16716455965693922, 0.16751612412938982, 0.16792291667803322, 0.16834672847041238, 0.1688649738233978, 0.16948552846292012, 0.17009512813722352, 0.17072094960817896, 0.17143459882454112, 0.1721940740698192, 0.1729877130781726, 0.17383687199262032, 0.1747701935989985, 0.1756967499526452, 0.17666544372427814, 0.17763521402888727, 0.17868890234460857, 0.17978618354632653, 0.18090915085312065, 0.18206609767133333, 0.18327699458723487, 0.18449573335325328, 0.18570385875381715, 0.18698988496424399, 0.18830248691285276, 0.18961161544578686, 0.19097803546120928, 0.19237161857911692, 0.19378028997841953, 0.19520940603909145, 0.1966210065659288, 0.19809271673314585, 0.19960353317524926, 0.20110212829567106, 0.20261578169421007, 0.2042015284911632, 0.20573469181956297, 0.20724325056888052, 0.20880985630781987, 0.21038609299790528, 0.2120262338487459, 0.21361112168660026, 0.2151127043636978, 0.21672593790229588, 0.21833990833546668, 0.21998817132098997, 0.22159687942250003, 0.22318200610771094, 0.22479293606243364, 0.2264003942617455, 0.22801134391290884, 0.2296079582123146, 0.23117748937554003, 0.23276381494922832, 0.2343408879680215, 0.23599499600286905, 0.2375398777125409, 0.23898789487264463, 0.2405284073696026, 0.24205366780572568, 0.24360783993362342, 0.24509467169622268, 0.24658233844394292, 0.2480359867437906, 0.24947324398839482, 0.25085063746796993, 0.2522568808240258, 0.25360654059572624, 0.25497190844652873, 0.25631164419970476, 0.2576437843097679, 0.25892852359430946, 0.26018985774766606, 0.261421487088288, 0.2626258537071299, 0.2637335777490036, 0.2648900100586551, 0.26604494721602423, 0.2671308629360512, 0.2681850638354692, 0.26922819966447553, 0.2702148411841073, 0.2711668375225089, 0.2720891329191793, 0.2729779513332896, 0.2738775890684714, 0.2746919656851486, 0.2754260671877438, 0.2761800897748005, 0.27689696062950975, 0.27758684503714975, 0.27822688485047814, 0.2788291974359479, 0.2793933335155332, 0.279918868738615, 0.2804001204986949, 0.2808479480469161, 0.2812082057960687, 0.2815817169268185, 0.2819119883465447, 0.2822731189522752, 0.2825079391520394, 0.2826881502777489, 0.28284692666296285, 0.2829650570121974, 0.2830026328031298, 0.2830436610137585, 0.28307805288834703, 0.28302730827410033, 0.2829352916796495, 0.2827648518065221, 0.2825944925006625, 0.2823143409449993, 0.2820650507929959, 0.2817687484344006, 0.281529201013159, 0.2811280230854257, 0.2806665301191048, 0.2801893999872323, 0.27967144247788495, 0.27909683311865285, 0.2784993294817893, 0.27788140592289523, 0.27719836657530755, 0.2764754539329164, 0.27564672436755466, 0.27485273267076477, 0.27408686645640895, 0.2731981870481185, 0.27227172149457124, 0.27128641803209025, 0.2702873378176285, 0.2691730521914507, 0.26810683012406267, 0.26699847148523054, 0.265885977275869, 0.26469166627336427, 0.2635130048911957, 0.26223820986191304, 0.2609303096049772, 0.2596026373660876, 0.258227285086388, 0.25677783229330947, 0.25534431550297193, 0.25387697250717994, 0.25232622207032923, 0.2507994000220725, 0.24925626142699953, 0.2476585107496533, 0.24602899297480282, 0.24438434714790325, 0.2426916437632793, 0.24094660987702518, 0.23920041742140893, 0.2374255762068571, 0.2356044157936051, 0.2337770577435352, 0.23192506360366888, 0.2300437377110877, 0.2281370950885174, 0.22625880993101513, 0.2242973640831019, 0.22230811348891122, 0.22030827443952491, 0.218288880174999, 0.21624515206455425, 0.2141888539107359, 0.2120878756370066, 0.20999900414713807, 0.2078916319721982, 0.205819445051686, 0.20367094282107992, 0.201461880355311, 0.1992937552778753, 0.1971107720361426, 0.19493227339170996, 0.1927197782985958, 0.19049069581182532, 0.18825692547887485, 0.18601289277396998, 0.18372497966214762, 0.18146692983344576, 0.17927810194811186, 0.1769909813706888, 0.1747002431077746, 0.17238240613693617, 0.17008836622319054, 0.1677956789451733, 0.16549372700131376, 0.16318938580711315, 0.16086475919387933, 0.15855977376191316, 0.15623997309781615, 0.15393421715185687, 0.1516276498374983, 0.14937395903775721, 0.14706163615498777, 0.14471962588761444, 0.14242131252674822, 0.14012648135225098, 0.1378120564127077, 0.1355292785373351, 0.13324278576673013, 0.13097028597306276, 0.12870322972173248, 0.12642662067229285, 0.12417497536434786, 0.12195938621801614, 0.11971893756861751, 0.11748881567392802, 0.11526956819320212, 0.11306173144456888, 0.11084998133368446, 0.10866853419244127, 0.10649915035129555, 0.10434244915829902, 0.10219902320919343, 0.10012491224644111, 0.09800270212323599, 0.09586417395439614, 0.09378240453448956, 0.09171687531073308, 0.08963364368414764, 0.08760612118769968, 0.08557823132271056, 0.08358432555412361, 0.08160626710118249, 0.07972927809987156, 0.07777425273927824, 0.07576777968778102, 0.07386700273359507, 0.07198436476249005, 0.07016267039793267, 0.06831254560549425, 0.06647914820206521, 0.06467379752365683, 0.0628903401769019, 0.06114212750168766, 0.05940121796662757, 0.05773884551345061, 0.05603708696203235, 0.05436158713149004, 0.05265912362492816, 0.05104170760456566, 0.04949677744567315, 0.0479178063905371, 0.04636433277198973, 0.04480443044895339, 0.043305314947241644, 0.04187425140017238, 0.04041587770338174, 0.038983418719316376, 0.037566060241124674, 0.03618605853209111, 0.03493639922460787, 0.03359233136035939, 0.03227874957878478, 0.031000041517007502, 0.02974419060531595, 0.028485064013478292, 0.02728943102777611, 0.0261192548412359, 0.024995444729716047, 0.023872874320599084, 0.022789579402094307, 0.021717165998911978, 0.020670984309136334, 0.01971937374566522, 0.01871599276843132, 0.017765571664990633, 0.01681677462349527, 0.01589702818797918, 0.015082142449950127, 0.014208526322109501, 0.013371442420609366, 0.012558507545474336, 0.011774963561573397, 0.011035739025865281, 0.01030632919653329, 0.009660251129658, 0.008978813754303308, 0.008326980200106793, 0.007727527543074891, 0.007129035428710702, 0.006661885883001408, 0.0061061726652462045, 0.005582995083759858, 0.005053915826775726, 0.004596308234695764, 0.004247231110054594, 0.0038319074647568106, 0.003446622272332631, 0.003135155887351105, 0.0028010477874530534, 0.002499210465975454, 0.002222954140367587, 0.0019744813573103, 0.0017978897590579539, 0.0015970017818351411, 0.0014084909114359333, 0.0012652101275172295, 0.0011476932549275088, 0.0011426256297238345, 0.0010642407716236278, 0.0009862336203247965, 0.0009694200125013617, 0.0009786064563446755, 0.0011057719778153367, 0.0011539254263552548, 0.0012056594930691868, 0.0013161387833580886, 0.0014532646125441783, 0.0016085922993731945, 0.0017985403523844688, 0.0020424383133500965, 0.00227827321150989, 0.0025402315815647937, 0.00286492994334428, 0.003173430943308102, 0.003551491587549931, 0.003908752405800694, 0.004294788505958136, 0.0046534546066641655, 0.00510214119334228, 0.005627605729676553, 0.006117562006350643, 0.006634558635114165, 0.007180900868692414, 0.007750700431838448, 0.008386490540954849, 0.009003831590696018, 0.009649444097436026, 0.010333481869960554, 0.011033141072742442, 0.0117527249925743, 0.012508793599907827, 0.0132917490746077, 0.01408827847683078, 0.014926405020940142, 0.01579576905114589, 0.016685252457814187, 0.01760123534916276, 0.018533255973871815, 0.019503904490305268, 0.020532521535410284, 0.021551938170747676, 0.022599876710457833, 0.023686886558195116, 0.024790515067669786, 0.02594179273202691, 0.027101386122928915, 0.02829118175072035, 0.029474100352867544, 0.03072872893510379, 0.03202717355732075, 0.033336056026597435, 0.03467443975328964, 0.03605836421591895, 0.037454330285603465, 0.03888922007894151, 0.04034628050779048, 0.041835006339119706, 0.043294724861366485, 0.04485473926360188, 0.04643805604678925, 0.04805655663665265, 0.049704600537623336, 0.05136695147170034, 0.05307788625925344, 0.05485618354010056, 0.05662384048043167, 0.058425181995581804, 0.06026046363478468, 0.062129942555828814, 0.06404708536114069, 0.0659840676112688, 0.06795677100001747, 0.06994158040993304, 0.07198922315152656, 0.07401365897699082, 0.07613885382558572, 0.07829646261345378, 0.08056392316787271, 0.0827791058434645, 0.08496462327398711, 0.08726655053465279, 0.08960372712597121, 0.09199791829053618, 0.09440477322528701, 0.09682340954846118, 0.09931033196939193, 0.10183462287436484, 0.10443642497292417, 0.10703196431741376, 0.10963156363616447, 0.11231395984266014, 0.1150355295889095, 0.11779404803406784, 0.12059552084815117, 0.12342133796559343, 0.12630556227578132, 0.12922978738363242, 0.13222351145872133, 0.1352253518752875, 0.13824626808607282, 0.14133692140407453, 0.14446930671616384, 0.14762523354857676, 0.15084429756358578, 0.15407582936023756, 0.15738199802706712, 0.16068123764027425, 0.16407519637204193, 0.1675081255249933, 0.17107856650431413, 0.17457939371691958, 0.17803434817837202, 0.1816397742674152, 0.18528610993839537, 0.1890187940138562, 0.19274279430923746, 0.1965353781578578, 0.2003459582707049, 0.20420260275122085, 0.20804166627619336, 0.21199772207377107, 0.21601934766874362, 0.2200562816919135, 0.22413687356796058, 0.22823205856242734, 0.2324035918014894, 0.23658535747407256, 0.24084491545468606, 0.24514488523240896, 0.24954633488258357, 0.25392031005403604, 0.25832826060302133, 0.2627922726767287, 0.2672994717461267, 0.271815224617585, 0.27641224918148516, 0.28099943250314385, 0.2856834485485377, 0.29040484963322155, 0.2951929570488723, 0.2999861574228144, 0.3048215452519226, 0.3096932854579294, 0.3146042429759082, 0.3195382505059605, 0.32452865939402004, 0.3295616282106253, 0.33462563927820804, 0.3397266133199226, 0.34481923462270503, 0.34999855101005933, 0.355210985598424, 0.3604563975295037, 0.36573457368720014, 0.37101881902785205, 0.37636496298904853, 0.38176250236570586, 0.3871662629648801, 0.39260092258031387, 0.3981029121279702, 0.4035930007413227, 0.40902711997914293, 0.41458966898418526, 0.42017660301929044, 0.42582464591663516, 0.4314548151753655, 0.43709193034890936, 0.4427745189888408, 0.44847989370325236, 0.45417301490097517, 0.4599261606509389, 0.46573756068971806, 0.47152241346051893, 0.47732696097421295, 0.4831105842400481, 0.48895652496808134, 0.4947640645349278, 0.500644814647846, 0.5065355151927865, 0.5124648122190847, 0.5183704080900696, 0.5243309702381469, 0.5302500933195486, 0.5361799209341117, 0.5420504106927507, 0.5480062508412408, 0.5539833651265929, 0.5599416424839617, 0.5659020935567826, 0.5718345988118053, 0.5777998486280951, 0.5837438619812653, 0.589705034158143, 0.5956605193780995, 0.6016411352027791, 0.6075785324091535, 0.6135197603513177, 0.6194410422455935, 0.6253535496799731, 0.6312452948421893, 0.6371373230646171, 0.6430262816595691, 0.6488883630633158, 0.6547347122571193, 0.6604740723954003, 0.6662959805084543, 0.6720901456532262, 0.6778614670612297, 0.6836060150739833, 0.6893651903100905, 0.6950481821815725, 0.7006590611312818, 0.7062919145067004, 0.7118922250743721, 0.7174087426506465, 0.7229470782189884, 0.7285418162536512, 0.7339899465829438, 0.7394030434830071, 0.7447001392990147, 0.7500480516127904, 0.7553513993869752, 0.7606091765460212, 0.7658203218021057, 0.7709520268544471, 0.7760705439395146, 0.781182104587733, 0.7861902527006157, 0.7911470678479244, 0.7960379060149895, 0.8008894168694282, 0.805610585486249, 0.8103573665207815, 0.8150409638092667, 0.8196764853990216, 0.8242294114995082, 0.8287651481669366, 0.8331815189339639, 0.8375336482154332, 0.8417936068918466, 0.8460160762761046, 0.8501208064557867, 0.8542076768645257, 0.8582192304880678, 0.8621572629178509, 0.8660152672197368, 0.8697690247999292, 0.8734737270385389, 0.8770971344721296, 0.8806437231397171, 0.8841014125834682, 0.8875072699412652, 0.8907929431037938, 0.8939949547491887, 0.897090944848572, 0.9001246475540073, 0.9031095197809162, 0.9059603267970074, 0.9087229531262805, 0.911351211655416, 0.9139393625889947, 0.9164410462470848, 0.918838640169466, 0.9211407461040344, 0.923333327831898, 0.9254436574116275, 0.92748701829494, 0.9293953346349494, 0.9312054276264535, 0.9328609159027044, 0.9344788920422563, 0.9360061415305955, 0.9374142436471649, 0.9387184674248349, 0.9398655163843485, 0.9409672733398615, 0.9419977961587507, 0.94287843501136, 0.9436528737513726, 0.9443075278233194, 0.9448701183296211, 0.9453431681429467, 0.9456871324280743, 0.9459236584337898, 0.9460761616999819, 0.9460937613052557, 0.9459805016119816, 0.9457864816210295, 0.9454831895324203, 0.9450651903233952, 0.9445435956010243, 0.9439279147504213, 0.9431844265484772, 0.9423318810163653, 0.9413252793383559, 0.9402600626086474, 0.9390963286496737, 0.9378063897478417, 0.9364062592797409, 0.9349226417094759, 0.9332996730047413, 0.9315557089925455, 0.9297189693711643, 0.9277740184713688, 0.9256842116120156, 0.9235285574091587, 0.9212425937328798, 0.9188719903087014, 0.9163924865050002, 0.9138789446515729, 0.911174968956485, 0.9083160635805183, 0.9054148365396955, 0.9024672631866282, 0.8993505967739612, 0.8961343998792757, 0.8927952846205279, 0.889384263705612, 0.885913374880167, 0.8822991479830007, 0.8785892641840257, 0.8747789847159105, 0.8708801648593694, 0.8668898920239272, 0.8628033529866383, 0.8586245340507158, 0.8542671612145499, 0.8499175487025072, 0.8455396534943974, 0.8409948017413442, 0.8363627996566148, 0.8316659262252559, 0.8268604286855121, 0.8219196857535297, 0.8169571220921363, 0.8119113997377772, 0.8068184713695415, 0.8016069230329602, 0.7963084027705155, 0.7909467074712335, 0.7855107063493962, 0.7799596179737118, 0.7743848200453589, 0.7687801228232203, 0.7630575399536941, 0.7572689165481448, 0.7513999103654244, 0.7454857579780609, 0.7395594663624939, 0.7335160245108391, 0.7274165055585166, 0.7212543120117768, 0.7150476816080041, 0.7087649106506392, 0.7024581082913016, 0.6961007548507356, 0.6896656143486994, 0.6832163042927445, 0.6767255848120769, 0.6701843021522516, 0.6636007631545786, 0.6570165891357621, 0.6503495115915774, 0.6436087418859979, 0.6368801869403746, 0.6301186735810853, 0.6232707606948469, 0.6164564244268468, 0.6096860346982459, 0.602804755321614, 0.595902428395239, 0.5890124759061587, 0.582069237803182, 0.5750987553387, 0.5681306398334333, 0.5611508453533501, 0.5541267529609695, 0.5471331295144044, 0.5401522645241886, 0.5331412821177518, 0.5261272144902183, 0.5190934253686642, 0.512081092642462, 0.5050834186623822, 0.4980743290300523, 0.49107143491266547, 0.4840158490156571, 0.4770386268766002, 0.47015430846928963, 0.4631854874506524, 0.4562343960934225, 0.4492946392945399, 0.44238462386031024, 0.43548863157679824, 0.4286251732461797, 0.42178654396412574, 0.4150061765154843, 0.40821839465669757, 0.4014201400594417, 0.39470274289456564, 0.38801770138335606, 0.38130081213727757, 0.3746943068495132, 0.36811658398123404, 0.36158115483996106, 0.35508395400141124, 0.3486799482815498, 0.3422588450985387, 0.3358454638044445, 0.3295255264454319, 0.32325362416516573, 0.31702093783125956, 0.310851623361831, 0.30475330804988926, 0.29868833596109723, 0.29268017597817675, 0.28672494135275034, 0.28083522647187703, 0.2750536567107719, 0.2692804588137022, 0.26357315594072095, 0.2578507362363288, 0.25228821491663067, 0.24686625308212917, 0.2414235113298725, 0.23605205295461684, 0.2306813383470569, 0.2254638140779152, 0.2203581897739076, 0.21527595033249636, 0.21026835753620113, 0.2053019410231279, 0.2004505658180924, 0.19569028847661252, 0.19098847149518522, 0.18636485998572216, 0.18182819412016504, 0.17736239712929858, 0.1729854989618923, 0.16868127915263764, 0.16445970861589213, 0.16035563197352162, 0.15629650872456466, 0.15226793241993994, 0.14838801650705688, 0.14459132489723542, 0.1408652624454019, 0.1372384713548372, 0.13366942053165193, 0.13021483759547806, 0.12684397805965028, 0.12361295864344846, 0.12040438096867677, 0.1172447012238668, 0.1142181341477836, 0.11127776624492615, 0.1084581816266534, 0.10568654451681672, 0.10292963116249632, 0.10034451975478861, 0.09784352805352674, 0.09546663821123576, 0.09312985994625297, 0.09088022790741151, 0.0887175198936424, 0.08664147655717072, 0.08465972693751947, 0.08275508895622312, 0.0809788331047561, 0.07924062383056596, 0.07758995389173595, 0.07592295101542719, 0.07445784457552658, 0.07313273938101851, 0.07181845627261808, 0.07058675747906092, 0.06946867792154605, 0.068396125738267, 0.067342478337967, 0.06644155530703397, 0.06561740392855915, 0.06490389592805897, 0.06422747988824272, 0.06358327118107912, 0.06306584163389249, 0.0626211517879863, 0.062222194118670304, 0.06192448405548766, 0.061698711383482416, 0.06153870216003383, 0.06144694529996591, 0.06147554339242237, 0.061511363413003214, 0.0616001807007647, 0.06177436762008241, 0.06201385388063762, 0.06231215709928343, 0.06267929603529088, 0.0631474153166838, 0.06363105579550936, 0.06417585107025842, 0.06473005185416787, 0.06539884369816631, 0.06608437347874545, 0.06686417901463197, 0.06769338962243429, 0.06858962108134589, 0.06951261038441964, 0.07050699147087133, 0.07152099890682635, 0.07258150125725944, 0.07368174855674604, 0.0748315040443352, 0.07597021480767965, 0.0772087860678873, 0.07851499623813621, 0.07982041280449152, 0.08116143343515474, 0.08257628506704273, 0.08397929924461651, 0.08538684850959577, 0.08685896220940245, 0.08835954916744419, 0.08994261189104474, 0.09148871811608425, 0.09297481888203976, 0.09458435108982222, 0.09621235789302655, 0.09787884872600632, 0.09953772225502058, 0.10117314337024952, 0.10286796274452949, 0.10457391068283876, 0.10626611237274322, 0.10799397603092149, 0.10975726042369634, 0.11149315097958008, 0.11323492932516838, 0.11502350045111441, 0.11676762094060941, 0.11851589255076664, 0.12026659165808092, 0.12201803388528613, 0.12375008148928292, 0.12550044250357387, 0.12726944710758417, 0.1290051459394728, 0.130734270168625, 0.13238393815662572, 0.13410428797745808, 0.13586760518369514, 0.13754943590464236, 0.1392175865184761, 0.14083101806705767, 0.14247260125104974, 0.1441126150845497, 0.14571073271386, 0.14728780217540732, 0.14888755507071508, 0.15041334106417498, 0.15183787289450412, 0.15332817185771644, 0.1547890958770803, 0.15625425072173263, 0.15764985614577437, 0.15898932769255947, 0.16032776652532896, 0.16163288852434968, 0.1629223737047816, 0.16415608940048462, 0.1653233906500407, 0.1664907235239705, 0.16761966799369432, 0.1687386252389103, 0.1697851451555838, 0.1707691496145564, 0.17174029265527188, 0.1726695926341618, 0.17355112144221108, 0.17439547588386523, 0.17519842254618664, 0.17595377131767753, 0.176664081353061, 0.1773261358780086, 0.1779449919223867, 0.17852754860377357, 0.17905083388449644, 0.1795268558921514, 0.17990487177158462, 0.18029108172654915, 0.18061243241289507, 0.18089694824223607, 0.18112892919494794, 0.18132951710531925, 0.18145376097450075, 0.18156359923551865, 0.18158017639931037, 0.1815470205162504, 0.1814081713295719, 0.18128115146941512, 0.18114752434026535, 0.18090629244004225, 0.1806137848097266, 0.18025914974270943, 0.17986461608322057, 0.17943862630514376, 0.17893617738893725, 0.17838222424012123, 0.17776338508097295, 0.17710762279552, 0.17637283002154716, 0.17561525718510562, 0.17480377797080293, 0.173970445314041, 0.17304821291965197, 0.17210134559735749, 0.17107378989868222, 0.16999694151009237, 0.16879682220895012, 0.16763075791629012, 0.1664272400394748, 0.16515332402756816, 0.16382848852148993, 0.16240577655480978, 0.16098688701062672, 0.1595637344119355, 0.1580361931332542, 0.1564614308684215, 0.1548056295816405, 0.1531423497944311, 0.15142361370397942, 0.14966712138910965, 0.14786433333687932, 0.146066320500904, 0.1441672221752679, 0.142216672342779, 0.1402375726510625, 0.13821790267501852, 0.1361292039739521, 0.13403388864365218, 0.1319035276886771, 0.1297277938004115, 0.12751383516378578, 0.1252492979126572, 0.12296312358986075, 0.12064055293655909, 0.11828255577523077, 0.11589009346454994, 0.11344827146498218, 0.11099174164040747, 0.10856346254505789, 0.10603531289689004, 0.10348019353363791, 0.10088808977028794, 0.09828206972675521, 0.0956529242669746, 0.0929958065032621, 0.09031463722279603, 0.0876128583915504, 0.08488567858175275, 0.08207631474552332, 0.07931480697926983, 0.07653017745655227, 0.07377134993989684, 0.07093854999089776, 0.06806024160356344, 0.0651990872937011, 0.06232161522096303, 0.05938933854232182, 0.05648763162707002, 0.053602438546160064, 0.050667760207780924, 0.04772243391348749, 0.04474901744970359, 0.0417878658868718, 0.03884455189450542, 0.03586406608109709, 0.03287877838989371, 0.029905431422458578, 0.02691121819351327, 0.023889362581523833, 0.020896804887424958, 0.017903092781297158, 0.01494886044607024, 0.011950848382755385, 0.008911989178871368, 0.005928422675116661, 0.002947720791678699, 0.0