0.032819127813708215, 0.032616825277997946, 0.03248266617151701, 0.032313198975238606, 0.03216835467682224, 0.03206864796958128, 0.03197940232042461, 0.03188921224498488, 0.03183942723399477, 0.031721959718217826, 0.03168770043662784, 0.031612951892636985, 0.03156753630714959, 0.031523079422676056, 0.0314595943242719, 0.03144110559792157, 0.03137697525786194, 0.03139487706323283, 0.03132891114017385, 0.031282742178782984, 0.031294865160534785, 0.03126713421179037, 0.031231562586173572, 0.031195460219020095, 0.03118010806553599, 0.03118711176528541, 0.031166743318183098, 0.031165539214417774, 0.03118276046078991, 0.03120971000845545, 0.03118763482109147, 0.031206477253779234, 0.03127515039965547, 0.03128478094768138, 0.0313367322837716, 0.03134746285381074, 0.03141696113735489, 0.031456692209662775, 0.03152260029724708, 0.03160321564051195, 0.03170022469673983, 0.03177466756044834, 0.03187345875792003, 0.03199616587207046, 0.03211757718323338, 0.03223548504012674, 0.03239270802831349, 0.03252596714761916, 0.03265737427539366, 0.032825130919217904, 0.03302130976086453, 0.03319678586426474, 0.03341009734217839, 0.03358516306748034, 0.03380758959045842, 0.034041452803293064, 0.034285457135137594, 0.03452273004128248, 0.034822930803779316, 0.035081797264048246, 0.035361783890919485, 0.03567957628437097, 0.03596759205535425, 0.036329865656442986, 0.03661407587164642, 0.0369700096021615, 0.03734721140095819, 0.03770516822330164, 0.038092332038443165, 0.03849998527599722, 0.038954187426518634, 0.03937208328001768, 0.03977810049270632, 0.04021334638543634, 0.04072268823462577, 0.04117939896606381, 0.0417129211963242, 0.04223204253208219, 0.042725158200249275, 0.043263621400089255, 0.04386163809189285, 0.04441904839336505, 0.04500932435351057, 0.045601608643769616, 0.04625009957038786, 0.04688223039973923, 0.047518643562692836, 0.0481858037549487, 0.04887563220187158, 0.04959882976068237, 0.05031274506858406, 0.05102733673501674, 0.051791595240669126, 0.052591058022109165, 0.053386979305317946, 0.054148712085590335, 0.05498829697419393, 0.05585004229698113, 0.056732077134813534, 0.057588458438280414, 0.058483278891963426, 0.059435370663051115, 0.06036500960749559, 0.06127983850237477, 0.06229673920634198, 0.06325606213467419, 0.0643091236929952, 0.06530765362965299, 0.06635314581452605, 0.06742937084583861, 0.06851540556838122, 0.06966628690239213, 0.07077634032459422, 0.07191807880935126, 0.07313200906689866, 0.07427170241616189, 0.0755368408673523, 0.07672625017567732, 0.07801094562228526, 0.07929654080979785, 0.08054987021845657, 0.08188036470562428, 0.08321132614075524, 0.08455163256050126, 0.08597255066850824, 0.08732970044752958, 0.08876489059937918, 0.09017924003786361, 0.09166583687622613, 0.09315387752991938, 0.09462613215993092, 0.09616232132751444, 0.09766811409217424, 0.09924103671703786, 0.10082384175128659, 0.10242575851418699, 0.1040583517284606, 0.10568376179827399, 0.1073441457259738, 0.10905420123533131, 0.1107309307913834, 0.1124708339836418, 0.1141788244048772, 0.11593836289786323, 0.11774461574378274, 0.11953933713867812, 0.12132308821980943, 0.12313455351996772, 0.12502399677209805, 0.126908445149039, 0.1287632395506729, 0.13068305836116942, 0.13258378872626014, 0.1345125321287456, 0.13652194399383327, 0.13848907603076593, 0.14042551887843918, 0.1424610250916994, 0.14448256917203034, 0.1465454595298337, 0.14855839291238868, 0.15063581120501876, 0.15272699336008805, 0.15485169360201845, 0.15694852784464108, 0.15907107530424935, 0.16122041729735725, 0.16332399032822437, 0.16549719883038042, 0.16770182887509436, 0.16988923013454763, 0.17210542767153342, 0.17431619727790457, 0.1765047237158403, 0.1787755033118239, 0.1809762863225126, 0.18327491866825837, 0.18549803451246522, 0.1877664104422219, 0.19009650025109062, 0.19237012231304262, 0.1946683158727903, 0.19696502978627348, 0.19927686001616654, 0.20156179516903366, 0.20391328444280804, 0.20624376691215837, 0.20855137645258687, 0.21086708406068316, 0.21324074514859587, 0.21559410921629718, 0.21789874196274744, 0.22027042237527644, 0.2226293812069246, 0.22498067523768364, 0.22732342993251337, 0.22967041000936567, 0.23202369123037003, 0.23437602186845, 0.23671453119324232, 0.23904469455444863, 0.24137552707432722, 0.24371069064848586, 0.24604618768765965, 0.2484036610414127, 0.25069906303382544, 0.25302061814984295, 0.2553679259353722, 0.2576640497799528, 0.25992550583213575, 0.26221394962722105, 0.2644913966584772, 0.2667555494592395, 0.2690148111069616, 0.271262405572766, 0.27350165808286087, 0.27576751314778825, 0.27797742572679274, 0.28014949143479767, 0.2823261789873424, 0.2845132552444338, 0.2866577623642356, 0.2888092307284618, 0.2909556367357238, 0.2930186740047693, 0.29512211378649433, 0.2972045581077445, 0.29923690203970044, 0.3012937930910193, 0.30328476782486535, 0.3052814777830691, 0.3072560142598621, 0.30923280740924036, 0.31112717063919576, 0.3130477500771958, 0.31490348649493005, 0.3167647178917819, 0.3185992140271024, 0.320411008833203, 0.32222704294364723, 0.3239304787393986, 0.32565202171612906, 0.3273529306331823, 0.32902915463404314, 0.3306582195136083, 0.33227672332321895, 0.33388522199930143, 0.3354105605480014, 0.33694305571832084, 0.33839416384445503, 0.3398240260304645, 0.34129084464658144, 0.342646220312845, 0.34400240413457706, 0.34530301082024106, 0.34658482143046415, 0.34783067836013604, 0.3490783889399793, 0.35023534083555413, 0.3513496657095375, 0.35245466844267337, 0.35353592790486554, 0.35453293510122, 0.3555458703309397, 0.356475892025638, 0.3573829955363472, 0.35824698784650055, 0.3590742651213219, 0.35980505417633224, 0.3605828381688938, 0.3612871402858089, 0.361949260910839, 0.3625359961642065, 0.36312235875877713, 0.3636685003614886, 0.36411190409662575, 0.36455202799541675, 0.36497466523722893, 0.3653592180827215, 0.3656307662372008, 0.36592224771426596, 0.36609786722664545, 0.3662710218317861, 0.36645126335257616, 0.36648110611501716, 0.36654727746896426, 0.3665414184335202, 0.3664596246571101, 0.3663752569725872, 0.3662021001755221, 0.36603185932704185, 0.36581742691585023, 0.3654739801000223, 0.3651879817626885, 0.36479407740812464, 0.36434109544054805, 0.36386613020957836, 0.3633827928112019, 0.3628137271461432, 0.3621897804272895, 0.36154660669658173, 0.3608282298877758, 0.3600606317107944, 0.35924482464911867, 0.3584054881141635, 0.35755254531142056, 0.3565684958410297, 0.35562536456075833, 0.35459936147660454, 0.35351508319863384, 0.3523625682149913, 0.3512194059720405, 0.34999134010979827, 0.3487673447351137, 0.34744584907217124, 0.3461275118809439, 0.34472335864014914, 0.34327640295863004, 0.3418509993016795, 0.3403197403677782, 0.3387335699372342, 0.3371601658252118, 0.33549318277330936, 0.3338503967179469, 0.3321122771849567, 0.33031457116770746, 0.3285441065276629, 0.3266587496471483, 0.3248097325265342, 0.32289913889355143, 0.32090474358931764, 0.3189339966016192, 0.3169112436370878, 0.31481926256010034, 0.3127178965971714, 0.3105800793227041, 0.308419629624163, 0.30616190897074663, 0.3039254406284427, 0.3016886428476929, 0.2993709581421121, 0.2970290999659174, 0.29467548123185533, 0.2922364186604877, 0.2898454337817552, 0.28738075594022605, 0.2848828544590776, 0.2823381072825023, 0.27981642904372334, 0.27724102527676653, 0.2746800509798458, 0.2720315483219386, 0.2693706474314399, 0.2667400953884939, 0.26403141415834297, 0.26133181197203426, 0.258611018036702, 0.255853421231931, 0.2531078694004454, 0.2502933085793522, 0.24751764661140965, 0.24470936896716133, 0.24186528413626407, 0.2390219997718222, 0.23612260753485903, 0.23325420291300117, 0.23037430035013481, 0.22743979805896683, 0.22457623289936984, 0.221634234160531, 0.2186893374707094, 0.21576197333503555, 0.2128481640443159, 0.20985250077276466, 0.20692229344789578, 0.20397729537191758, 0.20100383247403011, 0.19799891203202205, 0.19505881359414592, 0.1921188694994035, 0.18911752897347128, 0.18617968996133047, 0.18318163216711172, 0.18022435421971583, 0.17726247863504774, 0.17432926336299878, 0.17138214522641537, 0.1683926873751886, 0.16545821441550088, 0.16254298902588574, 0.1596401280540462, 0.15672744899586946, 0.15379598834961705, 0.15093033856854376, 0.1480729037254929, 0.14517456141923107, 0.14236123813045, 0.1395137140015852, 0.1366576710960444, 0.13389727637011253, 0.1310742305803592, 0.1283251901575769, 0.12560412203082943, 0.12286722275667232, 0.12012474424339326, 0.1174309365069717, 0.11479812370123786, 0.11211248166762859, 0.10953655402734261, 0.10692574123237207, 0.10432966802758882, 0.10179969643113644, 0.0992772058524591, 0.09681422354696197, 0.09433193479977546, 0.09186307131376904, 0.08946763517725882, 0.08710823684261883, 0.08476303442409329, 0.082431107861948, 0.08015240885846955, 0.07791709287400003, 0.07568385871964735, 0.07345984531708966, 0.07135853841344617, 0.06918754799707383, 0.06715716764135155, 0.06508575563869551, 0.06307420388819462, 0.06111153165696014, 0.05913196363443101, 0.05725069350401355, 0.0553625258276014, 0.05358160632083794, 0.05178356400757863, 0.05003361903470796, 0.048324931098219025, 0.04663746702361063, 0.0450290815676249, 0.04343356948912108, 0.04190630480594186, 0.04037866447227794, 0.038965815759945684, 0.037526136330703716, 0.03616120453006807, 0.03478033409981387, 0.033512591467038375, 0.03227951863696455, 0.03105351914738571, 0.029925822312052645, 0.028790151128456423, 0.027736008703227837, 0.02672171224428789, 0.02571462811829254, 0.02476044607122239, 0.02386691767228262, 0.02303091780158105, 0.02223300982966843, 0.021524812290263533, 0.02078437314036338, 0.020110251236082125, 0.01950845441571528, 0.018957069121781477, 0.018404408193683386, 0.017943652281714365, 0.017464043822189117, 0.01709391685279907, 0.01677216901849132, 0.016437668067039828, 0.016196379151390244, 0.01598710281923953, 0.015834791339764672, 0.015751165787778548, 0.015676435479299793, 0.015647554857309384, 0.01564800068054881, 0.01573087392124936, 0.015855069968076854, 0.015994669442583185, 0.016183504401386183, 0.016452351645444913, 0.016751913014175123, 0.017038538022576773, 0.01746587293012301, 0.017858999582833934, 0.01831179494594301, 0.018857804555651676, 0.01941939944271037, 0.01996952708800083, 0.02064469403769566, 0.02129682975184284, 0.022029754386598665, 0.022812316818302394, 0.02360525698460731, 0.024422564020246906, 0.025320796730899778, 0.026290557135348263, 0.027255075211893062, 0.028260757775243228, 0.0292616149864435, 0.030372266392467026, 0.0315356214923157, 0.032679423256651095, 0.03388453649141441, 0.035140750131767026, 0.036392889067540304, 0.037731288615613374, 0.03906585784339332, 0.04048217721002422, 0.04189376610633754, 0.04336960063679563, 0.044831722722373867, 0.0463769890970312, 0.04796003338923009, 0.0495664264104252, 0.05121441535407507, 0.05288119136922253, 0.05455190877168066, 0.056314646988173185, 0.058085451349271094, 0.0598717908495331, 0.0617037715916544, 0.06359213360515163, 0.06549781102851251, 0.0674101908487874, 0.06936124408336973, 0.07133717040417868, 0.07335871306929698, 0.07538665424078043, 0.07747357691823993, 0.07953648153846248, 0.08171442157315284, 0.08385592764510573, 0.0860170271996216, 0.08823472743866158, 0.09049586125025044, 0.09271711676482766, 0.09504791892792835, 0.09731516466176555, 0.09968863047410956, 0.10205435880460849, 0.1044231977767266, 0.10680348298986715, 0.10926824992440984, 0.11173635992880725, 0.11421448947435789, 0.11668336868871174, 0.11919134078213263, 0.12174334057723278, 0.12431683361949128, 0.12689630884003705, 0.12953682233063055, 0.13213967663861828, 0.13479761805174212, 0.13745188154526014, 0.14018613555722761, 0.14284674389129678, 0.14557030593550646, 0.14833212988704284, 0.151104451740374, 0.1538560991730508, 0.15670340126780125, 0.15951437019617634, 0.16231998486960456, 0.16521579810709397, 0.16804165930373557, 0.170952836657002, 0.17387403566641624, 0.1767644835642811, 0.17973604065584453, 0.18270572660709872, 0.18563222160399204, 0.18866197408864077, 0.19165350711775206, 0.19469886008203155, 0.19769522918894716, 0.2007915491497508, 0.2038584432340313, 0.2069231728097759, 0.2100582907142245, 0.21312841871524496, 0.21629113480171763, 0.2194585666554267, 0.2226081146657514, 0.225756213274991, 0.2289389759693958, 0.23215842062698153, 0.23538434997021396, 0.23862192608772692, 0.2419113761451245, 0.24513051113159817, 0.24841813501455196, 0.2517383765562406, 0.25504072834429875, 0.2583345890064056, 0.26172527161931625, 0.2650674408355938, 0.26841085033394757, 0.27181969731694927, 0.27521231798872037, 0.27860701486454864, 0.28205269670951655, 0.2854966087064131, 0.28895923182417294, 0.29240371165943485, 0.2958843025793851, 0.2993818855602336, 0.3029087643585555, 0.30643550428840305, 0.3099782284385172, 0.3135433246506209, 0.31713212170972777, 0.32073748185139406, 0.32430181134125946, 0.3279307682025803, 0.3315572263238291, 0.3352178341926799, 0.3388979561776511, 0.3425385776376798, 0.3462590741162341, 0.34995018411925666, 0.35366845298222693, 0.35739643093493495, 0.36119357803647467, 0.3649543553509886, 0.3687104814869252, 0.37251849310079777, 0.37629794334220024, 0.38015055444813745, 0.38401198229409794, 0.38787613951767375, 0.39171075757199475, 0.39558312055600275, 0.3995037124340904, 0.4034397379466583, 0.4073950062247804, 0.4113255304071029, 0.41526076024113334, 0.4192599171888613, 0.42322606733897916, 0.4272254657260922, 0.4312834992533364, 0.4352786569663527, 0.43932516448691905, 0.4434014653259386, 0.44749528121287585, 0.4515816579710565, 0.45563948862295156, 0.45979672126682175, 0.4639030401096286, 0.4680259430614571, 0.47217933255896327, 0.4763772581513373, 0.4805424643120256, 0.4847218860940943, 0.4889260807142832, 0.493162326040494, 0.4973683770013652, 0.5016167525199857, 0.5058728372887692, 0.5101487295821371, 0.5144232424332227, 0.5186528056208196, 0.522977230119108, 0.5272728116414389, 0.5315520337752885, 0.5358684800397945, 0.5402021481678292, 0.5445364983839575, 0.5488967082111458, 0.553237359218801, 0.5576235004792482, 0.5619709240929525, 0.5663345571508096, 0.5707107714057245, 0.5751019001019613, 0.5794852155762077, 0.5838354219278052, 0.5882257596139051, 0.5926380515586753, 0.5970437069207323, 0.6014371471520173, 0.6058678128248243, 0.6102430903669213, 0.614647845048867, 0.6190461335193338, 0.6234611878566564, 0.6278592878104956, 0.6322456227903492, 0.6366446990267012, 0.6410534563257156, 0.6454241496993984, 0.6497821691814439, 0.6541852258324226, 0.6585302890206995, 0.6629128007200564, 0.6672904169991297, 0.6716315569545553, 0.6759442391872986, 0.6802707747430475, 0.68462897209023, 0.6888912811937363, 0.6931976614834461, 0.6974637963846826, 0.7017248637146638, 0.706018138899937, 0.7102253525288723, 0.7144352939200541, 0.7186767672807907, 0.7228071568933491, 0.7270167531995663, 0.7311378065994566, 0.7352737589793075, 0.73935843566329, 0.7434627386033856, 0.7474877067758333, 0.751531996727956, 0.7555251730514757, 0.7594992333000388, 0.7634863245410105, 0.7673727372694161, 0.771292675113623, 0.7751476585874243, 0.7789689332983954, 0.78277282493202, 0.7865814697388124, 0.7902592941705127, 0.7940109862849802, 0.7976658693983064, 0.801254753470856, 0.8048832653650122, 0.8083891671158433, 0.8118967276982674, 0.815410529226015, 0.8188011750899576, 0.8221889766750375, 0.82551670211577, 0.8288641336564456, 0.8320835297003039, 0.8352803005364168, 0.8384532296568202, 0.8415750801801511, 0.8445859552879672, 0.8476112640667471, 0.850597895995314, 0.8534969159952793, 0.8563322458211361, 0.8590941474164426, 0.8618531069553469, 0.8645349999818188, 0.8671838168042494, 0.8697230563438322, 0.8722684545048434, 0.874727283037539, 0.8770928221264666, 0.8794507364635429, 0.8817128990923588, 0.8838800009022246, 0.8860620803234756, 0.888099254583776, 0.8901644511201106, 0.8920618855052583, 0.8939874002585797, 0.8957687463451807, 0.897516384081618, 0.8991719039280542, 0.9007932931482276, 0.90233338485168, 0.9037723876889336, 0.905174586886558, 0.9064999705681867, 0.9077613197094991, 0.9088962853919048, 0.9100031997099096, 0.911031615512859, 0.9119985291681364, 0.9128764692596899, 0.91363862954926, 0.9143584319383272, 0.9150025053123724, 0.9155821766703218, 0.9160714306066655, 0.9164629313998982, 0.9168145486027577, 0.9170700855321053, 0.9172432727658859, 0.917319141947181, 0.9173285875770029, 0.9172825107508924, 0.917090665134342, 0.9168669459558804, 0.9165827007685593, 0.9161916249271742, 0.9157049619799084, 0.9151800618025132, 0.9145293271453063, 0.9138116626065746, 0.9130092890882997, 0.9121493651547763, 0.9112051547826413, 0.9101619362601631, 0.9090399314632461, 0.9078293284873727, 0.9065317058353509, 0.9051649224560392, 0.9037515022174792, 0.9021936197050952, 0.9006162582962777, 0.898945489389923, 0.897155495847402, 0.8953494756903636, 0.8933859770314602, 0.8913955938854334, 0.8893432690984492, 0.8871662669516907, 0.8849342675558636, 0.8826153669582788, 0.8802702899214829, 0.8778218531376654, 0.8752430576480181, 0.872653804812739, 0.8699956458769653, 0.8671887931122864, 0.8643854415352554, 0.8614851064759201, 0.8585352214332672, 0.8554868064182609, 0.8523488630762905, 0.8492246859929355, 0.8459309674260806, 0.8426186584923374, 0.8392380562383257, 0.8358367273047205, 0.8323263678315016, 0.8287228658509896, 0.8251105628017227, 0.8214033427146846, 0.8176493924668601, 0.8138403301715939, 0.8099622702561871, 0.8060829977016035, 0.8020725870341759, 0.7980102501227283, 0.7939194013628166, 0.7898210798021362, 0.7856210955798433, 0.7813364886623825, 0.7770442661809576, 0.7727356178034465, 0.7683191230193155, 0.7639210811706078, 0.7594066164874388, 0.7548723812034879, 0.7503637898972528, 0.745752168731602, 0.741104359233938, 0.7364172137367755, 0.7316982442478908, 0.726992408323285, 0.7221753141316678, 0.7173609159970961, 0.712573138309416, 0.7076597489704978, 0.7027572883717957, 0.6978761256208098, 0.692919904703928, 0.6879086537213221, 0.682921037625967, 0.6779066668666495, 0.6728880507677131, 0.6678546298189401, 0.6628066022168769, 0.6576850671959096, 0.6525937349376341, 0.6475136756879137, 0.6423916875724924, 0.6372993900917728, 0.6321780281576828, 0.6270043014171055, 0.6218732855602703, 0.6167502872801867, 0.6115953119184921, 0.6065073275207502, 0.6013637193199833, 0.5962221776240011, 0.5910654969646594, 0.5859452971798853, 0.5808503224551813, 0.5757777023515475, 0.57069272673649, 0.5656176337618949, 0.560516077019083, 0.5555078525261815, 0.550437713807469, 0.5454281853687065, 0.5404482950907611, 0.5354803213339632, 0.530534801089441, 0.5256534231929043, 0.5207121941389442, 0.5158764365664977, 0.5109821153089065, 0.5061948931016503, 0.5013912090676189, 0.4966588669918542, 0.4919109314828629, 0.48726198802385806, 0.48260619195877735, 0.47796970313166265, 0.4733735116719579, 0.46888039848460084, 0.4643616949432793, 0.45991761292465383, 0.4554886245076381, 0.45110173985923496, 0.4467954574333749, 0.4425497009058981, 0.4382880337678478, 0.4340888271772914, 0.42993248307604687, 0.4258570735597866, 0.4218180050878975, 0.41786823240045434, 0.413922286192483, 0.4100346692431981, 0.4061933114298961, 0.40242719217548995, 0.39869806738607066, 0.39502657008133596, 0.3914142658070189, 0.38785827472971907, 0.3843782563225985, 0.38096741488399527, 0.3775486695554387, 0.3742307087890377, 0.37102060198029096, 0.36777882196854556, 0.36469517135801893, 0.36158683589680357, 0.358563415398806, 0.3556239854353792, 0.35275075614178125, 0.34992808048167906, 0.34718662903214625, 0.3444746364221394, 0.34184349426163385, 0.3392490680096441, 0.3367454305883462, 0.33432213443261116, 0.3319172882808344, 0.32963137585845015, 0.3273792533054235, 0.3251734375241747, 0.3230553936250957, 0.3209967978823976, 0.31905425915906466, 0.3170775946499101, 0.3152416183069211, 0.313421061367793, 0.31171254355888367, 0.31001451871912494, 0.308408339669975, 0.306861382865812, 0.30541561752973545, 0.30393636332272256, 0.30258168028377946, 0.30131953290329166, 0.3000368219518923, 0.2988608186929308, 0.2977878175703862, 0.29667709365135086, 0.2956892923021717, 0.29474667236947266, 0.29385640816991315, 0.29308032500626136, 0.2922842013171719, 0.29156583550361304, 0.29092335201370434, 0.29029148315963865, 0.2897208156483989, 0.2892340718904133, 0.2887926454291142, 0.28842714353840193, 0.2880292785913726, 0.2877709590197202, 0.2874960477052629, 0.2873149151059773, 0.2871392438030423, 0.2870214670125573, 0.2869845993119282, 0.2869540639962637, 0.28695421940060944, 0.28707868037635065, 0.28716500260903777, 0.28728003859476114, 0.28746958684241897, 0.2877115711158068, 0.28796435723098357, 0.28823426073136543, 0.2885918797547494, 0.2889488617720634, 0.2893406544591769, 0.2897364578812725, 0.29022050978411684, 0.29069542441153623, 0.2911568121357624, 0.2917004816405034, 0.2922620541858658, 0.29284566412385316, 0.2934799959140514, 0.2940590647901073, 0.2947084952637208, 0.2953700500621746, 0.2960549273230997, 0.2967524352850946, 0.29747157870888213, 0.29821280574976644, 0.29893208088767825, 0.29963385235324763, 0.3004125991715914, 0.30120706074732484, 0.30195839012437065, 0.3026960052911669, 0.30353369755632026, 0.3042648883298112, 0.3050693011533964, 0.3058450781743403, 0.3066418246355715, 0.3074450766724319, 0.30819540283389385, 0.3089681773165166, 0.30973224625731766, 0.3105321123338807, 0.3113052192493232, 0.3119999166231727, 0.31278131767641626, 0.31346525953133125, 0.3141800835718654, 0.31490077706022046, 0.31557620883631393, 0.3162678820321535, 0.31689981304719533, 0.3175361982211985, 0.3181292744654374, 0.3187612084273119, 0.31928888897831376, 0.31988095805223304, 0.32036794611774067, 0.3208691285441396, 0.3213632793031128, 0.32178229014023363, 0.3222226640712205, 0.32263395744689266, 0.3229834291650025, 0.3232937799191463, 0.32358784986018246, 0.3239085588138556, 0.32413033126770563, 0.32431545661267985, 0.3244698495409056, 0.32460460795779966, 0.32471598045699346, 0.3248035874373398, 0.32480955908072673, 0.3247946276025782, 0.3247492360724919, 0.3246180842119865, 0.32451228365988133, 0.32433905838404997, 0.3241328800554477, 0.3238351411930738, 0.3235814080704913, 0.32322871552786114, 0.32281216600512397, 0.3224063837307991, 0.3219317934555725, 0.3214335574752816, 0.3208543655729243, 0.3202629089751701, 0.3196310459673738, 0.3189267842010854, 0.3182077858646952, 0.31737528020250705, 0.31657188932185204, 0.31571245866357245, 0.314734488982745, 0.31380511246094733, 0.31274436781111786, 0.3116824132677576, 0.31062333357941524, 0.3094654110538566, 0.30824361653080556, 0.3069722975369352, 0.3056953920214896, 0.30434607535566305, 0.302984517430313, 0.30152765489871247, 0.3000385318345912, 0.2985756791602486, 0.2969854974456697, 0.2953792955636255, 0.29371711677761864, 0.2919814177271828, 0.2902408504536388, 0.2884880512184218, 0.28665140290475394, 0.28479004772884103, 0.2828761139403407, 0.2809070904873036, 0.2789121165275148, 0.2768428057224826, 0.27480994954740423, 0.2726818152481964, 0.2705112628932091, 0.26831330776382817, 0.26610813940799266, 0.2638640018400175, 0.26155783732496746, 0.25917733937612847, 0.2568470766704436, 0.25440013341498846, 0.2520046694549263, 0.24951837055932424, 0.24703356720033506, 0.24445535035195068, 0.24194282405276832, 0.23930615230361357, 0.23670347861243554, 0.2340810825798076, 0.23138338929819388, 0.22867072186702556, 0.2259796556706987, 0.223203992415515, 0.2204724556583265, 0.21764363645027643, 0.21486610340216955, 0.21204158986092914, 0.20915755541927414, 0.20633409271667863, 0.20344975833406245, 0.2005204559138055, 0.1976406239408316, 0.19470517360184156, 0.1917557209394163, 0.18884351547986847, 0.18583306080806122, 0.18291963652131965, 0.17993883562857388, 0.1769664315243701, 0.1739750675576848, 0.17094728259250475, 0.1679666764108161, 0.16499241275050033, 0.16194669734027717, 0.15897597111214617, 0.15598265821161167, 0.15296979346814052, 0.1500170646870226, 0.14700066596862496, 0.1440233602303799, 0.14108336464393903, 0.13809561492832562, 0.13510132282214599, 0.13217387908666994, 0.12925645318378998, 0.12632179371463506, 0.12336741593954552, 0.12051196989165537, 0.11759560446506316, 0.11475768232820573, 0.11189622874830034, 0.10903776317822, 0.1062251779274505, 0.10344695338462728, 0.1006758726670774, 0.09790325699024309, 0.09518588619764226, 0.09251403837191036, 0.08980813155407377, 0.08714063866918091, 0.08455549193108018, 0.08191844877054905, 0.07937099971300395, 0.07685406178086603, 0.07433322516130864, 0.07180600585109406, 0.06938025706737912, 0.0669602612200771, 0.06462755879978559, 0.062239166465024545, 0.05995670067801887, 0.05765722680297878, 0.05540863389918736, 0.053216535810057926, 0.05107292695230907, 0.04896970633793192, 0.04688693254605676, 0.04478824439457614, 0.04284117736611358, 0.04084228097582077, 0.03891290716969536, 0.037069842274947085, 0.03520166383732941, 0.033416575486044826, 0.03170207455049333, 0.03000028643323567, 0.028324143267964123, 0.026717902579008922, 0.025118299992067442, 0.023619113616113897, 0.022103218250854158, 0.020678414835528725, 0.019317590495380486, 0.018010674412862956, 0.016683010807001658, 0.01543665342155571, 0.01424646307174568, 0.013127122319395714, 0.01198633358461691, 0.010995178488821752, 0.009982119986496226, 0.009006372179813206, 0.008071105033744997, 0.007243733217931617, 0.006413444336703167, 0.005650592485570985, 0.00496006445962812, 0.004279652739625805, 0.0036647955662663574, 0.003095361890014531, 0.0026138032831552267, 0.002095998339592718, 0.0017054844289563294, 0.0013249117321564145, 0.0009639861070237652, 0.0006739007237845529, 0.00044399050212371073, 0.00027910115925405425, 0.00015181379441894262, 3.076942681918516e-05, 0.0, 3.3023231796173185e-06, 8.504992283583887e-06, 9.877230358423029e-05, 0.0002385248959239182, 0.0004018760004285449, 0.0006569933523391237, 0.0008885586856510553, 0.0012157851125306819, 0.0015192203045375162, 0.0019346694008733761, 0.0023537704276181117, 0.002830135275885613, 0.003375600621253614, 0.0038749540730702906, 0.004476527272068394, 0.005148790635912046, 0.0057973460430319635, 0.0065231943586181226, 0.00724727801953046, 0.007999235362347736, 0.008829744945458382, 0.00968183415798521, 0.010555642078377846, 0.0115212149372836, 0.01242867876365649, 0.013446055020947463, 0.01442892383679347, 0.015520931045177778, 0.016555862987156774, 0.017681428854850276, 0.018825256085350624, 0.01997897514761748, 0.021201479981378397, 0.022408209917348442, 0.023701300328093287, 0.024939612172777705, 0.026235556385991152, 0.027597898834714127, 0.028921188962481102, 0.030289386594839367, 0.03169811466925237, 0.03312883182256732, 0.03453526810399393, 0.03601841237372001, 0.03750161327796223, 0.03898943059209904, 0.040473586196187565, 0.0420483029272551, 0.04357384553834692, 0.04512405930170841, 0.046750872028522086, 0.048304183446239865, 0.04992224116137881, 0.05154217168886941, 0.05318224254107694, 0.054863708818952354, 0.05652436280987295, 0.05817095396943473, 0.059835992756299514, 0.06152665462793704, 0.06322057276197952, 0.06496823808682704, 0.06663562561807242, 0.06835623513452631, 0.07008220226387091, 0.07184709217208135, 0.07355789062495552, 0.07533550629273261, 0.07704404462097042, 0.07883364055172601, 0.080580908965766, 0.08230316034171399, 0.08406654868622372, 0.0858710505084474, 0.08759668135800731, 0.08940579707340883, 0.0911375237108943, 0.09289890034574302, 0.09468170632303598, 0.09646532966046004, 0.09823545877153513, 0.09995956344588698, 0.10176121070348755, 0.10353315716584718, 0.1052608809038944, 0.10702086731128714, 0.10876843676431823, 0.1105520372108654, 0.11231051598992933, 0.11403607576497164, 0.11578491937636025, 0.11753399696192084, 0.11926506699865423, 0.12098153752558091, 0.12276350438591327, 0.12444075116460412, 0.12620385033820528, 0.12794317554629236, 0.12961138487020177, 0.13136549862631003, 0.1330653481339504, 0.13475772924177679, 0.13648362875917375, 0.13817844416320849, 0.1398403927439839, 0.14154172677957896, 0.1432527885599018, 0.14492048308145827, 0.14663376790231475, 0.14827328103374504, 0.14996197649234763, 0.15164542874711778, 0.15332643496302087, 0.15498827511427418, 0.1566897864782921, 0.15833602257431434, 0.16004035361979335, 0.1616984922190586, 0.1633299805469758, 0.16504231634619895, 0.16668763476102072, 0.16834122687045458, 0.17001511813295167, 0.171735362971541, 0.1733763682543412, 0.17505084117741676, 0.17674206990377325, 0.17844950791361056, 0.1801550658145111, 0.1818349450853879, 0.183540676684844, 0.18521596961547224, 0.18693133370742177, 0.18867506840802667, 0.1904324695103242, 0.19213365734219595, 0.19390597485064956, 0.19564733548522648, 0.19742963650158923, 0.19919824951659496, 0.20095942544049272, 0.20278922931652646, 0.2045918130545959, 0.20645491616990433, 0.20825247215658216, 0.2101572229502022, 0.21197577837584575, 0.2138678189854533, 0.21581182432520613, 0.21772735026479853, 0.219660738735893, 0.22159913501496212, 0.2235941295954538, 0.22558239948726988, 0.2276069465172659, 0.22967614568824593, 0.23174379571061932, 0.23380558224069103, 0.23593561516536485, 0.23805898717489685, 0.2402155396169584, 0.24240447227273024, 0.24461534341457689, 0.2469007166857397, 0.24914245670331922, 0.25142726797550724, 0.25378562681560884, 0.25615402903137824, 0.25851521844067016, 0.26094798025069155, 0.26338737853934474, 0.26588032325527333, 0.26841895035917107, 0.27098523700700144, 0.2735558908431852, 0.2761545655569978, 0.2788166207365368, 0.2815529408557676, 0.2842940172793536, 0.28702964960735283, 0.28987501866403714, 0.292685046898865, 0.2955730490743287, 0.29854081343744304, 0.3014815215405753, 0.30448092872496174, 0.3075371800437667, 0.3106598199401995, 0.31373221938634693, 0.31694794655959946, 0.32013026826458224, 0.32343302215413305, 0.32672986818996486, 0.3300644350341178, 0.33345248919627446, 0.33686821998834554, 0.34034358419235317, 0.3438780300744709, 0.34744237511347886, 0.3511061785215544, 0.35472786031411047, 0.3584246861875485, 0.3621644651854524, 0.36598957004173516, 0.36982516769161183, 0.3736711997001607, 0.37761646622468387, 0.38158315961979605, 0.38562222057553, 0.3896751269314255, 0.39380875004457483, 0.3979906487993343, 0.4021549692787722, 0.4064380568661505, 0.4106890226857841, 0.41507119500878903, 0.41940928056194815, 0.42387694991957653, 0.428320950861597, 0.4328636714532666, 0.43738219574452575, 0.4420108503717291, 0.4466298836132032, 0.4513691446814655, 0.45604087990095926, 0.46084022406954694, 0.46564385549779636, 0.47049719592471595, 0.47538052523402524, 0.48030611396929307, 0.48525400726882795, 0.49027532703885945, 0.49531089692427793, 0.5004095169029806, 0.5054877718238231, 0.5106242766811409, 0.515806823945807, 0.5210210899014573, 0.5262913446095311, 0.5315600352574797, 0.536848707514859, 0.5421863740751298, 0.5475474409630556, 0.5529753149074079, 0.5583436313408845, 0.5638099912330786, 0.5692454277292117, 0.5747507271094737, 0.5802683301572543, 0.5857878697486082, 0.5913770135627419, 0.5969175447351975, 0.6025069204625164, 0.6081312066455362, 0.6137307188013068, 0.6193986792399608, 0.6250096355108559, 0.6307066301589168, 0.6363605741468011, 0.6420454144267672, 0.647698955064316, 0.6534189529801785, 0.6591083274993551, 0.6647922120335098, 0.6705073964817223, 0.676209677955604, 0.6819011507246712, 0.6876275805068544, 0.6933137811696343, 0.6990104048399217, 0.704653751883618, 0.7103151221655353, 0.7160264739396164, 0.7216783273674459, 0.7273095605197536, 0.7329259037656116, 0.7385217749195134, 0.7440949109189016, 0.7497090791004447, 0.755209069201694, 0.7607817215503829, 0.7662682050232916, 0.7717316409988741, 0.77716144124215, 0.7826018688536239, 0.7879659525320504, 0.7933578680337184, 0.7986605662042872, 0.8039182222543239, 0.8091763103464863, 0.8143832666388326, 0.8195738733362717, 0.824672442574654, 0.8297843248554204, 0.8348019536730108, 0.8397718860673774, 0.8447409396573382, 0.8496010668526882, 0.8544345127687294, 0.8592114835787181, 0.8639444995609965, 0.8686346034224648, 0.8732417323429124, 0.8778156882376426, 0.8822675418786461, 0.8867175037005101, 0.8910412840275784, 0.8953624927001451, 0.8995770585523226, 0.9037817922012739, 0.9078664612839589, 0.9118428751221036, 0.9158253623345419, 0.9196599353792522, 0.9234848083814167, 0.9271968037783759, 0.9308481186891754, 0.934387057187367, 0.9378586574474251, 0.9412433423087738, 0.9445540500273373, 0.9478132643972811, 0.950944025260236, 0.9539877502503826, 0.9569334362499669, 0.9598173374780031, 0.9625943589560362, 0.965269674104452, 0.9678696576380318, 0.9703502034114725, 0.9727845730140354, 0.9750904389987356, 0.9773223452007687, 0.9794322838128505, 0.9814323725402371, 0.9833514263278827, 0.9851574873586131, 0.9868965837857261, 0.9884655055156671, 0.9899968578406417, 0.9913918980286859, 0.9926875337381207, 0.9939118915378328, 0.9950043067850137, 0.9959365735503124, 0.996828355013699, 0.997629023780635, 0.9982967260015856, 0.9988119266527004, 0.9992832434528354, 0.9995990447778208, 0.9998751391245745, 1.0, 0.9999896323654063, 0.9999064253746955, 0.99969883734462, 0.9993562710257791, 0.9989480492989068, 0.9983932335960276, 0.9977488659886454, 0.9969977409862797, 0.9961370947841062, 0.9952035374668975, 0.9941231948559217, 0.9929122000644783, 0.9916068796102976, 0.9901935413514311, 0.9886688893778529, 0.9870468733559032, 0.9853501470104324, 0.983481030696883, 0.9815349250645005, 0.9795309518028283, 0.977363238969262, 0.9751005086029675, 0.9727533090014896, 0.970260777090006, 0.9676722404304821, 0.965016803955188, 0.9622496522443407, 0.959385343438544, 0.9564531832345179, 0.9533894210136917, 0.9502026261108389, 0.9469021456030964, 0.9435882438731634, 0.9401316030885617, 0.936551964118828, 0.9329239856270063, 0.9292168909806697, 0.9254046085044678, 0.9215144832216341, 0.9174924270549426, 0.9134088163650029, 0.9092766112972969, 0.9049969369078037, 0.9006936171411056, 0.8962654997991857, 0.8918030375186017, 0.887229923202213, 0.8825715492802376, 0.8778687710478017, 0.8730703002762209, 0.8681691191975157, 0.8632687474472467, 0.8582346503236854, 0.8532144482856416, 0.8480506025220241, 0.8428734759491324, 0.8375943770675893, 0.8322918308471108, 0.8269209885484523, 0.8214663479801645, 0.8159905328472257, 0.810420857746609, 0.8048525692526927, 0.7992035843936078, 0.7934806599523356, 0.7877497146349535, 0.7820051634679192, 0.7761785526659615, 0.7703031912792422, 0.7643720124508816, 0.7584726749055624, 0.7525038399809659, 0.74646757424788, 0.7404500663752368, 0.7343864174631236, 0.7282958342306776, 0.7221520686798195, 0.716063785279765, 0.7098622842349313, 0.7037208333011916, 0.6974980065452335, 0.691283917577622, 0.6851071777460679, 0.6788653393101493, 0.6726116346155743, 0.6663333180540706, 0.6601372312560291, 0.6538606223251984, 0.6475705903265614, 0.641366302289529, 0.6350803752067818, 0.6288169753093166, 0.6225711872262021, 0.616345233791568, 0.6101790681076873, 0.603919881476951, 0.5977246030488614, 0.5915568741911464, 0.5853792181662951, 0.5792775370212359, 0.573118930341472, 0.5670380439880828, 0.5609790761296195, 0.554940528924889, 0.5489107006631955, 0.5429066741792052, 0.5369945331185699, 0.5310732172357568, 0.5251849323933375, 0.5193589520642982, 0.5135489499898874, 0.5077438557690354, 0.5020358933102969, 0.4963499135325424, 0.4907672113123503, 0.48515250833638607, 0.4796087156074654, 0.4741155774705024, 0.4687301257284774, 0.46330865933768794, 0.45800036833070107, 0.45274447800809675, 0.4475333548375611, 0.4423201793037918, 0.4372699134053546, 0.43221177497840496, 0.4272244662716064, 0.4223144281438136, 0.4175005938785098, 0.41269706932665884, 0.40796736808125517, 0.40332093458932283, 0.3987466463937521, 0.39423786405203964, 0.38978139353547764, 0.3854342445018185, 0.38114539849266993, 0.3768866950103441, 0.37273193470449406, 0.36867013016778327, 0.3646501170000303, 0.36072532751915276, 0.3568870643807074, 0.353120807487816, 0.3494038028745147, 0.34577888147778724, 0.3422377925587347, 0.3388126417368906, 0.335439162690161, 0.33212601299292216, 0.32890715181880065, 0.325723250591067, 0.32268594961863134, 0.3196862021428047, 0.31679320640547076, 0.3140154432918173, 0.3112754286678281, 0.30861570170207697, 0.30601670488747085, 0.3035158763187219, 0.3011526695168794, 0.2987789105954528, 0.2965526118231008, 0.29439784251137346, 0.29227846494119586, 0.29027766194205684, 0.28835839958841447, 0.2865011370618721, 0.2847497286642165, 0.28307894048716653, 0.28143267667137156, 0.2799456225425565, 0.2784633306529956, 0.2771180151162694, 0.2757807292609492, 0.27459073710151327, 0.2734339601122048, 0.27231155976559446, 0.27133363120949866, 0.2704080279418116, 0.26956938094563876, 0.26881259286641257, 0.2680881351827332, 0.2674470633513769, 0.2668892450592756, 0.26636068242136807, 0.2659315789386968, 0.2655743283168946, 0.26528977560768396, 0.26502649807413725, 0.26483755955720334, 0.2647578969268632, 0.2646781696945163, 0.26470204560245475, 0.26478722078637423, 0.2649116002656263, 0.26510623431447805, 0.26529768608417087, 0.2655980959059955, 0.2659720458036194, 0.2663846305995239, 0.26678930102445, 0.267338047672511, 0.2678720823469988, 0.268460337754696, 0.2690963435875636, 0.26974139608681963, 0.2704732594014655, 0.2712355194964681, 0.2720551050604468, 0.27288020956851344, 0.27376008639515453, 0.2746769140036719, 0.2756525140342771, 0.2765869728103491, 0.2776345378447452, 0.27863978558662955, 0.27970523794646585, 0.28079389626581047, 0.28191705347976065, 0.2830809267037476, 0.2842302709750233, 0.28539026481981955, 0.286636986386637, 0.28785406256953766, 0.28903575975445056, 0.29033054703011063, 0.29155372075864294, 0.29285570472335554, 0.2940941611110661, 0.2953872617276176, 0.2966756046715001, 0.2979878704243268, 0.29928859755602516, 0.300623133628395, 0.3019067119708062, 0.30319967439130036, 0.30451045246936675, 0.3058383893168757, 0.30711639707895916, 0.30837482653979575, 0.309647962181875, 0.3109218284668285, 0.31221312848786026, 0.3134216571201034, 0.31465125459162663, 0.3158527076274822, 0.31709531388931356, 0.3182260922081402, 0.31942228158306385, 0.32056079076270366, 0.3216406573736011, 0.3227463708620346, 0.323835032826228, 0.32484109098305247, 0.3258671715783174, 0.3268821856787086, 0.3278313099832149, 0.3287454385794464, 0.32967120035367453, 0.3305295907672679, 0.33135622248747976, 0.3321597423561405, 0.3329313174278561, 0.3336108168692107, 0.33431405472803666, 0.3349639528988262, 0.33556819158457313, 0.33613817355353964, 0.3366892972433993, 0.33716805049158094, 0.33759517280235074, 0.3380125383509513, 0.33836516596253885, 0.33864411729006944, 0.33889784481552054, 0.3391473071254037, 0.33930405044870404, 0.3394525684984407, 0.33951875984023006, 0.33951321116992106, 0.33950621982933227, 0.33942106780494075, 0.3393070657634485, 0.3391515759963431, 0.3389079181715842, 0.338634489938428, 0.3382768514736954, 0.3378883974766177, 0.33749769200069735, 0.3369942485333687, 0.3364273897670601, 0.3358308247145252, 0.3351956092377666, 0.3345272232681952, 0.33378025724570715, 0.3329653426495253, 0.3320645678266546, 0.33119836232340233, 0.330181489452764, 0.3291762296672945, 0.3281203120803878, 0.3269938583257331, 0.32584160044441696, 0.32456829766384826, 0.32331049925058747, 0.3219437572318425, 0.3206040264612551, 0.31911936995649814, 0.3176437462224721, 0.3161284142788092, 0.3145066792466464, 0.3128781382181331, 0.3112078842221178, 0.30944214599999004, 0.30766146311723314, 0.3058390914114968, 0.3039232363996665, 0.30203923031438296, 0.3000230286005522, 0.29803933811044325, 0.2959700289370449, 0.29385684766973996, 0.2917138261935113, 0.2894933729045911, 0.28727247188711635, 0.28498431954166903, 0.28266808970459517, 0.280326472141546, 0.2779331333497325, 0.2754729685101257, 0.27304895811464214, 0.27051750007487396, 0.2679588748857655, 0.2654253520466141, 0.26277974777097546, 0.26016881382256324, 0.2574657356166122, 0.2548221993383803, 0.2520780161927636, 0.24928620454518857, 0.2465433550109785, 0.24370056104421842, 0.24090785901183864, 0.23803383529600664, 0.23515555549147318, 0.23227459938411607, 0.22932886833657, 0.22637766504681073, 0.22345731670815314, 0.22045531663646403, 0.2175036446215925, 0.2144640993825279, 0.21145447432829687, 0.20843553269868204, 0.20540728987336893, 0.2023523302831398, 0.1992782397431294, 0.1962477292757714, 0.1931474644968481, 0.19008047538296508, 0.18701467020700085, 0.18392593954413403, 0.1808847116857417, 0.17780184323787207, 0.17470603886672698, 0.17160520358424827, 0.16854123029657642, 0.1654823547520681, 0.1624108025029989, 0.1594042542292109, 0.15631042166382184, 0.15330646515121693, 0.15028428110608988, 0.14724984437126573, 0.1442798807200242, 0.14126172580857502, 0.13830709117833387, 0.13534542944913724, 0.13242965414887878, 0.12953812765427294, 0.12663782573734975, 0.12375068016940416, 0.12093470628935735, 0.11811759319013312, 0.11528323782996946, 0.1124940394338111, 0.10978711642644827, 0.10706327336398155, 0.10435655634858515, 0.1016822788430807, 0.0990462152191819, 0.09642907760834592, 0.09386278574999143, 0.09137049809850635, 0.08887879093132843, 0.08637325904226538, 0.08392851060755947, 0.081584381703528, 0.07922170778441578, 0.0768909877844308, 0.07458888463553404, 0.07236882501779704, 0.07017878182075067, 0.06801141197049705, 0.06589793887598273, 0.0638031552962278, 0.061785010141274486, 0.059810298040581765, 0.05783789374368477, 0.055973420184271344, 0.05411531830595691, 0.052289012516087995, 0.05054843934244511, 0.04882699714814512, 0.04716054774887335, 0.04557224182265654, 0.04399053888699998, 0.042434245021122405, 0.040980587039852585, 0.039579035475610445, 0.03820470006675947, 0.036843739270886924, 0.03562613053331471, 0.034383940092568614, 0.033226201435664245, 0.03206515910787988, 0.030988858941902255, 0.03000304187139018, 0.029062088540875306, 0.028137312805446676, 0.02726350300883015, 0.02641364145799107, 0.02567619550943936, 0.024990139797987167, 0.02432264015632616, 0.02370985999125042, 0.023158188409946465, 0.02265599135982886, 0.022190557572871798, 0.021801994123619436, 0.02145521283888185, 0.02113105081400929, 0.02085270488491149, 0.02067571627552108, 0.020535114060581252, 0.020446047906242423, 0.020344617599170094, 0.020344334408294973, 0.020393747105641513, 0.020531707931280813, 0.02061435218350013, 0.020835013527140886, 0.021067601005054577, 0.02131744298538104, 0.021656462917810985, 0.021996167861541727, 0.022471712562364635, 0.022906442315772768, 0.023396857140389783, 0.023951656944985834, 0.0245211405800673, 0.02519249806344097, 0.02582785081803193, 0.02654771415585783, 0.027310039402651018, 0.02815433534406132, 0.028987620472397592, 0.029819005375014904, 0.030734131400528712, 0.03168039953668422, 0.032707795610150504, 0.03372589123028622, 0.034772902388671985, 0.035891022086802386, 0.037006410020862086, 0.038177605088917876, 0.039320972619164916, 0.040565023663999625, 0.04186704773083647, 0.0431456388018032, 0.04446550246147485, 0.04583030000544618, 0.04717112649316134, 0.048580776603448506, 0.05000345754654352, 0.05149440089665489, 0.052956948320817196, 0.05448994869328008, 0.05603289756709654, 0.057526920285940704, 0.05913771896757871, 0.060742446864617945, 0.062370950621641566, 0.06396344143449123, 0.0656388986139519, 0.06732731197594977, 0.06899469558852658, 0.07072383015642407, 0.07246751549400329, 0.07421631825243111, 0.07592840016613629, 0.07771349185704357, 0.07950134150979588, 0.08129496432080727, 0.08309418651752445