0.03352885618652338, 0.03343025746778835, 0.03338470797473133, 0.0332927152048742, 0.03328506885378745, 0.03329225907473817, 0.03331782651494023, 0.03334266585560577, 0.03338369598885494, 0.033407656107340096, 0.03345801997818744, 0.03352099049498667, 0.03359714645760225, 0.03363015833312359, 0.03372446804271625, 0.033788507603293265, 0.033881051444037795, 0.03395701519979192, 0.0340741195761421, 0.03412573952158237, 0.034222756198310944, 0.03433086883641805, 0.03441214638088007, 0.034515638887640594, 0.03464181121011415, 0.034748112912834625, 0.03486726688058649, 0.03497701581181026, 0.035110656124706804, 0.03520703018461064, 0.035352376770533954, 0.035502083685875055, 0.035668802654451215, 0.03580010949362682, 0.035969018887062706, 0.03617422778404035, 0.036324435791797345, 0.036525321424327906, 0.036742227638408995, 0.03693693426742541, 0.03713282217702598, 0.03738410831697311, 0.03759883331311521, 0.037841336051927424, 0.03808511980301909, 0.03833544002926896, 0.03864734501699489, 0.03892423974329289, 0.03920602592889025, 0.03950608163768342, 0.03986200623621315, 0.040186197212374715, 0.040523800456901286, 0.0408904877413793, 0.04126822025469431, 0.04162285169839149, 0.04202619141483665, 0.042441133364743484, 0.042868342610427566, 0.04327030985841223, 0.04374687443089955, 0.04421225098416683, 0.04467797528140303, 0.04516917785967842, 0.04567077073329949, 0.04618586957524045, 0.04673135434793843, 0.04728382879752765, 0.047841753466732966, 0.048422601879806536, 0.04899046847285002, 0.049634160738655904, 0.05023959393848343, 0.0509110858687327, 0.05157503521331975, 0.05221909313983474, 0.052953946966458124, 0.0536461923394763, 0.054355994382499884, 0.055089277572156224, 0.055879714998770695, 0.056658448910628996, 0.05744629589838604, 0.058282660024107404, 0.059125394432456235, 0.059947602090907305, 0.06082942363198601, 0.061739291022773014, 0.06263047709792992, 0.06358486827256006, 0.06455348727484936, 0.06552221533299436, 0.06650562607652745, 0.06748555785136387, 0.06853718763920942, 0.06960925408480645, 0.07067793780986997, 0.07179161412377237, 0.07289003671328528, 0.07401994763673811, 0.07520173164388248, 0.07639950423888724, 0.07761088794746851, 0.0788368614060531, 0.08007879509871274, 0.08135584205588732, 0.0826566478339666, 0.08399237781632372, 0.08532758044960087, 0.08669767678982132, 0.08807793851730991, 0.08950195047899519, 0.09096835280626767, 0.09243940001045321, 0.09392579481097572, 0.09542591443107297, 0.09693957786961233, 0.09851299788242729, 0.10010821388609062, 0.10173465377163822, 0.10335764792115001, 0.10502662035067034, 0.10673763473816833, 0.10839910782072713, 0.1101429488113511, 0.11192985286531544, 0.11371482883210954, 0.115540345232249, 0.11734251295191123, 0.11923919612925173, 0.12108453825485316, 0.12301572372819532, 0.12494960995614035, 0.12690550335814113, 0.1288915366786582, 0.1309297589362727, 0.13296498134119528, 0.13500884271864524, 0.1370816247545309, 0.13921305416112675, 0.14134737769804295, 0.14353404664129413, 0.14567733858639967, 0.1478947933296108, 0.15013322301668577, 0.15236538752212553, 0.15464043225236174, 0.15695164239515288, 0.15928345736583238, 0.16161641591840775, 0.16402395445375023, 0.1664042157580363, 0.1688059685410761, 0.17124534727773844, 0.17371405656646957, 0.17620377398077136, 0.17871782600121816, 0.18123766198180824, 0.18376703010020054, 0.18632048058714845, 0.18892525171343535, 0.19151144924362531, 0.1941708001330231, 0.19680329824563061, 0.19948237489628964, 0.20214578948905707, 0.2048385930717788, 0.20754636399364423, 0.2103044179147028, 0.21303700953352633, 0.21583163490786594, 0.21862811932404552, 0.22141130138244167, 0.22421666238054686, 0.2270438358710798, 0.2299354818668435, 0.23275833718791694, 0.2356504053913263, 0.23853138116547612, 0.24144899370144246, 0.24431854683382878, 0.24725586453230106, 0.25021521150353876, 0.2531093796015966, 0.2561119393543394, 0.2590555286588648, 0.26202543680364365, 0.2650189663055453, 0.267986633543994, 0.2710024474940622, 0.2740225102165819, 0.27698453284898755, 0.28004839604816456, 0.2830296321880255, 0.28605646910216054, 0.28911292535204836, 0.2921149628367624, 0.2951600650307634, 0.29816202978115186, 0.30122638167679516, 0.3042521415025776, 0.30725971661367896, 0.3103241987196134, 0.3133547224352168, 0.31636534390708204, 0.319428271396495, 0.3224088889506645, 0.32544174521288666, 0.3284412419170407, 0.33147431190142257, 0.33446729508613743, 0.33745494057795855, 0.34041310711461303, 0.34342702778037404, 0.34635183617423587, 0.34933885535788073, 0.3522623243919616, 0.35520156936146535, 0.35813175071338793, 0.36099872835768787, 0.36391090423472283, 0.36677196242723814, 0.36965230206703614, 0.3724960845972605, 0.37531929912777207, 0.3781279816881786, 0.38089779999923357, 0.3836710418205913, 0.38642182280671267, 0.3891401860965652, 0.391888754661466, 0.39454149458475385, 0.39719829867844586, 0.3998229347302968, 0.40245605220241815, 0.4050541447933533, 0.4075820116398671, 0.4101340019430118, 0.4126208297268941, 0.41507904296593523, 0.4175406699737063, 0.41995014666178915, 0.42231249691817074, 0.4246915760526623, 0.42697488614883355, 0.42925012195742457, 0.43154139953044546, 0.4337046218685224, 0.4359040408355117, 0.43803342341035, 0.4401581503679705, 0.4422403708701724, 0.44425139616856574, 0.4462247814151147, 0.4481948777967722, 0.4500891708325457, 0.45196950103700634, 0.45377736326583384, 0.45556660478559824, 0.45730045588663704, 0.45899999229299804, 0.4606124367453591, 0.4622269350318313, 0.4638227364474937, 0.46529841691641716, 0.4667752891080602, 0.46816673755424604, 0.46956630620273315, 0.4708819225433935, 0.47212179362967455, 0.4733870667114162, 0.47449343555104617, 0.4756288941098937, 0.47672246033604443, 0.47771817439290326, 0.47868275462547116, 0.47959018522909824, 0.4804589629908427, 0.4812606103320147, 0.4820160671434699, 0.4826883427165105, 0.4832970047872139, 0.48389688642641776, 0.4844266207043949, 0.48489544834801973, 0.4853006316698076, 0.48564752813299644, 0.48598020266446407, 0.48621477067881586, 0.4863971338495508, 0.48650398043873655, 0.48657940062344174, 0.48657303547081926, 0.4865617391849182, 0.4864434280137403, 0.4862627993824559, 0.48604761472139446, 0.48574648334273657, 0.4854051328511137, 0.4849775337490815, 0.4845599304285727, 0.4840162291295126, 0.48343985520221916, 0.48281632281242004, 0.4821014147631487, 0.48136265332517003, 0.4805292295931409, 0.4796097311124761, 0.47867307867596665, 0.4776870344155599, 0.47663449792049556, 0.4755208630191171, 0.4743697337310273, 0.4731143996272468, 0.4718459811404276, 0.4704598022770506, 0.4690575101130878, 0.4675978376963653, 0.46605422021541887, 0.46450439412370476, 0.46283507299981086, 0.46117558536930997, 0.459398433336252, 0.4575925040487712, 0.45570777533150203, 0.45379604039854543, 0.4518238837431581, 0.4498370643491046, 0.4477468508976817, 0.4455862032115727, 0.4433718812276022, 0.44117738961797853, 0.43888265898874107, 0.43651430309268735, 0.43412175072384274, 0.43169176970832746, 0.4292281283726632, 0.4266347178144976, 0.42404911072715573, 0.4214066495521809, 0.418721214655816, 0.41603011740842993, 0.41321298859889305, 0.41041891257631485, 0.40752034273699, 0.4046474585884333, 0.40165932957771655, 0.39869518044909197, 0.39563820511483555, 0.3925763014176497, 0.3894740750821207, 0.38628852084020315, 0.383094950529057, 0.3798987589838425, 0.3766137017713627, 0.37331758229103496, 0.3700074505386913, 0.3666372435741393, 0.3632184916609454, 0.3597786819491108, 0.3563357006875761, 0.35285321070458736, 0.34931575165756057, 0.34577475633851457, 0.34222980345401766, 0.33861326036077627, 0.3349997238319133, 0.33134718883202696, 0.32769711303212556, 0.32400190562956815, 0.3202917535834429, 0.3165454470522809, 0.31279795394853704, 0.30901892087382515, 0.3052365508237582, 0.30146234912386294, 0.2976680679979767, 0.29385951118478393, 0.289973499895915, 0.2861256984911877, 0.28228686761812793, 0.27845553824761865, 0.2745582986270569, 0.2706779985561949, 0.2667960360368782, 0.2628907352899576, 0.259025208017807, 0.2551324897150533, 0.25123684744242225, 0.24733174554769768, 0.24344168714981754, 0.23954810633712822, 0.2356616119248167, 0.23179614975436721, 0.2279109780805077, 0.2240554710383036, 0.22021082409760298, 0.21635605462567675, 0.2125231629345369, 0.20867282644936244, 0.20483951744540413, 0.20104041346290888, 0.19725179528886502, 0.1934903420911204, 0.1897571272676777, 0.18599176818358482, 0.18227714381017068, 0.17858463332675678, 0.1748896995450973, 0.17124101860890042, 0.1676295202783265, 0.16398717167590865, 0.1604005789683579, 0.15684576487784924, 0.15333234965731907, 0.14983734813203403, 0.1463382483445593, 0.142863648153809, 0.13945322540977798, 0.13610250758721362, 0.13273350166687323, 0.12939609280095413, 0.12612416919577085, 0.12289170486130248, 0.11963358469728737, 0.11646398812374131, 0.11334460548130557, 0.11020583146361276, 0.1071637980482416, 0.10415508979957366, 0.10111543684943862, 0.09818714028310922, 0.0953091862968439, 0.09242932242549286, 0.08962708659716033, 0.08683858438372836, 0.08412367925361636, 0.08140259680970402, 0.07877591032522867, 0.07619219196133509, 0.07365202073222613, 0.07114797395574554, 0.06870847709272407, 0.06626827100228845, 0.06390123618777795, 0.06163747674719477, 0.059374713751849856, 0.05713773093542196, 0.0549758628062048, 0.052897079883699565, 0.05081633694195005, 0.04883772871196503, 0.046912098336576745, 0.04499448663086227, 0.04311014380506202, 0.04136364342895417, 0.03957552472326009, 0.03790905437725592, 0.036310384725048925, 0.0346548126415442, 0.03314136744091566, 0.031702246365499655, 0.030240111400572665, 0.028900315869186243, 0.027587000780433163, 0.02628247716251112, 0.025127525186333224, 0.023961436307418697, 0.02286259453414616, 0.021785163080033348, 0.020787179516031484, 0.019870366717183705, 0.018991036020890736, 0.018179594927559366, 0.017416817089967056, 0.016647592094066205, 0.01600704611461356, 0.015358353609090504, 0.014798313956008738, 0.01429561020922445, 0.013837624711928674, 0.013438933266471765, 0.013078629139495456, 0.012777602281192952, 0.012532903495384246, 0.012325502486940717, 0.012146861483209535, 0.012049268908549363, 0.012024212133603461, 0.012001772268034117, 0.012049573777731198, 0.012160560394569307, 0.012286365854803248, 0.012506737066237722, 0.012713745829701745, 0.013034747508222647, 0.013351556807437794, 0.013707886953663156, 0.014176511890714016, 0.014600656850266208, 0.015153930025798772, 0.01569237779998776, 0.01627913095346274, 0.016944085362833337, 0.017644302188677734, 0.0183737320369013, 0.01913558478613673, 0.019927377246278404, 0.02080127160772114, 0.021648242083017778, 0.022604010000374073, 0.023560613572848013, 0.02459378676484236, 0.025624563648218624, 0.026692588323874087, 0.02779286102745805, 0.028944712796856526, 0.030120293409489778, 0.03136090255013639, 0.03255844027650422, 0.033881633137577805, 0.03517793052177119, 0.03651995363073425, 0.03790781458282245, 0.039265828282679265, 0.04070309706770065, 0.04220376552043452, 0.04365409837551205, 0.04517289851072107, 0.046702172692046906, 0.048281594157104514, 0.0498459194122004, 0.051470039022807695, 0.05310504593712265, 0.05476901229857497, 0.05640338972665791, 0.058115999933740614, 0.05986870715342504, 0.061562721250911646, 0.06336979432864312, 0.06513044230397633, 0.06691604100770429, 0.06873490238953547, 0.07056422406594928, 0.0723901631167656, 0.07428131887439769, 0.07614194263503059, 0.07801884968835769, 0.07993531809684841, 0.08183618377448743, 0.0837575365376507, 0.08569482544550568, 0.08767760866439651, 0.08961667551837983, 0.0916045337712111, 0.0935722438827255, 0.09557211236497323, 0.09758991121125321, 0.0995957519917688, 0.10159644612945604, 0.10363447259958042, 0.10564867666089589, 0.10767879651745717, 0.109740063954356, 0.11179521443822135, 0.11381660363690851, 0.11591304380724939, 0.11796204930285364, 0.12002358978093326, 0.12210763366870196, 0.12416118145798147, 0.1262529563207981, 0.128358301408061, 0.13041250247121247, 0.13252465960759938, 0.13459111516023708, 0.136704395990494, 0.1387942618064177, 0.14088677464782998, 0.1429807678029781, 0.14505934820846766, 0.1471696609766918, 0.14927836302427297, 0.15136937977110163, 0.15345881126466926, 0.15557273024090004, 0.15768217198012371, 0.15975005334992554, 0.161908208573958, 0.16396846529912204, 0.1660787498886181, 0.16817726168244898, 0.17030468853735306, 0.17240405717092216, 0.17448947187463362, 0.17663576204997936, 0.17871000612173282, 0.1808183583960086, 0.18293572497665248, 0.18503898521942927, 0.1871694372647375, 0.18927925819621685, 0.19137931752278886, 0.1935212169659905, 0.19565033206407098, 0.19774353065601644, 0.19990560011183225, 0.2019979379040438, 0.20412588978111104, 0.20629540286851214, 0.2084183348073692, 0.2105685129147545, 0.21273001525575716, 0.2148548729543454, 0.21703332211450987, 0.21922273369615972, 0.2213607197713307, 0.22357972760495073, 0.2257448028610949, 0.22794893573813074, 0.23013142987192894, 0.2323667006200388, 0.23457179058500546, 0.2368125343608253, 0.23901644198048683, 0.24128954389779528, 0.24355995385961005, 0.2458489225994219, 0.24812625728667434, 0.25039299073657034, 0.25269844415577575, 0.25504271143837737, 0.25740301595049764, 0.259750239257083, 0.2621275018350386, 0.26449055204733485, 0.26687359513323433, 0.269297452721469, 0.27173832241465, 0.2741962082119468, 0.27666009842704625, 0.2791720460936428, 0.2816723086201666, 0.2842067491214287, 0.28673176520877847, 0.2893384389277664, 0.2919138508733636, 0.29452923416379867, 0.2971861593260241, 0.29985727887691305, 0.302528238288438, 0.30526962531313756, 0.30797388795789093, 0.31078149421602513, 0.31352383674807077, 0.31637657231339067, 0.31920708637258427, 0.3220710048285524, 0.324996109137854, 0.3279560503786415, 0.3308934212489292, 0.33388869208322913, 0.3368816166816231, 0.3399722270019103, 0.343048950359292, 0.34616696132213004, 0.34929983159776656, 0.3524986721230266, 0.3556923435899076, 0.3589462286287085, 0.36223742720406016, 0.3655683757711193, 0.36891680673821653, 0.37230962085059066, 0.3756935025198196, 0.3791572169356512, 0.38262253932123436, 0.3862053508701542, 0.38974914360013624, 0.39336730526698627, 0.3970037365130225, 0.40065531356957307, 0.40436867360695067, 0.4081002985220541, 0.41191308456391934, 0.4157445274280915, 0.41958538875360846, 0.42345636569219214, 0.4274315933684651, 0.43141583521156446, 0.43537291064830463, 0.4394481058729244, 0.443524390281013, 0.44766364682481913, 0.45182015691850586, 0.456012898880031, 0.46023864096861594, 0.46451430256763776, 0.4687877383330392, 0.473191673982439, 0.4775387721156515, 0.48192460667606934, 0.48637201569409033, 0.4908920840726125, 0.49537467263487706, 0.49996004279214884, 0.5045424669699139, 0.5091718256619493, 0.5138069502945778, 0.5184980533462438, 0.5232410103386799, 0.5279718403349906, 0.5327473300873249, 0.5375502397663672, 0.542435705601977, 0.5472825281466256, 0.5521662372143705, 0.5570834889353481, 0.5620695366951399, 0.5670249987613712, 0.5720630631151695, 0.5770834605113593, 0.5821586264439748, 0.5871977184884495, 0.592306598442428, 0.5974577947393602, 0.6025772593298006, 0.6077503175290114, 0.6129588878773339, 0.6181318924101898, 0.6233459636086313, 0.6285904384083305, 0.633867782770352, 0.6390995917683895, 0.6443752027813079, 0.6496503537102959, 0.6549897088096347, 0.6602736531964531, 0.665587805747867, 0.6708995946206259, 0.6762279858049963, 0.6815477063526919, 0.6869226396366761, 0.6922427657171119, 0.6975464346229938, 0.7029307878247101, 0.7082494738379482, 0.7135982965306504, 0.7188980812079429, 0.7242323707267202, 0.7295372792521595, 0.7348503913981117, 0.7401273208870294, 0.7454408949151097, 0.7507050757996527, 0.7559225895241637, 0.7611697421739752, 0.7664028876990564, 0.7715869462700685, 0.776774656945024, 0.7819393114502942, 0.7871027467060906, 0.7921838289800651, 0.7972751888148119, 0.8023227921976785, 0.8073464594277344, 0.8123349331194147, 0.8173101309815547, 0.822206681917453, 0.8270950779355704, 0.8319476618305627, 0.8368164785328068, 0.8415801656875235, 0.8462919699599002, 0.8509625473566418, 0.8556314940017944, 0.8602180620891728, 0.8647667215969925, 0.8692632205917167, 0.873712738104309, 0.8780766359017842, 0.8824211662386007, 0.8867098155110048, 0.8909530548892856, 0.8951051279097125, 0.8991946978121034, 0.903262894305854, 0.9072309927093491, 0.9111578581963947, 0.9149782904850372, 0.9187464191737599, 0.9224951159720715, 0.9261375163404462, 0.9297043630774574, 0.9331758838253794, 0.9366043795201902, 0.939936038364116, 0.9432098156375895, 0.9463945094867197, 0.9495182404937149, 0.9525113878943444, 0.9554796917315646, 0.9583316771349405, 0.9610617117943239, 0.9637548792411278, 0.9663973145189831, 0.968907122085334, 0.9712816889867517, 0.9736115616014248, 0.9758603422875384, 0.9780041135674103, 0.9800795249861212, 0.9820315645164251, 0.9838845877495213, 0.9856278049101036, 0.9872745674279143, 0.9888462069137938, 0.9903199485014008, 0.9917013150901951, 0.9929356437284643, 0.9941088778097136, 0.9951934378847165, 0.9961317356136582, 0.9969716981479984, 0.9977249495675475, 0.9983628100773101, 0.9989076822516659, 0.9993374358276175, 0.999694330118474, 0.999856149231066, 0.9999786595386801, 1.0, 0.9999241397343767, 0.9996921695230726, 0.9993595476819678, 0.9989197238081741, 0.9983854235112806, 0.9977510893395707, 0.9969766860354675, 0.9961197495494464, 0.9951547579854717, 0.9940890123152879, 0.9928774214756033, 0.9916040819632024, 0.990171986180601, 0.988660978759786, 0.9870222621832272, 0.9853103854092983, 0.9834746541885359, 0.9815444344344146, 0.9794710718438927, 0.977284909523382, 0.9750333629522517, 0.9727043630729315, 0.9701929005428437, 0.9676157770566042, 0.9649150079671361, 0.9621636655440918, 0.959277242379345, 0.956270614020889, 0.9531827628834392, 0.9500201224442391, 0.9467399190076025, 0.9433123087380062, 0.9398353944983726, 0.9362652241944956, 0.9326160712325314, 0.9288356270164493, 0.9250005362384269, 0.9209963121722267, 0.9169619533330052, 0.9128667879744726, 0.9086260199162173, 0.9043265565264732, 0.8999280512970349, 0.8954750629606925, 0.890926810525898, 0.8862577626493358, 0.8815216412899602, 0.8767306704722723, 0.8718579796365779, 0.8669081880741937, 0.8618973338740136, 0.8568062765571747, 0.8516301821013328, 0.846388641901073, 0.8411095700978527, 0.8356906585969007, 0.8302805490967463, 0.8247865495909885, 0.8192536777323982, 0.8136175729007888, 0.8079271537835949, 0.802211812458478, 0.7964450578416635, 0.7906130713039132, 0.7847287970946633, 0.7787945730805322, 0.772803040672229, 0.7667828358994642, 0.760720618318327, 0.7546563325114535, 0.7484814359292267, 0.7423252083022815, 0.7361178824323109, 0.7298611212647265, 0.7236171866154052, 0.7173185573638291, 0.7109804024369285, 0.7046319633689001, 0.6982825950261384, 0.6918657681801754, 0.6854514903625545, 0.6790421845534202, 0.6726313659907656, 0.6661652164208609, 0.6597150530658571, 0.653244930122829, 0.6467619300072713, 0.6402950407389183, 0.6338298025706837, 0.6273751993906957, 0.6208743900187277, 0.6144411719066439, 0.6079716502407012, 0.6015197852185776, 0.5950853272335199, 0.5886645996216682, 0.5822556562940544, 0.5758673917159167, 0.5694830745560082, 0.5631614975009305, 0.5567972420582444, 0.5505350622547674, 0.5442196637820959, 0.5380083022066714, 0.5317902193067175, 0.5255947503822961, 0.5194567266000193, 0.5133134548229564, 0.5072835054676496, 0.501241967767747, 0.4952471412959372, 0.48929034726349685, 0.4834151475929541, 0.4775348910059754, 0.471762853430445, 0.46598740268435146, 0.4602468371511837, 0.45463312499466013, 0.4490354225282496, 0.4434781436874027, 0.4380155544739146, 0.43261754186332785, 0.427241878337666, 0.42196010770930203, 0.416705595238747, 0.4115587829892481, 0.4064322570042177, 0.40142047606084635, 0.3964566407032598, 0.3915588936360498, 0.38676706383680637, 0.3819896297475085, 0.37731958244765224, 0.3727169421502738, 0.368233798232279, 0.363736028574852, 0.35941315419622005, 0.3551049689042461, 0.3508975161875722, 0.3467922152398976, 0.3427267811223978, 0.3387612597501064, 0.3348679806236626, 0.33108375218977515, 0.3273641144653219, 0.3237760392330066, 0.3201931631004209, 0.3167570753237866, 0.3133987051411985, 0.3101028382803626, 0.3069051816324927, 0.30380662310140333, 0.3007971853213399, 0.2978423972112075, 0.2950448120765508, 0.2922552980659539, 0.2895684947525449, 0.2870076453928026, 0.2845108019498592, 0.2821419150840786, 0.2798034717651113, 0.27763090943113267, 0.27544733542292366, 0.27340281892324275, 0.27147933130303104, 0.2695929537942808, 0.2678280544768324, 0.2661230000286564, 0.2645354825097905, 0.262994100583906, 0.2616026844871245, 0.26021290614182585, 0.2589476205779426, 0.2578171664328253, 0.25671192176109475, 0.2556714048822412, 0.2547540735134785, 0.2539488833744493, 0.253183211241281, 0.2524995532565882, 0.2518857585489736, 0.2513493304587087, 0.2509176678974304, 0.2505818561244607, 0.2502627091245366, 0.25008146801032993, 0.24990106302413445, 0.2498429165051796, 0.24983466953468708, 0.24991949682048262, 0.2500642414811589, 0.25028824166047714, 0.2505443724371487, 0.25093861116431515, 0.2513047675580484, 0.25177894198114675, 0.252333443047225, 0.25293592592481773, 0.2536063425466881, 0.2542861010679232, 0.2550734514533572, 0.2559131819708459, 0.2567714345578562, 0.2577025669686789, 0.2587263009974599, 0.25971508008316213, 0.2607891936636015, 0.26193519294542406, 0.2630812572329524, 0.26431471602034257, 0.2655511771471963, 0.26685811030604556, 0.2681967486548633, 0.26956274976712097, 0.2709503399558486, 0.27238488996820137, 0.273839367343649, 0.2753460002541249, 0.2768433531731419, 0.2784054370179722, 0.27996585943093094, 0.28160282640527334, 0.283197718048356, 0.2848497021479001, 0.28649680007632744, 0.2881424323048494, 0.28983698015523, 0.2915298163796905, 0.2932230416162136, 0.2949543037530329, 0.2966629674231042, 0.2983588990912839, 0.30010339052305096, 0.30183703708816373, 0.3035570541093458, 0.3052985148789872, 0.3070143254573613, 0.3087212046125854, 0.31043671397907996, 0.31216628018593906, 0.31385151312644494, 0.31551758506994665, 0.3171890235675398, 0.31884066536934286, 0.3204819821762239, 0.32207802438462063, 0.32366740326959037, 0.32526514146197516, 0.3268163368074776, 0.3283359678448296, 0.32984168840596295, 0.3313246444926062, 0.332767859764046, 0.33417720222218517, 0.3355667733470533, 0.3368961753870817, 0.3382288632500666, 0.3395134677827895, 0.34075084998467453, 0.34197298143905713, 0.34309849621347643, 0.3442349198790996, 0.3453221953476148, 0.3463667794537924, 0.34734302897874997, 0.3482856493080097, 0.3491905700669953, 0.35003864684268615, 0.3508467553095471, 0.3516196912993738, 0.3522936274577709, 0.3529689629537379, 0.3535457017026825, 0.35410434244342415, 0.3546165589911611, 0.35505409523199233, 0.3554132447549397, 0.35570271844941914, 0.3559728031453445, 0.35620320533835553, 0.3563449678536432, 0.35647199289730186, 0.3564873552347649, 0.3564541935330412, 0.3563233012626134, 0.356180645606509, 0.35601323730812523, 0.3556916204943633, 0.3553464073993236, 0.3549770586317809, 0.3545145506375968, 0.353944593023084, 0.3534156303929774, 0.3527252882895027, 0.3520286861482549, 0.35123940101421114, 0.3503777512211968, 0.34947871100892364, 0.3485129176314102, 0.34745891195295203, 0.34635826545464027, 0.34518286981633434, 0.3439635997676548, 0.34267623341537634, 0.3413337692316939, 0.3399570284910995, 0.3384487084452555, 0.3369275421293881, 0.33529702221467167, 0.33362555111044445, 0.3319258514136868, 0.33013592488954546, 0.3282775943576176, 0.3264038572889327, 0.32445432086442755, 0.3224478777384038, 0.3203450056432149, 0.3182383793943575, 0.3160280733419185, 0.31380034692880615, 0.31149784536580916, 0.3091886661170369, 0.3067696947225879, 0.3043290711369202, 0.3018234985108018, 0.29926876401033153, 0.2966734908407351, 0.29402151471118965, 0.29134203104706435, 0.2886087400777869, 0.28582973303506864, 0.28298180208224943, 0.28012260396209976, 0.277219075530751, 0.27427856794738287, 0.2713123647960184, 0.26824331413029673, 0.2651984758183225, 0.26210625438543605, 0.25901128459139594, 0.2558086364489276, 0.2525859369293209, 0.24937972736785574, 0.2461492898144899, 0.2428609857045153, 0.2395684894223061, 0.2362201152495773, 0.23288208772194988, 0.2294707234204757, 0.2260810883360868, 0.22270232758526148, 0.2192520441238199, 0.2157899233172863, 0.21231629595993728, 0.2088634705689183, 0.20535910218447476, 0.20187490941010655, 0.19833730488303664, 0.1948476952466859, 0.19129148767016604, 0.18776299181989076, 0.18423610452277878, 0.18075127838161287, 0.17720294069484605, 0.17365091813823183, 0.17011597148165739, 0.16659149309936624, 0.1630628244703349, 0.15955885231131028, 0.15602918223319173, 0.15256561515979772, 0.1490614252037705, 0.14558449949336327, 0.14214556449648075, 0.13869193349274067, 0.13525492868422145, 0.13185462578863855, 0.12848326368164692, 0.125090473815432, 0.12175591445071446, 0.11844529949648935, 0.11512539364294913, 0.11184599953914975, 0.10864309998339193, 0.10538836174423842, 0.1022274194539482, 0.09903927392088169, 0.09596207563658628, 0.09286512458188653, 0.08978186560578051, 0.08677941955916406, 0.08382273342444475, 0.08088137019013382, 0.07795469969357866, 0.07506925449748321, 0.07228461455044102, 0.06950912445999909, 0.06674926569383577, 0.06407158430833809, 0.061427597030411625, 0.058863770226993475, 0.05629971569064399, 0.05376670152053574, 0.05131260185476916, 0.04890707257419839, 0.04657950929244852, 0.04427703441790432, 0.0420300671121049, 0.03983654183072794, 0.03769404530014235, 0.035593406766313306, 0.0335845233551747, 0.03158666446336832, 0.02967367121255472, 0.027790112314582588, 0.026002169789671865, 0.024247540992171242, 0.022551086483313783, 0.02094875726680618, 0.01933063114430999, 0.017836319929697555, 0.016395182096661926, 0.014993136236580216, 0.013650296355264692, 0.012381076120815526, 0.011178126108377755, 0.010041064094237141, 0.008953920264404372, 0.007937910313327029, 0.006946844623142696, 0.006066965881129964, 0.005211765197745538, 0.004423395274552299, 0.003745990246440412, 0.0030681221449813875, 0.002481704886969858, 0.0019789163247468117, 0.001530893732451763, 0.001097386699416324, 0.0007239820810767337, 0.00046684184730248253, 0.00029452052012791843, 9.41969664550258e-05, 6.504963921548045e-06, 0.0, 2.356410590370578e-05, 8.255723230407306e-05, 0.0002400312081289299, 0.0004443511199931652, 0.0007485951584926687, 0.0010461694613910146, 0.001459081015575082, 0.0018841605355737617, 0.0024072019341888325, 0.0029346296149312745, 0.003538564000334486, 0.004231464391798278, 0.00495013062395739, 0.005729475015072678, 0.006565493533162712, 0.0074960815304310644, 0.008442405146811285, 0.009387181158688206, 0.010449667983624079, 0.011535639639931365, 0.012728607795817767, 0.013916205257762645, 0.01517228904103015, 0.01642985382848532, 0.017784966810775328, 0.01921079140364259, 0.02063952424063324, 0.0221017709105482, 0.02366544883957218, 0.02522646300973139, 0.02680946708300573, 0.028492929507791448, 0.030194295035157664, 0.031934814797283245, 0.03372419812532595, 0.035523919119735056, 0.03741728191725082, 0.03929402231765132, 0.04122497677264113, 0.04321196069627295, 0.045184005004525817, 0.04723383537371615, 0.04931657016936116, 0.051392109469835086, 0.0535460577884746, 0.0556848300754986, 0.05788710834531804, 0.060122138476821844, 0.06236022321714235, 0.06464779143364908, 0.06694736026795328, 0.0692459853580334, 0.07161114060194582, 0.07401485006016074, 0.0763761833868637, 0.07882511782177533, 0.08124635617921129, 0.08372573706546323, 0.08619661658463748, 0.08868388454962917, 0.091230393062795, 0.09373837073999447, 0.0962978023036282, 0.09886443829868286, 0.10143415419107198, 0.10403552695447331, 0.10662865677729357, 0.10927056491895881, 0.11189583082898821, 0.11453992261992922, 0.11716920326137638, 0.1198426095534458, 0.12252797249710257, 0.1252134790331501, 0.1278690868354799, 0.1305833491070129, 0.13328677305914857, 0.13599752009556101, 0.13870620438680248, 0.14141654890210018, 0.14414337800584243, 0.146858950273056, 0.14960216379562782, 0.15234127888670718, 0.15504470165570725, 0.15778701256422079, 0.16054210905523134, 0.16324800126815675, 0.16600265828761832, 0.16873409778430914, 0.17150266937642328, 0.17419588661071975, 0.1769273333192955, 0.17967029248067215, 0.1823987864561572, 0.185159702213262, 0.18785063124628884, 0.19059467026567375, 0.19331257866162904, 0.1960268874447826, 0.19876517019311032, 0.2014855609419794, 0.20416922239475224, 0.20690003954004482, 0.20958878481866927, 0.21229912838087492, 0.21498600873005463, 0.21770943205380375, 0.22039641633174106, 0.22306336795654988, 0.22574328633593765, 0.22843968049874322, 0.2310966270659648, 0.23380183899652673, 0.2364702150313756, 0.23913976975811477, 0.24181872572040294, 0.24447791202166874, 0.24712015064127166, 0.24978223199718028, 0.25246394576611525, 0.255120681307281, 0.25775569228824813, 0.2604202755289938, 0.26310447226243827, 0.2657364568321208, 0.26838462634696614, 0.27104173853924013, 0.2736702879198867, 0.27633236733119526, 0.2789922036689046, 0.281670618839557, 0.28434133289400965, 0.28695915412221723, 0.289639207517046, 0.29232035993187, 0.29500066465063723, 0.29764515758149024, 0.3003177273598026, 0.30302106893034814, 0.3057012265439551, 0.30840425526704573, 0.31110272547114026, 0.3138178456651453, 0.31652891530795746, 0.3192460879843443, 0.32197946498689817, 0.32471084842793885, 0.32747471605921813, 0.3302397022665556, 0.33302383270887315, 0.3357783418803684, 0.33856189931734415, 0.3413774003767634, 0.3441843331563853, 0.3470116592495284, 0.3498784092748999, 0.3527284903510713, 0.3555799135749321, 0.35848230032413686, 0.36138638922836797, 0.36431486915196, 0.3672204660831188, 0.3702075756532864, 0.3731531314708103, 0.37615219799875294, 0.37915149755163896, 0.38215664351414474, 0.3852052536693697, 0.38825900743909486, 0.3913576022395818, 0.3944693206988894, 0.3975809620332039, 0.40073243839952283, 0.4038800440192344, 0.40707444266733417, 0.4103208255415464, 0.4135222525851995, 0.41682555315320785, 0.4200746229909608, 0.42338620067820526, 0.4267331420108295, 0.43005500904530714, 0.43343764100498694, 0.4368556625137398, 0.4402675479094591, 0.4437541873046202, 0.44719928012661364, 0.4507008225160767, 0.454256926929318, 0.4578161828523769, 0.46137929269811634, 0.4650222983035725, 0.46865908188459515, 0.47231570283624574, 0.47599947644558177, 0.4797061641121464, 0.4834399537408688, 0.4872138210794304, 0.4910279373468615, 0.4948226036797723, 0.4986835917252661, 0.5025633771305958, 0.5064631792725238, 0.5103663529463257, 0.5143248048651798, 0.5182876628207334, 0.522313954387721, 0.5263003933539601, 0.5303733593469411, 0.5344533755526852, 0.538546316481211, 0.5426567138142578, 0.5468071155533479, 0.5509430502807946, 0.5551373810010777, 0.5593418743517115, 0.5635807422961048, 0.5678309909247693, 0.5721237967255497, 0.5763708799002123, 0.5806785483014804, 0.5850163758384868, 0.5893408827221667, 0.5937248444200549, 0.5980844786161881, 0.6024600650401722, 0.6068820068770446, 0.6113044396411291, 0.6157034810620382, 0.6201839467397503, 0.624636550226678, 0.6290850381747786, 0.6335780224930279, 0.6380540092930254, 0.6425422316549518, 0.6470504671582711, 0.6515283302242422, 0.6560647546877123, 0.6605516718711878, 0.6650601036388746, 0.6695856272548412, 0.6741137327068952, 0.6786210828307305, 0.6831492092678744, 0.6876374187116705, 0.6921469255482329, 0.6966565789095035, 0.7011581713315385, 0.705627943197029, 0.7101076800240361, 0.7145859358822374, 0.7190421044425445, 0.7235099950507018, 0.7279344460589926, 0.7323458823692356, 0.7367204007433368, 0.7410957211440267, 0.7454545268793613, 0.7497972181288506, 0.7541351785535532, 0.7584267584154174, 0.7626948738411466, 0.7669251991583347, 0.7711479398840679, 0.7753427709662428, 0.7794853509041635, 0.7836321268455841, 0.7876908606704901, 0.7917592213620509, 0.7957940169651422, 0.7997430747974834, 0.803700550737733, 0.8076069181110075, 0.8114728775514358, 0.8152874181020038, 0.8190559173858712, 0.8228088007654573, 0.8264747509460829, 0.8301203276880883, 0.833688506419118, 0.8371740233644548, 0.8406552283050429, 0.8441037898425874, 0.8474465313871868, 0.8507814864876672, 0.8540231800821322, 0.8572145940949726, 0.8603156605463596, 0.8633693769352189, 0.8664151704969643, 0.8693179259056514, 0.8721903550403987, 0.8749992743011245, 0.8777200231123153, 0.8803573329998905, 0.8829772057582077, 0.8854658957736039, 0.8879086005404445, 0.8902869413503404, 0.8925436642667556, 0.894760898736387, 0.8968775342556758, 0.8989510284388031, 0.9009171246495157, 0.9027893049283501, 0.9046077018328313, 0.906303579108113, 0.9079314498622597, 0.9095199224531633, 0.9109420509730742, 0.9123038935276824, 0.913590243205596, 0.9148235888837785, 0.9159128669873017, 0.9168974845570644, 0.9178161981711851, 0.9186195978951327, 0.9194011375020293, 0.9200025330357656, 0.9205748680755581, 0.9210190199818034, 0.9213460811028338, 0.9216129615743748, 0.92177714909526, 0.9218170982506969, 0.9217606401928164, 0.9216611828843723, 0.9214001860531086, 0.9210977550064763, 0.9206437090635908, 0.9201250094907019, 0.9194656377086495, 0.9187394303125409, 0.9179124723023423, 0.9169571566716616, 0.9159375508013431, 0.9148172639951954, 0.9135635218016961, 0.9122224518109437, 0.9108315530623943, 0.90926607202441, 0.9076477538072437, 0.9059023896072166, 0.9040598223558004, 0.9021546855497091, 0.9001006098559126, 0.8979665475177192, 0.8957466066800481, 0.8934402951843171, 0.8909746910235015, 0.8884732439942419, 0.8858890295569646, 0.8831484430736466, 0.8803371922981713, 0.8774604667028533, 0.8744697315890783, 0.871396095110698, 0.8681978734350405, 0.8649479456836326, 0.8615818079959249, 0.8581352251573318, 0.8546179831720239, 0.851019236658677, 0.8472890930783534, 0.8434971786354478, 0.8396320838326097, 0.8356490721516582, 0.8316216027337255, 0.8275030873603925, 0.8233218611896228, 0.8190374063814025, 0.8146707669662476, 0.8102483172259849, 0.8057628467909337, 0.8011891265653681, 0.7965462903500751, 0.7918237129857545, 0.7870377936141231, 0.7821836021045226, 0.7772603606452813, 0.7723008656010897, 0.7672790250612729, 0.7621677785959565, 0.7570081081265425, 0.7517873101184399, 0.7465210490726912, 0.7412103534915752, 0.7358360756172825, 0.7303852864617364, 0.7249076430643265, 0.7194004298009308, 0.7138400162544211, 0.7082193889056952, 0.7026094204555281, 0.6969310757289094, 0.6911771310789466, 0.6854374005254383, 0.6796207402316059, 0.6738179087538675, 0.6679440148652128, 0.6620498966277746, 0.6561484744585144, 0.6502340054427498, 0.6443175016513236, 0.6383100780271328, 0.632340063343964, 0.626300364874306, 0.6203116744710366, 0.6142878438732604, 0.6082769751815211, 0.6022030552257343, 0.5961485282341986, 0.5900827088846866, 0.5840378213000976, 0.57799349199774, 0.5719465136369158, 0.5658713682535316, 0.5598212698356425, 0.5538178223326884, 0.547798174151145, 0.5417806299989337, 0.5358090899995064, 0.5298026368188224, 0.5238484461044102, 0.5178891490248098, 0.5119951576216588, 0.5060914587908277, 0.5002422217106878, 0.494398493833968, 0.4886013976970802, 0.4827997252248648, 0.4770893327737697, 0.4713765025849563, 0.46570879438335566, 0.46005593382345145, 0.4544991158742792, 0.44893698750289673, 0.44343732178269973, 0.4379576989835904, 0.4325595239368391, 0.4271979161198582, 0.4218795461054609, 0.41664569555398273, 0.41147194795831044, 0.40632172647275283, 0.4012048949608038, 0.396164784684299, 0.3912185365173855, 0.3863040365365879, 0.381448678814, 0.3766722915273236, 0.37196991840640414, 0.3673450609187804, 0.3627250686947377, 0.35825034694357716, 0.35377128271535885, 0.3494078381967013, 0.34512314134304733, 0.3409128477632931, 0.3367664002382801, 0.33271445295748286, 0.32872234494130237, 0.3247550525903373, 0.3209457774769881, 0.31718965219357526, 0.31349649682015324, 0.30989944493501553, 0.3064132985709957, 0.3029697893238859, 0.2996168967278981, 0.29636256472748473, 0.2931838295853475, 0.2900834678427814, 0.28707871702911164, 0.28417169215137567, 0.28132335381496826, 0.2785763275446606, 0.27589059521221165, 0.2733460368918178, 0.27086451978482123, 0.26844334795639063, 0.26611266613740076, 0.26392547549557605, 0.26176447685237175, 0.2597143046619037, 0.25775842840830065, 0.25585694451401403, 0.25408079305465514, 0.25238498302822443, 0.2507688608600522, 0.24925461542681027, 0.24783510050807697, 0.24648078635263818, 0.24521542126416696, 0.24401286024214602, 0.24291139500922762, 0.24189739884047817, 0.24099035399572824, 0.24014216899336505, 0.23940374356782576, 0.2387026300143473, 0.23812573071539755, 0.23759627289119084, 0.2371637572973396, 0.23679539763792848, 0.23653524404768408, 0.23629955167994504, 0.23619319009266748, 0.23618170899555768, 0.2361923420383265, 0.23627339576005854, 0.23643637877427937, 0.23669728489328637, 0.2370281092136342, 0.23741794891280923, 0.23787385925304633, 0.23838481709074458, 0.23894173203115568, 0.23963285281933946, 0.24030715991265428, 0.2410908547659101, 0.24193617104473836, 0.2428362515881691, 0.2437850283567238, 0.24479753591324033, 0.24583000773414293, 0.24693400578104527, 0.24814266576794547, 0.2493400315639442, 0.250595026099786, 0.2519074504812987, 0.25326447985457495, 0.25466461062652457, 0.256138860524852, 0.2576212130108769, 0.25910589359364694, 0.2606865233738716, 0.2622875460233048, 0.2639068244978455, 0.2655449444355447, 0.2672531825718355, 0.2689381543410858, 0.2707013528760144, 0.2724601136100997, 0.2742701444664921, 0.27609863187114314, 0.2779423915244406, 0.27977696511437344, 0.2816203470468246, 0.2835290449371184, 0.28542714590579055, 0.28732546901225836, 0.28923563065728597, 0.2911679302449537, 0.2931248601053994, 0.2950462329838571, 0.2969594646758975, 0.2988852353606677, 0.3008408879372508, 0.3027535980162378, 0.3047068408284464, 0.30664481190650367, 0.3085520469928397, 0.31039873581528943, 0.31232847991991586, 0.31419209744041127, 0.3160571061345982, 0.31791607075862993, 0.3197184273856148, 0.3215433197266517, 0.3232906986843579, 0.32506034525786087, 0.32683467637250485, 0.32852200880515653, 0.3301926096654057, 0.33184670741036504, 0.3334624393224625, 0.33507025509348914, 0.33663917451059655, 0.3381667879718496, 0.33959676691853574, 0.3410653589766106, 0.34248575495045425, 0.34381496406411, 0.34517069306590087, 0.34641152050344337, 0.3476831163548144, 0.34883043394002416, 0.3499835375077487, 0.35106559527376563, 0.3521113275300519, 0.35313344666508645, 0.3540537271773763, 0.35493267293090963, 0.3558179914533635, 0.35655152929268347, 0.35730863337767493, 0.35793781744947417, 0.35857316430910685, 0.3591217775519964, 0.3596405313690069, 0.3600755913015118, 0.36042068948671385, 0.3607591318093838, 0.3610028183909144, 0.36118472541657604, 0.36136732762023954, 0.36141218835108824, 0.3613977413865711, 0.3613500298763051, 0.36121479094154, 0.3610703909699472, 0.3607764005005299, 0.360489405609393, 0.36007782794765086, 0.3596159868385965, 0.3591014890249334, 0.35855813726740954, 0.3578913247651804, 0.3571851055126375, 0.3564195309167222, 0.3555329272059659, 0.35463770415467116, 0.3536791070479281, 0.35262019474704726, 0.3515012115998615, 0.3503425840434329, 0.3490734383711315, 0.34780521244437296, 0.3464176425456641, 0.344973399380309, 0.343455438692422, 0.34191029606297846, 0.3402893572152002, 0.3386016586861351, 0.33687067893260086, 0.3350470340610469, 0.33316784937234123, 0.3312200411079386, 0.32923053907443756, 0.327199585924301, 0.3250678290041796, 0.32293195154708965, 0.3207058228542976, 0.3184044893142499, 0.3160598736917652, 0.31369599771365336, 0.31122952742627413, 0.30873207147914, 0.3062112733338706, 0.30362625708996693, 0.30097355717998164, 0.2982990955648917, 0.2955630440816631, 0.2927428829446456, 0.28993608197832726, 0.2870525170412833, 0.28415470395455417, 0.2811961642086422, 0.27818993388244284, 0.27518576695397995, 0.2721150131023059, 0.26898058884974707, 0.2658413433940809, 0.26266832662493855, 0.25948829160514314, 0.2562327016894252, 0.2529953319426573, 0.24969067837331865, 0.2463635415395243, 0.24300891728705834, 0.23965127964325597, 0.2362826732412809, 0.23288123943476177, 0.2294349323345696, 0.22599971311449826, 0.22254106277394228, 0.21905784328991834, 0.21556487058132345, 0.21205739861091924, 0.20854107453095258, 0.20504548525189012, 0.20153316665414311, 0.19799179775589804, 0.1944486466149169, 0.19092682304053518, 0.18737526232969914, 0.18383619527382283, 0.18030670682183575, 0.17682532776815205, 0.17327296868953374, 0.16971670888073237, 0.16624424183969166, 0.16273484503378013, 0.15926154444179377, 0.15579532731489146, 0.1523365753722743, 0.14890389035166623, 0.14543642376828333, 0.14206179943787295, 0.13865538419900628, 0.13531208659383256, 0.1319828422279696, 0.12864317860556593, 0.1253637078481636, 0.1220985077794963, 0.11887872095596566, 0.11569549835465573, 0.11252682170171398, 0.10936741408327, 0.1063130216794038, 0.10321460988838504, 0.10019888764390443, 0.0972299759804647, 0.09431639924399132, 0.09135575518940818, 0.0885325185301995, 0.08568377400928644, 0.08294631428876578, 0.08022913447315475, 0.07752679154602952, 0.07491871006636258, 0.07236668333891712, 0.06979387121068377, 0.0673344582393547, 0.06493306938314423, 0.06258175004909433, 0.06025725681573968, 0.05801234461338823, 0.05583096078802578, 0.053674606519787095, 0.05160370220795024, 0.04960392798685847, 0.04763521436940564, 0.04573853390399863, 0.04393750777374802, 0.042172984061255456, 0.040424044718311576, 0.03881285242238994, 0.03725366063497357, 0.03575291014747085, 0.034284125211047, 0.03291288607593095, 0.03162843355403511, 0.030405791008199647, 0.029252535497337914, 0.028121960685889184, 0.027121823130297224, 0.026139593559213078, 0.02528089205642978, 0.0244581760539487, 0.02373590586041932, 0.023053999527776176, 0.02247144144407079, 0.021986180122481793, 0.021487872648330682, 0.021123328713611483, 0.02083170295285944, 0.020585014150987766, 0.02046523175255745, 0.020354671893304366, 0.0203605612642094, 0.0204272313352791, 0.020576637472306352, 0.0207964956807339, 0.02106447052732388, 0.02145061340004003, 0.02185625470855319, 0.022415154999581844, 0.022992751361797525, 0.023636454194744406, 0.024353112751293884, 0.025170527502955134, 0.026087426434769256, 0.027020331206543183, 0.028052232957576563, 0.02913438699667927, 0.030283850879175005, 0.0315257202705382, 0.03285856425241552, 0.03424213085367552, 0.0357023675797847, 0.03719608888311871, 0.03879373161939757, 0.040464807299052344, 0.042177496028887915, 0.0439763968513291, 0.04582632418514919, 0.04776063089651267, 0.049768833205234016, 0.05181693721265293, 0.053972374010190644, 0.05615961672759546, 0.05841109843528703, 0.060715780630223294, 0.06310677071896367, 0.06555211381426566, 0.06804928604837618, 0.07062113090890922, 0.07323869253447576, 0.07589853147478136, 0.07864622181209821, 0.08143579882845259, 0.08429398177840156, 0.08722755805329634, 0.09018485607871313, 0.09319212520311525, 0.09626947047456713, 0.09937617646080972, 0.10257087235323462, 0.10579262287798132, 0.10907681218809909, 0.11238035886746718, 0.11577318495319361, 0.1191976070549663, 0.12264596062507085, 0.12618078231812221, 0.12973501748782224, 0.13332695024667168, 0.137002495827363, 0.14065052098017514, 0.14439294284623905