0.025533156292673692, 0.02504911588764284, 0.024648018986828453, 0.024293505545696238, 0.024022293284209833, 0.023655220735266116, 0.02343841396979802, 0.023116446603848397, 0.02291167628870123, 0.022684003168598896, 0.022481537006522452, 0.02225582245251939, 0.022026939018266547, 0.021828058333476886, 0.02165173682268197, 0.021449219721129134, 0.021305213044822406, 0.021131996174174616, 0.02094509237934782, 0.020826579737944568, 0.0206569177608723, 0.0204829774702343, 0.020294048321751988, 0.02013499040282788, 0.020039981861889645, 0.019901904800341225, 0.019759111678903967, 0.01965667329201837, 0.019490891804524058, 0.019406344664231953, 0.019275459189852105, 0.019255152731809055, 0.019159181960824008, 0.01907827833466494, 0.018966404537950544, 0.018968142747882496, 0.0189323343029962, 0.01883638420841696, 0.018886729369041767, 0.018881955826748998, 0.018857450121780087, 0.018848988292770742, 0.018929670109693656, 0.01894029789200183, 0.019015732692176077, 0.01908844613600521, 0.019184672443746834, 0.019338762247182856, 0.019416849544055235, 0.019601156328457728, 0.019761484482381624, 0.019905029382144522, 0.020075078866534816, 0.020317104134770197, 0.020546364765200307, 0.020768306748084324, 0.020978876577678576, 0.021264665300001193, 0.021631689155277738, 0.021932025325242473, 0.022211166038063043, 0.022581349484191784, 0.022968664330529017, 0.023386736293344805, 0.0237869861980013, 0.02418210535082129, 0.024681334354038652, 0.025100259599431757, 0.025625722819457377, 0.02614737720800062, 0.026711125089028464, 0.027199209332666934, 0.02778303485416205, 0.02845389131726501, 0.029031160558030056, 0.029663726295300633, 0.030344274372290772, 0.031084288149272207, 0.03173112450144998, 0.03252950723023742, 0.03323555410568545, 0.03403371480527984, 0.034848165491642796, 0.0357506313872874, 0.03659673198134761, 0.037429621525250395, 0.038399771712259126, 0.039319223741503345, 0.040275608178530875, 0.041317520235568624, 0.04232346272495402, 0.043368289599378364, 0.044451550898199216, 0.045500671841071434, 0.046684067004966655, 0.04782025075120255, 0.04906224639012464, 0.050290388368287225, 0.05154522192594302, 0.05280316015752541, 0.054122037102243135, 0.0554008146289234, 0.05682571714264123, 0.0582059185995581, 0.05964048229460918, 0.06110053341761711, 0.06265224292405834, 0.06415061730103482, 0.0656956764686015, 0.06729075327718607, 0.06892362316488716, 0.07057829414734654, 0.072278246622686, 0.07398968266906289, 0.07579091006574575, 0.07757628292660437, 0.07932768587517447, 0.08119538988750584, 0.08308905510708754, 0.08507960023808156, 0.08700694195093213, 0.08897242241613218, 0.0910022224353273, 0.09310537288468819, 0.09513854437374161, 0.09727307707124547, 0.09949756421555193, 0.10170308378845115, 0.10386451324749058, 0.1061894549155158, 0.10848256908834426, 0.11083639840571669, 0.11316093059212073, 0.11556314133944548, 0.11807399785598215, 0.12052238573996053, 0.12304957035050415, 0.12559613453868868, 0.1281087644159958, 0.13077293166905904, 0.13344031335403841, 0.1360864268536757, 0.1388279939484034, 0.1415801645522881, 0.14437119891749575, 0.14717700122811228, 0.1500306588012608, 0.1528817745584649, 0.1558318837985747, 0.15872302312433112, 0.16169424875291716, 0.1647771728086994, 0.16775463345701636, 0.1708459940173737, 0.1740009157346676, 0.1771166428044735, 0.18022651972177264, 0.18346438694164796, 0.1866547670247538, 0.1899087844837303, 0.19322588293388254, 0.19654140270523635, 0.19988055516887582, 0.20318634613277303, 0.2066257686284274, 0.210029804613977, 0.21350291205912417, 0.21691579811838166, 0.22042865083433053, 0.22399333660620607, 0.22751527776476263, 0.23107844021688081, 0.23465348585776535, 0.2383417529480519, 0.2419686019324512, 0.24561396337990238, 0.24925642703469786, 0.2529980460538825, 0.2566779905683462, 0.2604589843101349, 0.2642054258497542, 0.2680056763134309, 0.2718395808008004, 0.2755876849878694, 0.27946823529061077, 0.2833236849866162, 0.28718728989634423, 0.29107282508200044, 0.2949116134025765, 0.2988596450507567, 0.3027161160423409, 0.3066526138764526, 0.31060933747076125, 0.3145681784364482, 0.3185142940246142, 0.32253694831675345, 0.3264895898788926, 0.33044283303421, 0.3344092461276092, 0.338459849182445, 0.3423965230212595, 0.3464550551014855, 0.35045496055947817, 0.3544551398367001, 0.35842322687764067, 0.36246379869101664, 0.36643648302011467, 0.3704412630780012, 0.3744854936895922, 0.37846875222206455, 0.3824613780449025, 0.38645544451034936, 0.3904107765893507, 0.39441949572106394, 0.39839038809857924, 0.40229150118809853, 0.4062987964752323, 0.41019410577192966, 0.41416580326924723, 0.4180862043651208, 0.4219596882498511, 0.42585878649673625, 0.4297147088645353, 0.43358381043291716, 0.43743921148324505, 0.441215260924844, 0.44502976956902207, 0.4487721219546106, 0.4525443096001769, 0.45633320091879265, 0.46002839309270166, 0.46365671854979235, 0.4673780271595981, 0.4709649077883138, 0.4746139395756314, 0.47819354408059456, 0.4817017268974139, 0.4852550929958162, 0.4887720149644052, 0.4921557129745708, 0.4955924730500605, 0.4989831631859652, 0.5023238931735181, 0.5057025021460896, 0.508925269465252, 0.5121950981353193, 0.5153663175663026, 0.5185472947647668, 0.521723027522746, 0.5247316721698619, 0.5278097766795584, 0.5308179507332942, 0.5337211723969565, 0.5366557471552862, 0.5395374002412606, 0.5422802463073029, 0.5450967979451543, 0.5477625142205853, 0.5504303974717348, 0.5530425354305357, 0.5556687910647905, 0.5581175599678265, 0.5606359103578283, 0.5630092217245238, 0.5653566935586053, 0.5676225386810761, 0.5698548396675702, 0.5720704729232442, 0.5741787768010532, 0.5762645816035307, 0.5782400531891985, 0.5801988273335309, 0.5820678005629435, 0.583855366724519, 0.5856504229841514, 0.5873198484073239, 0.5889525775539526, 0.5905423878395151, 0.5920649596480557, 0.5934573158191213, 0.5948532604772521, 0.5961308931456635, 0.5973858755201529, 0.5985199245987326, 0.5996814077700182, 0.600656729850902, 0.6016232572126786, 0.6025438350196127, 0.6033533378546896, 0.6041499255910989, 0.6047888085543809, 0.6054412813081852, 0.6059317232176771, 0.6064102108105832, 0.606790341116271, 0.6071054633437958, 0.6073890956130048, 0.6075400424811829, 0.6077113449095315, 0.607666966283259, 0.6076389872926521, 0.607534574351151, 0.6073807606386992, 0.6070788544316931, 0.6067805048607551, 0.6063078187620263, 0.6058692070862659, 0.605267587189523, 0.6046459833625668, 0.6039785420969886, 0.6032015001673059, 0.6023137609469352, 0.6013827010143348, 0.6004159508011461, 0.5993349195136133, 0.5981360611263123, 0.5969653232539268, 0.5956762154871564, 0.5942369664095319, 0.5928095607681481, 0.591363382450069, 0.5897620845020393, 0.5880555678971333, 0.5863924068897916, 0.5845281002525303, 0.5827193275135758, 0.5807760261885383, 0.5787180400469569, 0.5766252623719997, 0.5745081561071179, 0.5723297307230699, 0.5699977817074341, 0.5676331684389316, 0.5652741495630998, 0.5627395582612609, 0.5602308162745465, 0.557567365343953, 0.5548707604780485, 0.5521311746831968, 0.5493747033431655, 0.5464691650174548, 0.543542730207178, 0.5405435845843728, 0.5374987688740134, 0.5344028068757413, 0.531198235246777, 0.5279858319862718, 0.5246863478384983, 0.5214039716562243, 0.517933764652897, 0.5145091715664816, 0.5109814736878087, 0.5074996871168979, 0.5038853214872688, 0.5002052605784328, 0.49648578660870074, 0.4927474751428464, 0.488892367927803, 0.4850453601575851, 0.4811690850909795, 0.4772827339020669, 0.47327263152865684, 0.46921559000172863, 0.46515309674678007, 0.4610834122164414, 0.4569536954261414, 0.4527498903636451, 0.4485551401380816, 0.44424657705993675, 0.4399831115339296, 0.43564167566640755, 0.43129708695656666, 0.4269742411261095, 0.42254264987703466, 0.41807891702292654, 0.41358187949928116, 0.4090875487527207, 0.4046163625283004, 0.40007824057731983, 0.39551291586784865, 0.3909243768051986, 0.3863070544838039, 0.3816447109184004, 0.3770068260703474, 0.37237995231737075, 0.36768504727876056, 0.3630659940336578, 0.3583391286701851, 0.3536204414911483, 0.34891437557172184, 0.3441781901108364, 0.3394978413655744, 0.33468696569965084, 0.3299930592739232, 0.325209239720207, 0.3204639866650011, 0.3157285686307195, 0.3110268384019966, 0.30624536134916874, 0.30153241497643235, 0.29680777941051906, 0.29205550115713425, 0.28729603815978194, 0.28258024837966816, 0.27788423641347404, 0.2732292836779292, 0.2685548357209142, 0.2638867760211296, 0.2591904386180853, 0.2545738971892735, 0.24996807430169174, 0.24537986288912284, 0.24074214806889083, 0.23624107549749396, 0.23169793293867447, 0.22716675262800246, 0.22263924740532812, 0.2181689538226505, 0.21377366553594743, 0.20930650465258177, 0.2049841952818312, 0.20062314102166992, 0.1962569549691395, 0.19194628190964977, 0.18774752093548489, 0.18346561214370305, 0.17928593369649692, 0.17517313183788422, 0.1710509216604063, 0.1669182794964361, 0.1629196647534994, 0.15886944451036636, 0.15495145511671748, 0.15098782354743762, 0.14708750257809453, 0.14327834667867828, 0.1395002803828678, 0.13576453280564246, 0.13198833538425594, 0.12835304202220027, 0.12476494586916302, 0.12121646041225821, 0.11764425376083845, 0.11421530047403355, 0.11075974982432929, 0.1073935906409827, 0.10407687171638713, 0.10082291634838153, 0.097663202641299, 0.09444053587587853, 0.09134677167446238, 0.08830536113169449, 0.08533492479857364, 0.08234388839877659, 0.07944666396337077, 0.07662280390082785, 0.07383417769841549, 0.07108655133244648, 0.06848252626177904, 0.06580833214746007, 0.063263727107251, 0.06079361497558947, 0.05835605593750776, 0.05597514065761135, 0.05369443711199528, 0.051386490795625794, 0.049195238966267554, 0.04705430451653585, 0.04492755965282774, 0.04293363630601234, 0.04092317155863497, 0.039025042756390516, 0.03717031616262438, 0.035377452302348324, 0.03367702880774798, 0.03200235389048502, 0.03036907450813985, 0.028837047480483494, 0.027334918836676717, 0.02583371204792831, 0.02448209111595945, 0.023158717122310317, 0.021909596304270033, 0.020647958432104672, 0.019509650704322062, 0.018469665048195333, 0.01741797345175485, 0.016411247952081185, 0.015510238872504821, 0.014635483271795485, 0.013769104359536917, 0.013010639204585886, 0.012313126378964728, 0.01170508885903689, 0.01105880948796134, 0.010487772707933033, 0.010073788924122673, 0.009605337088114568, 0.009167280783892041, 0.008843007797331562, 0.008608356100793059, 0.00828558264756819, 0.00814070449208549, 0.007971505965020735, 0.007913574925421349, 0.007830221403038998, 0.007820809419862056, 0.007888992609836288, 0.007970450972223472, 0.00809769809462725, 0.008245737529747568, 0.008429816306310449, 0.008699972229172927, 0.009003493920408067, 0.009339053663088048, 0.009704602086600322, 0.010114774416506104, 0.010598088753409268, 0.01108846159692486, 0.011592464145323566, 0.012135703717933127, 0.01271556980400858, 0.013402881115799264, 0.014041212054666824, 0.014685004990615218, 0.015455482035697363, 0.01617786431266972, 0.01694519136897454, 0.01769845875277319, 0.018557352765423772, 0.019401553004589997, 0.0202780609461038, 0.021243776881647095, 0.022124359575121443, 0.023058423006370888, 0.024072394320714435, 0.024993032356300265, 0.02602073120926117, 0.027056933370839333, 0.028083391386075983, 0.029129388509915054, 0.030185826865507984, 0.03126811524995494, 0.03237680967843106, 0.03344858791396748, 0.034594673523327006, 0.035681842519029984, 0.03681484547388434, 0.037971598412518646, 0.03910226374041752, 0.040308985002140266, 0.04144888219657034, 0.04259346077540726, 0.04375991507397202, 0.044901324015016106, 0.0460731800270407, 0.04723404411361354, 0.04833968085902662, 0.049552974744584526, 0.05071835202675137, 0.05181307483137768, 0.05301232288815986, 0.05414144672150145, 0.055253348471935915, 0.05637146983942255, 0.057483934847796916, 0.058567552165727885, 0.05967223281058753, 0.060753807112298296, 0.06183237058323169, 0.06290465511760494, 0.06398253334095176, 0.06496335073748959, 0.06598964791166351, 0.0669447010920033, 0.06798404644287591, 0.06893438296617033, 0.0698777335483493, 0.0707901851477322, 0.07169309634054752, 0.07259194662731752, 0.07339164834407337, 0.0742950584644189, 0.07507035098367289, 0.07591115316021173, 0.0767086455892162, 0.07745377534552805, 0.07818297361168407, 0.07884841350039103, 0.07954881244081188, 0.08015473603778349, 0.08079929211229872, 0.0814006329579885, 0.08203590140391952, 0.08252433376765192, 0.08309657635932019, 0.08357549894973454, 0.08404553036941163, 0.08442995848150384, 0.0848464748616993, 0.08526907632263031, 0.08555551454771218, 0.08591273319374168, 0.08623984361359048, 0.08646980430390735, 0.08672109129977933, 0.08688001360876108, 0.08709611105487605, 0.08722060093441993, 0.08733541847213204, 0.08740796519732079, 0.08750100076721712, 0.08752378738073384, 0.0874619988381142, 0.0874929449633681, 0.08737121360506989, 0.08727796937779782, 0.08717324727042612, 0.08704339248895226, 0.08686948774356296, 0.08662994465209596, 0.08639658856844346, 0.08613122947475704, 0.08588273427880454, 0.08553486668870708, 0.08519959229124724, 0.08484740726499154, 0.08444983406175084, 0.08402026688053285, 0.08353319965033505, 0.08312019421138858, 0.0825687390426147, 0.08207412023362806, 0.08154370561441414, 0.08093495759891134, 0.08036569143694516, 0.07974726234700243, 0.07913286970413867, 0.07852731206959816, 0.07781534556724849, 0.07715185070598743, 0.07646989466205542, 0.07572795998907428, 0.07495652615981735, 0.07424303637583356, 0.07344330276368873, 0.07272384007947699, 0.07185646570922735, 0.0711168151417459, 0.07023828654001285, 0.06946757665720002, 0.0685994720684966, 0.06772966029425216, 0.06688047222893813, 0.06602969074760241, 0.06515908826561632, 0.06433169043804257, 0.06346012983564167, 0.06254929938495483, 0.061622593769022904, 0.06081180663114883, 0.05990171809590645, 0.059005704235446814, 0.05816116346020432, 0.057224998854860556, 0.056426769016622524, 0.05552405952516055, 0.05463346185058635, 0.05380496797359507, 0.052954117629083655, 0.05217960326112801, 0.051334688091446624, 0.05050023536492293, 0.04967990558405791, 0.048946371107970545, 0.04813475915349838, 0.047382190076249754, 0.046668408928440756, 0.0459725641476926, 0.045294254935083794, 0.04458480697137217, 0.04397389679843345, 0.043295919369174624, 0.04271196004334009, 0.04215018271088428, 0.04155827773048913, 0.041036921597195006, 0.04055385794130566, 0.04010592300294033, 0.03968609759654592, 0.03929645311242525, 0.03891550617788453, 0.03861870054660941, 0.038284640427362154, 0.03807727066023314, 0.03781279129688863, 0.03768605181107254, 0.03750047216515598, 0.03741067727476992, 0.03737424614230678, 0.03738252994241558, 0.03745194530888065, 0.03750235082558182, 0.03763483654222273, 0.037844801524126864, 0.038033610462946836, 0.03835618322055053, 0.03864549457918302, 0.0390748158693887, 0.03947107665962772, 0.03997245792616124, 0.040559831356372915, 0.04116565761990304, 0.04185943731333292, 0.04256936118834379, 0.04329814743723993, 0.044184561308516904, 0.04505440519324289, 0.04601882146844332, 0.04710614550145331, 0.04817988702200574, 0.049347552322241243, 0.05051686701376985, 0.05181158402964128, 0.05320665354773715, 0.05457207288366162, 0.05608533241417696, 0.057681433177981994, 0.059265830039298535, 0.060986337088723405, 0.06273585980166245, 0.06456542496153587, 0.06648514961768852, 0.06852158445764887, 0.07050505499358858, 0.0726393647816911, 0.07483580492952556, 0.07712458210702533, 0.07946937453065216, 0.08189078659271586, 0.08444936498666676, 0.08699305777574655, 0.089613972666507, 0.09234965706811876, 0.09516681811453083, 0.0980203821611191, 0.10098034003303327, 0.10405291547434929, 0.10712348937956535, 0.11035597362402003, 0.11355421428803099, 0.11693730674290528, 0.12034702390536654, 0.12386851718752014, 0.12741365654481632, 0.13105542905386103, 0.13481654091975112, 0.13862988011967692, 0.14251338298772387, 0.14648004622095476, 0.15045039050911893, 0.15460935657822933, 0.15880317130599633, 0.16304312066386417, 0.16740175794218465, 0.17182791974118902, 0.1763156368837345, 0.18082885376548624, 0.18547160793062772, 0.19017744445400525, 0.1949909541258298, 0.19983017823767082, 0.20476575640103306, 0.20978328913901761, 0.21477151843183923, 0.21996219280599652, 0.22513768297078995, 0.230419683098665, 0.2357752345990141, 0.24111209031193437, 0.24662624012626064, 0.2521562891840166, 0.25772535712550215, 0.26344113329919605, 0.2691081737824723, 0.27492815074767124, 0.2807144155052038, 0.28666269235168124, 0.2926230921709631, 0.2986572420410829, 0.30472131585864726, 0.310798517682388, 0.3170121136575596, 0.32323165310449886, 0.32950435544429146, 0.335871408766439, 0.34224812691078693, 0.3486604174103723, 0.3551203382034645, 0.36163771206577483, 0.3682814518784421, 0.3748788084517424, 0.38147807650714377, 0.38815224789883246, 0.3949056513485021, 0.40169325783611864, 0.40844356340965393, 0.4152828011151473, 0.4221503609833628, 0.4290286298705797, 0.4359594691389667, 0.442944895026642, 0.44992978834563885, 0.45691010382722996, 0.4638979832709708, 0.4709835859038235, 0.478042664711029, 0.4851576101004625, 0.4921887031738242, 0.49934967205186337, 0.5064891684962028, 0.5135737534917239, 0.5207814816348905, 0.5279209163346128, 0.5351046628333839, 0.5422152700452997, 0.5494151072499012, 0.5566203191393296, 0.563769600286197, 0.5709647862737893, 0.5781138811262189, 0.5852172283420123, 0.5923764307177668, 0.5995272212139353, 0.6066736770956898, 0.6138480580794893, 0.620919831243308, 0.6280067239246694, 0.6350630153395546, 0.6421119670321193, 0.6491096162834734, 0.6561023066478104, 0.663068566352902, 0.6700823676475163, 0.6769322953097724, 0.6838854996433232, 0.6907120409386711, 0.6975090564473546, 0.7042834158662666, 0.7110271558348373, 0.7177743220603816, 0.724400663074156, 0.7310246230596231, 0.7375900327521345, 0.7441689863988662, 0.7506175330612789, 0.7570039696741734, 0.7634302791146329, 0.7697256984949884, 0.7759721674048451, 0.7821830722170104, 0.7883388475606549, 0.7944295867627496, 0.8004532276677021, 0.8064280340567568, 0.8123300308805592, 0.818200438853448, 0.8239297693849594, 0.829593891562716, 0.8352261646820355, 0.8408003705137406, 0.8462672976063141, 0.8516923635179515, 0.8569790666087538, 0.8622336901453729, 0.8673942801928413, 0.872458580839809, 0.8775060857063708, 0.8823704539504846, 0.8872259397514938, 0.8919882627253309, 0.8966488190976896, 0.9011662685087147, 0.9056675572626521, 0.9100106825408372, 0.9143302022171259, 0.9185060105259122, 0.9226766895071375, 0.9266268573258754, 0.9305399142531662, 0.9343339251955217, 0.938042465848004, 0.9417131796447538, 0.9451590973750692, 0.9486264226461195, 0.9518650638992181, 0.9550525953045699, 0.9581462688924804, 0.9611877893921201, 0.9640478765050319, 0.9668045710012038, 0.9694584950774492, 0.9720647050442455, 0.9744962970199614, 0.9768306094186876, 0.9790889939928531, 0.9811435556474727, 0.9831728288401513, 0.9851102867562201, 0.9868499439926044, 0.9885099516032115, 0.9900967226548244, 0.991543781606952, 0.9928593554914928, 0.9940982798739562, 0.9952333981481535, 0.9962238221041902, 0.9970775239465541, 0.9978717148605352, 0.9984834519135909, 0.9990472084292588, 0.999460236633382, 0.9997263806040154, 0.9999921759783155, 1.0, 0.9999770616441624, 0.9998610782645017, 0.9996168630493173, 0.9991966920765414, 0.9987066123609268, 0.998108590275736, 0.9974393281820911, 0.9966202804717584, 0.9956697565391022, 0.994624129997417, 0.9934820876901458, 0.9922119403572726, 0.9908052396952209, 0.9893433467694205, 0.9876894556736289, 0.9860031213099139, 0.9842053497561455, 0.9822857385550223, 0.9802598532160891, 0.9781984393873469, 0.9759445906548165, 0.9735799985504165, 0.9711561437345426, 0.9686595202802452, 0.9660033048523152, 0.9632317236154163, 0.9604580979667718, 0.9575188078774376, 0.9544881965708579, 0.9513299913909027, 0.9481200826958357, 0.9447850757673555, 0.9413980189508473, 0.93797428705424, 0.9343605224419826, 0.9306686216447493, 0.9269226562347043, 0.9230612995616538, 0.9191606639536077, 0.9151969655135482, 0.9110836049435738, 0.9069349182694529, 0.9026278169021917, 0.8983018035183443, 0.8939097300204604, 0.8894683938442021, 0.8848887765457638, 0.8803240175394761, 0.8756244733664443, 0.8708625710275409, 0.8659891249935125, 0.8611209791871852, 0.8562170616342656, 0.8511483635057568, 0.8461267860193259, 0.8409344682505233, 0.8357576339595444, 0.8305115284923843, 0.8252616317244866, 0.8198958460962934, 0.8144821678441847, 0.8090437225784025, 0.8035595589035253, 0.7979837034212378, 0.7924609619800674, 0.7867780949722684, 0.7811172467107649, 0.7754384386436753, 0.7697307255012356, 0.7639118789511284, 0.758148118614929, 0.7522581742980405, 0.7463965359541381, 0.7405466644979047, 0.7346579928455079, 0.7286510214298989, 0.7227133974902307, 0.7167645538896766, 0.7107532285645212, 0.7047042983326679, 0.6987196106545207, 0.692616423431897, 0.6866273969068726, 0.6805323041333035, 0.6744986178995587, 0.6683719302396021, 0.6622797406757565, 0.6561977995486814, 0.6501393836454141, 0.6440748136095057, 0.6380129645988882, 0.6318801274895245, 0.6258280253077506, 0.6198101675218337, 0.6137097063351671, 0.6076825297884415, 0.6016450864279792, 0.5956934808329489, 0.589636432410766, 0.5837145344351784, 0.5777162843352113, 0.5717654414640545, 0.565880983380163, 0.5599707833497557, 0.5541330961734935, 0.548296801114162, 0.5424562711306785, 0.5367035666830148, 0.5309572539123645, 0.5252270405233224, 0.5195800322637776, 0.5139651970811712, 0.5083579630328473, 0.5027310172499723, 0.4972076157817742, 0.4917360680884568, 0.4862945629368052, 0.4809072126317108, 0.47555763016196223, 0.47025844560808333, 0.4650337842986988, 0.4598013181916018, 0.4546234634754572, 0.44951316485527454, 0.4444429123389083, 0.4395086544132433, 0.4345324465962549, 0.4296260168229937, 0.4247612354959352, 0.42002013888886536, 0.4152501977299884, 0.41062655856572017, 0.4060454299576996, 0.4014944519072909, 0.39700380264688095, 0.39258199840336555, 0.3881884659034399, 0.3839175178125925, 0.37972428560040095, 0.37550408503031757, 0.37143718279256, 0.3674101966446738, 0.3634622634957798, 0.35955660212905705, 0.3557287867570887, 0.35191726733339507, 0.34820173574684005, 0.3445999745423928, 0.34105166346256893, 0.3376096009189841, 0.3341893808602548, 0.3307901786272729, 0.32756245123914945, 0.3243478400124974, 0.3212108406484826, 0.31814876885407917, 0.3150917187747732, 0.3122293243663042, 0.30934445823242024, 0.30657161973010266, 0.3039037354046558, 0.3012371509867133, 0.29863977437269873, 0.29614489808776157, 0.293763337011895, 0.2914294929470523, 0.2891393331831788, 0.2868574215119985, 0.28475677024849266, 0.2826801303674268, 0.2807064276597432, 0.2787140995589035, 0.27690456148022125, 0.2750761960472283, 0.27333466137266343, 0.27170180790749626, 0.2700593312274573, 0.2685853736910746, 0.2670794163144047, 0.26569920373136086, 0.2643983331776013, 0.2631095978860406, 0.261888182076131, 0.26077064299407016, 0.2597192813011795, 0.25870021380074015, 0.2577199703334517, 0.25683401433772485, 0.2559578224087204, 0.2552050881985371, 0.25451955543826305, 0.2538105920174264, 0.2532254323669088, 0.2526946426423469, 0.2522264584705924, 0.25175608547777406, 0.25138307978601016, 0.251023068387508, 0.25077648055977214, 0.25051357974450594, 0.2503097217719903, 0.250190337109827, 0.2500830154396585, 0.2500858194811279, 0.2500401776828134, 0.2501228869817153, 0.2502305429161015, 0.25033578435826065, 0.25045960831411046, 0.2507060275835431, 0.2509111154618559, 0.25121581355556727, 0.2515710391923005, 0.2518863275017006, 0.2522846666796567, 0.2527404221518375, 0.25313031724190044, 0.2536653238732532, 0.25417872590994844, 0.2546885123744273, 0.2552828275839997, 0.2558304003020945, 0.25649314280321706, 0.25708583349659087, 0.2577862718014775, 0.2584343690856046, 0.25914453487997124, 0.2598813378283484, 0.2605852412381165, 0.26136155849723497, 0.2621173662413461, 0.2628777749636204, 0.26365130745705734, 0.2644676392354784, 0.26531414545930526, 0.26614372603809766, 0.2669040514596641, 0.2678062258858477, 0.2685980208479064, 0.26942019852024784, 0.27025401958265605, 0.27114914844253835, 0.2720070520770133, 0.27282367007093944, 0.27364265438970903, 0.27449682141191567, 0.2753427799728221, 0.27612114965720913, 0.27699569025043164, 0.277758566305802, 0.2785839013975052, 0.2793895697726482, 0.28019864914711534, 0.2809757667679701, 0.28172291569830277, 0.2824410197743594, 0.28318641668090727, 0.28386121119006275, 0.2845605699684274, 0.28525927746517055, 0.28594807424360963, 0.28655357404837045, 0.28715954208894323, 0.2877665037342786, 0.288334135001493, 0.28895749386717257, 0.2894425706170236, 0.2899802916145649, 0.29038600937915365, 0.2908681100772032, 0.2912549089263568, 0.29168308644990754, 0.2920332071582345, 0.292363566566175, 0.2926662828905112, 0.2929641061963485, 0.29325116960029995, 0.29343761917960204, 0.29356277418252485, 0.29374648393274233, 0.29382047816559526, 0.29394568127078285, 0.293989997726244, 0.2940073144393273, 0.2939723180005505, 0.2938499767837194, 0.29375647303833724, 0.29365923735327454, 0.293442203969659, 0.29324818284957677, 0.29298179429494486, 0.292699240153579, 0.29236682701146555, 0.2920536868165804, 0.29165377012418675, 0.29115592623530023, 0.29069385210924303, 0.2901439576645602, 0.28954669718645987, 0.2889865472594006, 0.2883534231357235, 0.287643464653288, 0.2869199873874957, 0.28615535059299857, 0.28536293184072, 0.2844878684395768, 0.2836014678661368, 0.28269905387553407, 0.281733220312416, 0.280688757815573, 0.2796858930318996, 0.27858651985543825, 0.2774206059766437, 0.2763154329520278, 0.27511488231519093, 0.2738093638100587, 0.27253368215868806, 0.27126328606029904, 0.2698898943942866, 0.2684742807183094, 0.26708103151558743, 0.26558589752839573, 0.26404637475275916, 0.26251153782161474, 0.2609639120631322, 0.25931965951168445, 0.25773563812814176, 0.2559911478887481, 0.25429343118612074, 0.25251010422711695, 0.2507875033400084, 0.24896678608759631, 0.24705497640312654, 0.24523940661205998, 0.24329047055601888, 0.24138477565124872, 0.23936413335473805, 0.23742650495834428, 0.235340563142932, 0.23335279603272016, 0.2312040775608749, 0.22910153858790655, 0.22704130445045712, 0.22484999180227427, 0.22263742434856162, 0.22048613579015405, 0.21820744258416305, 0.21596121353324746, 0.2137201963727088, 0.21143143514903134, 0.20913141709235125, 0.20681041570935707, 0.20440102099509228, 0.20206261527776018, 0.19967451834261563, 0.1973115038348602, 0.19492212068136075, 0.19248353533509885, 0.1900055910965758, 0.18761015454838514, 0.18509207193315497, 0.18264693283880448, 0.1801381424278573, 0.17771452741251342, 0.17521582365949145, 0.17262750010113773, 0.17019059559110472, 0.16767596036810536, 0.16513524738463298, 0.16258419341615368, 0.16008311841271639, 0.1575201624286651, 0.15500354917923148, 0.1525213523106976, 0.1499229384105068, 0.147456025944769, 0.14490461582459419, 0.14237877782084712, 0.13981213834180595, 0.1373478172751266, 0.1348321595280563, 0.13233020277421, 0.12980274450686682, 0.12729383835664523, 0.12481677890594456, 0.12237517145072126, 0.11990360154260542, 0.11742648286574889, 0.11504774124015621, 0.11255240456029447, 0.1102117877757134, 0.10773234301566759, 0.10538344595623565, 0.10302182626748198, 0.10064656105946841, 0.0983171504313919, 0.09600714323667119, 0.09370774625937439, 0.0914150600416643, 0.08909549761734112, 0.0868745516474601, 0.08469031129127014, 0.0824868562873017, 0.08025277768711457, 0.07813921146172492, 0.0759589593073592, 0.07385258919698412, 0.07177353216099656, 0.06976751520672254, 0.0676679211655535, 0.0656664175847102, 0.06370358473664157, 0.06172296571007071, 0.05980297402556318, 0.05787140210181278, 0.056013931768747895, 0.05417384729045523, 0.052314757677534275, 0.05051848106909801, 0.04879707827751028, 0.04706575405039613, 0.04535541176930278, 0.04364612385186556, 0.04199205382643592, 0.040439287980900476, 0.03885864395168441, 0.03724021389283594, 0.035738750294789845, 0.03425701635818243, 0.03285885390289359, 0.03141324653297837, 0.02999073991730201, 0.028659039696946588, 0.027342484035743235, 0.02604431365119415, 0.02481296570426875, 0.02356430812168865, 0.02238383429931272, 0.021185440017852997, 0.02004324034105432, 0.01894801195999958, 0.017940972383158522, 0.016897363136089867, 0.015910085171209485, 0.014904293105516523, 0.013976099853749301, 0.013115681704822628, 0.012223104371287617, 0.011366582319308243, 0.010566110722264228, 0.009839741718311824, 0.009065008686907792, 0.008384847227719249, 0.007683696474356185, 0.007072754934107581, 0.006415153819561113, 0.005835142956638065, 0.005266808162139168, 0.004744715909998053, 0.004304305048605938, 0.003783452165655332, 0.0033891370392163758, 0.002935864774035439, 0.0025727146553276297, 0.0022017283186867246, 0.0018780100354201848, 0.001609329175755133, 0.0013179928042021465, 0.001071513274186271, 0.0009119817627540197, 0.0007136732299221076, 0.0005112309016614439, 0.0003996758827605016, 0.00026042748810503407, 0.00014753407686441254, 8.038270038144304e-05, 7.937935554600667e-05, 0.0, 5.520645504791974e-05, 1.4654986131488464e-05, 9.795009340594964e-05, 0.00016689373994402436, 0.00022981674545545985, 0.0003664983636555453, 0.00044889678089496025, 0.0005799966528211179, 0.0007869597365360045, 0.0009062087361608089, 0.0010920533931148481, 0.0013499523277721844, 0.0015214623471755636, 0.0017677265730937845, 0.00202058132093831, 0.002308295258864422, 0.0025893179103041223, 0.0028749272449883814, 0.0031658338881440247, 0.0034874416091495645, 0.003876541537752533, 0.004204034923876915, 0.004546421745702492, 0.004859306942642936, 0.005245965568538843, 0.005619798298067755, 0.006043498530167198, 0.006419902965329572, 0.006835967797051953, 0.007223448358848458, 0.007663517960949639, 0.008135711406853437, 0.008516503724212181, 0.009000642358219287, 0.009385186961929505, 0.00982977553831442, 0.010292359631050558, 0.010786038860246202, 0.011192094094062178, 0.011674146130575129, 0.012125226556080433, 0.012584030207360907, 0.01306992970569725, 0.013561639393505784, 0.013986409747445751, 0.014458425572427028, 0.014937507915971284, 0.015385396993390796, 0.01590925812943029, 0.01631794070667411, 0.01685450395768457, 0.017240731680820246, 0.01771685456564768, 0.01817351418240656, 0.018677894734640963, 0.01912679056908194, 0.019547739774957256, 0.02002461887518802, 0.02042395191759435, 0.02091966924263427, 0.02129511939335903, 0.021746684717641695, 0.022207666339577384, 0.022653255683219995, 0.023021069074803408, 0.023447557266160025, 0.02387816826334154, 0.02428309266270419, 0.024700268245908392, 0.025145316017430027, 0.025502467976942764, 0.02587222001950665, 0.02632003582419757, 0.02664518176040474, 0.027049032830405658, 0.027465651254592018, 0.027773937190721947, 0.02816330358212314, 0.02851285293060415, 0.028908327130449777, 0.029240484108598027, 0.029601708118956058, 0.02993142308781217, 0.030296620483442196, 0.030663638660618428, 0.030999173454076205, 0.03136978921296815, 0.03165455996873464, 0.03204309675351866, 0.032389073948425384, 0.03270714121644318, 0.03298774279144449, 0.033334191025447046, 0.033676290627015985, 0.0340103148208463, 0.03437375557978738, 0.034745798423948565, 0.035025570205382696, 0.035392852243994355, 0.035727756610425196, 0.036107399066905514, 0.03645407660268731, 0.036765166610769534, 0.03713485806190299, 0.03754673869376043, 0.03792974984220234, 0.03825104657241923, 0.038659511899940074, 0.03900858467126459, 0.03943342877672972, 0.03984281332955393, 0.04030773818242747, 0.040674287819211855, 0.04112412825996755, 0.04158770271457014, 0.04208848393890244, 0.04250098145645612, 0.0429805528417711, 0.043490661856386954, 0.04404688789763452, 0.04456708201821211, 0.04511342032038907, 0.04563054260198731, 0.04622518371705285, 0.046832934781136155, 0.04744118505659495, 0.048127647886748996, 0.04872222874998963, 0.04940250101278554, 0.05011257910660225, 0.0508869495130428, 0.051603930927928116, 0.05237550682078515, 0.05318508920236483, 0.05400073747466536, 0.05484851349176831, 0.055713957674628764, 0.05664524109000016, 0.05757380470033308, 0.05848145912821914, 0.05951430841577587, 0.06055816757450517, 0.06163441510545276, 0.06266290490207957, 0.06384898438872894, 0.0650110350759542, 0.06618340181714023, 0.0673953388129789, 0.06871102817668043, 0.06998939000335573, 0.07132210187311762, 0.0727457957817451, 0.07412698111277442, 0.07563174498660508, 0.07710719123965057, 0.0786771553255696, 0.08030338682481702, 0.08188256605318411, 0.08358896155706408, 0.08529081692756076, 0.08707218431629095, 0.08894236558361635, 0.09076272877871888, 0.09270837677782534, 0.09461753631063441, 0.09663837249009036, 0.09872864044228352, 0.10083634901947996, 0.10303390909880365, 0.10520360076999896, 0.10747737257050363, 0.10979002209690518, 0.112192573909195, 0.11459422753758829, 0.11710538613508469, 0.11964361259962805, 0.12218576549592498, 0.12487614829511778, 0.1275432003141366, 0.1303073344750624, 0.13315329895304504, 0.13603688076679965, 0.13893912997683214, 0.14198797403073202, 0.14502148104300572, 0.14813843694151604, 0.15130197369917467, 0.15446817917001743, 0.15779484834743487, 0.16113572397377132, 0.1645088881174988, 0.16802865982292123, 0.1715311862728951, 0.17511168524380963, 0.1787408002565434, 0.1824720028528568, 0.18627057479628614, 0.1900604326419776, 0.1939757609797422, 0.19791589273854474, 0.20186301132282805, 0.2059411007480854, 0.21010514113591125, 0.21430573030180333, 0.2184978221540299, 0.2228343323224083, 0.22724106978379563, 0.23164133143612536, 0.23612635075467575, 0.2406749961196233, 0.24521446741769393, 0.24991869554330204, 0.254579533826062, 0.25942674750096256, 0.26423032841672794, 0.26908439079946167, 0.2740716350519622, 0.27906960552533144, 0.28406894685327183, 0.28921812877995295, 0.2943676246713602, 0.2995437901453225, 0.3048186089919769, 0.3101242549532255, 0.3155229811435594, 0.3209124489543285, 0.32633972171501013, 0.3318885549857492, 0.33745574687310004, 0.34300057653778004, 0.3486974221458801, 0.35438340097614146, 0.3600999381651184, 0.36589310559479565, 0.37174248035705904, 0.37758817816663853, 0.3835000996892736, 0.3893858132100351, 0.39541776116037364, 0.40141170745742144, 0.4074246664543087, 0.41356051807185107, 0.4196854446950587, 0.42578650133518336, 0.43197002429992243, 0.43821859316283546, 0.4443993552213686, 0.45073089707855457, 0.4570004651359956, 0.46325694995786215, 0.4696656070739656, 0.475965509518874, 0.48236151666130306, 0.48874816719157244, 0.4951671970279957, 0.5015963118771875, 0.5080356049550799, 0.5145141568219466, 0.5209682918849945, 0.5274457557062469, 0.5338854079615774, 0.5403701818172478, 0.5468775319956555, 0.5533697056485807, 0.5599155593045235, 0.5663915436482921, 0.5729236255722248, 0.5793876454417723, 0.5858647511089884, 0.5923865748205742, 0.5988263807134624, 0.6052910445698041, 0.611713232817087, 0.6182029504706633, 0.6246461921680067, 0.6310181977838993, 0.6373968305876102, 0.6438261664552485, 0.6501600354824579, 0.6564771649781754, 0.6627936704324539, 0.6690462213164917, 0.6752695186947065, 0.681510203699311, 0.6877217178147673, 0.6938715894728025, 0.6999554815897746, 0.7060409364364519, 0.7120967522649797, 0.7181052431201053, 0.7240445737760403, 0.7299294402961571, 0.7357965969146851, 0.7416144695503845, 0.747400039130829, 0.753074981693962, 0.7587560406947426, 0.7643466724658394, 0.7699539822185552, 0.7754464213162112, 0.7808604530554241, 0.7862083659871986, 0.7915167028019069, 0.7967469991176602, 0.8019304425020957, 0.8070713962464492, 0.8121004978330468, 0.8170509911604802, 0.8219382154217421, 0.8267642353394293, 0.8315459601637937, 0.8361558078207614, 0.8407916174275661, 0.8452465217225846, 0.8497302438997242, 0.8540287444870318, 0.8583139758672756, 0.8624683961448993, 0.8665650594728292, 0.8705658487950059, 0.8744372118854813, 0.8783119311602614, 0.8820267109547151, 0.8856504329313531, 0.8891358070298432, 0.8926104773428374, 0.8959118377490811, 0.8991994714272542, 0.9023208552435196, 0.9053694901162125, 0.9083160117371766, 0.9111290938389829, 0.9138424601873176, 0.9164621031568578, 0.9189926315680815, 0.9214024151447224, 0.9237633654114616, 0.9259435386497853, 0.9279792849410112, 0.9299644289261951, 0.9318642461992829, 0.9335587724506561, 0.9351948732456384, 0.9367923046335508, 0.9381369651114646, 0.9395004472926433, 0.9406519251802876, 0.9416830985094616, 0.9426722671950586, 0.9435021667428156, 0.9441774523518796, 0.9447791867472484, 0.9453106631554022, 0.9456600012820308, 0.9459076759517264, 0.9460029591287571, 0.9460142177732044, 0.9459002953362047, 0.9456768499149428, 0.9453303914507495, 0.9448615464357801, 0.9442827872422729, 0.9436097466960431, 0.942739005595104, 0.9418067363604471, 0.9407514737187537, 0.9395767937767571, 0.93826419435152, 0.936842535298557, 0.9353698942487566, 0.9336635469784529, 0.9319431000969401, 0.9299854008523468, 0.9279992752625279, 0.9259149809298453, 0.9236880048822808, 0.9213151299700605, 0.9188904150635081, 0.9163018203143353, 0.9136625598517091, 0.9108629469708859, 0.9079049896205531, 0.9049452777895352, 0.9017626337172876, 0.8985523427966866, 0.8952092637015817, 0.8917957193839984, 0.888271906484486, 0.8846070632053167, 0.880783446838163, 0.8769258354082016, 0.8730385544543934, 0.8689073542977496, 0.8647558642603603, 0.8605008373918632, 0.8562002370032412, 0.8516865171039866, 0.8471789070018675, 0.8425115225084228, 0.8378107215627315, 0.8330035262696917, 0.828102299539961, 0.823104332365878, 0.8180240518716443, 0.8128175048771163, 0.8075712624208201, 0.802246107364038, 0.7968550543726621, 0.7913648417362447, 0.7858161706099372, 0.7802099014750126, 0.7745195489032, 0.7686834057922668, 0.7628950880473556, 0.7569319296374186, 0.7509847530873688, 0.7449155182084576, 0.7387891573108636, 0.7326161038101039, 0.7264579448807815, 0.7201551798885428, 0.7137671349991471, 0.70742602971531, 0.7009357086146282, 0.6944729645131558, 0.6879639973318572, 0.68136363556573, 0.6746838495874996, 0.6680463451695551, 0.6613157347902663, 0.654577967740479, 0.6477985197787438, 0.6409810110938491, 0.6341838634418315, 0.6272921772024143, 0.6203392442916801, 0.6134023992246571, 0.6064796415157863, 0.5994749876706699, 0.5925191925375417, 0.5854846823868205, 0.5784169601571324, 0.5713753563278894, 0.5643427749883803, 0.5572867748103902, 0.550184951712183, 0.5431063035818184, 0.5360415249869058, 0.528919015898029, 0.5218414831955211, 0.5147522693671556, 0.507709875715619, 0.5006057094742213, 0.493524934485585, 0.4864623265142164, 0.47942242243819716, 0.47238992872295993, 0.46538934208853333, 0.4583713670911557, 0.4513987708504578, 0.44441139944445385, 0.43748199117288933, 0.4305703993239654, 0.42369641467147073, 0.41681258326475285, 0.4100388007551937, 0.4032225520170284, 0.3964047619859939, 0.3896732067540727, 0.38298689352405085, 0.376343153773176, 0.3697318162301365, 0.3631917777589471, 0.35666524530226895, 0.3501187186640594, 0.343680332856575, 0.3373462490078326, 0.33099014936591953, 0.32471579119939115, 0.3184129543234182, 0.312263021639933, 0.3061054536905092, 0.3000262396415957, 0.29401319458221603, 0.28810874086015387, 0.2821909693676666, 0.27633303897111045, 0.27053815798871417, 0.2648618242755994, 0.25923025348629036, 0.2535956264944317, 0.24811410825606287, 0.24263653734644572, 0.23731528007908861, 0.23200297162564523, 0.2267080310831174, 0.22159100275516613, 0.21647285216504206, 0.2114350384191282, 0.2065304927351658, 0.20167076973471815, 0.1968732974804077, 0.19213497367254023, 0.18751556990516385, 0.18289753691537758, 0.17843458000273307, 0.17402002263562918, 0.16968282946671925, 0.16548083191576435, 0.16127743848829473, 0.1571881837639937, 0.15320067397676165, 0.1492423255273223, 0.1454610339372226, 0.14163271196783309, 0.13795678997744304, 0.13441257916409072, 0.13083581749797016, 0.1274159886162143, 0.1240342844514409, 0.12081979503589639, 0.11762578936679012, 0.11450959887300872, 0.1114669118854587, 0.10849546864383786, 0.10569892692959593, 0.10290405621833502, 0.1002088819998101, 0.09754320003461002, 0.09502907569762516, 0.09255874239735463, 0.09023542007406217, 0.08790685588333966, 0.08568360637367944, 0.08354030815691585, 0.0814927500837524, 0.07950490011206006, 0.07761662892396892, 0.07579308253483534, 0.07400579943396735, 0.07237211175792525, 0.07078060070975373, 0.06918296640010721, 0.06780320175472321, 0.06636364080981495, 0.06504612747476421, 0.0638084130349939, 0.06263436858118401, 0.061578478972531235, 0.06054112431289306, 0.05953125979090646, 0.05868010708968162, 0.05781034070600145, 0.057049176106892086, 0.0563587819104975, 0.05566617588601619, 0.05510323684959955, 0.0545468781731684, 0.05413053768687297, 0.05366944576393897, 0.053349281942559404, 0.053077039738016495, 0.05278524190572784, 0.05263649243461522, 0.052481455351169555, 0.05238293145439643, 0.05235752770309039, 0.05231541290204254, 0.05236350726171238, 0.05246362104004201, 0.05265808862730144, 0.052787992966259384, 0.05301560505655257, 0.0533364167007856, 0.05356489424152611, 0.053908514543991454, 0.05429339850172812, 0.05470798117991166, 0.05513451160892803, 0.05560099896765724, 0.056074610261284165, 0.056634106037445744, 0.05714457215117932, 0.05774379102368136, 0.058336860335609496, 0.05896175891804184, 0.05958027697758096, 0.060235349748443426, 0.06094824432836505, 0.06161564798792066, 0.062392145584323995, 0.06305718443367617, 0.06380645493551991, 0.06451644853763554, 0.06527350471116804, 0.06610596374293395, 0.06684491630383851, 0.0676391621134786, 0.06835884536758279, 0.06919253427608395, 0.06990482683652784, 0.0707239539434839, 0.07147278173078218, 0.07229894724213654, 0.07302059929167255, 0.07377740913727288, 0.07454361906411125, 0.07528661515876985, 0.07602042420030522, 0.07672730492184117, 0.07749419929658433, 0.07818230435244033, 0.07883858755983579, 0.0794830575183554, 0.08009155972614297, 0.08074183772847367, 0.08135458500971682, 0.08193165399513101, 0.08248302585211624, 0.0830000162310843, 0.08352875252213167, 0.08398188349187446, 0.08444928505856364, 0.08487801251479679, 0.08527122808823999, 0.08565046920747031, 0.08594551799943281, 0.08625627388548186, 0.08654496701751728, 0.08677067697540097, 0.08697124891043205, 0.08710128242833053, 0.08725628288468444, 0.08734375986053773, 0.08738289356105083, 0.08734376166224155, 0.0873124472198863, 0.08725753439175629, 0.08718079655592964, 0.08702152522551455, 0.0868126879046306, 0.0865786020805001, 0.08626040937445732, 0.08589722866876011, 0.0855401775862893, 0.08511078295958455, 0.0846467091484903, 0.08412954379172208, 0.08357421766365182, 0.08295998386469562, 0.08231884620738518, 0.08157463827805184, 0.08086189290263728, 0.0800496125729554, 0.07916488346536707, 0.078311679433951, 0.07734481191825902, 0.07635036713691558, 0.07529328944993299, 0.0741545142940544, 0.07300019953406349, 0.0718214451025414, 0.07061226877230177, 0.06927077504761099, 0.06793490270512147, 0.06656497427170222, 0.06509418192666468, 0.06358540042420366, 0.0620910524251545, 0.06047983519464277, 0.05885182158714152, 0.05709714847795409, 0.05538902965273066, 0.053598149924678734, 0.05175117727454153, 0.049880447912059235, 0.04799594433500594, 0.04597907360841695, 0.04395075022738333, 0.04192351601518834, 0.03983643653788833, 0.03765022172938156, 0.035466933363397235, 0.0331968445129516, 0.030932413402591275, 0.028562760290016923, 0.0262273153257068, 0.023833308017107785, 0.021341602424151822, 0.0188788580146971, 0.01639170933619442, 0.013759453296547812, 0.011162857385151014, 0.008524408557105873, 0.005854634437573927, 0.003190284641411185, 0.00040013567503485427