0.06986195927310455, 0.06951463975580233, 0.06920539685248024, 0.06889766436468159, 0.06863134570250354, 0.06831136073423652, 0.06799923958066939, 0.06773658277692791, 0.06741331145377576, 0.06715303028515336, 0.0668857347697903, 0.06657998066352827, 0.066313735785314, 0.06602540559700693, 0.0657349500188472, 0.06544310578179989, 0.06517194909038161, 0.06492895449332774, 0.06462404492684672, 0.06436358166148846, 0.0640817111212171, 0.06381072690516919, 0.0635439387403982, 0.06325759661778489, 0.06301601391815166, 0.06276312482171999, 0.06249412465889172, 0.062218653586167794, 0.06195867439503214, 0.06171640804041011, 0.061432740449641976, 0.061210637720982036, 0.060942864827282825, 0.06064701047814889, 0.06038993032551068, 0.06016546889812513, 0.05993621554742877, 0.05967071185596878, 0.05941039579792536, 0.059189989276913844, 0.05893414463378597, 0.058691632167127354, 0.05848451027839973, 0.05825169812535975, 0.05805348748216165, 0.05781592368365741, 0.05756554311601548, 0.05738054946563225, 0.05718542182436625, 0.056976465718583204, 0.05679003635733229, 0.0565349614488564, 0.056368635804558774, 0.05612781699571231, 0.05592929987713372, 0.055756461651288315, 0.055586113566683734, 0.05540970397332941, 0.05522315692113493, 0.055020943916350755, 0.05487092614734667, 0.05472672505668573, 0.05455548942615614, 0.054397810587242884, 0.05421564267917512, 0.05410173809726683, 0.05395293638417534, 0.05379891073725743, 0.053670877858380414, 0.05351916125092865, 0.053414342268440114, 0.05325891310023894, 0.05316235797520987, 0.05307262042831761, 0.052903826461789004, 0.05282497523225327, 0.05270668911613563, 0.05260132978864893, 0.052516410473636733, 0.052412986973662215, 0.05234752070270765, 0.05226196459213898, 0.05221923162802487, 0.05212446510968528, 0.05207105066980265, 0.05202111815622693, 0.051939584939675036, 0.05192809822305474, 0.05185933932504437, 0.05184588363909266, 0.051781548975896395, 0.05175683109884099, 0.05175543843326477, 0.05172606604329295, 0.05173779827005553, 0.051729920630831185, 0.051690687578715366, 0.051740389862068, 0.051746272997367, 0.05175194515780149, 0.051773766082855895, 0.05180659929195186, 0.0518188510605175, 0.051863010747225144, 0.051942297095404384, 0.05200473671496758, 0.05206524608422437, 0.052105343838013275, 0.05219763983205199, 0.05225139084526601, 0.05240039638498549, 0.052439505590570576, 0.05253161723038255, 0.05265990139134577, 0.052757979359132165, 0.05286056664133707, 0.053006616250017215, 0.05314179850951621, 0.05325667939133788, 0.05339485025234588, 0.053536734234657074, 0.05369490389170813, 0.053866069043035286, 0.05403192205155546, 0.05418509063963633, 0.05437946618763468, 0.0545906324301139, 0.054781106801127286, 0.054978575895189716, 0.055202103344870634, 0.055414252022679425, 0.05562052328442571, 0.055825896403946924, 0.05605081846302365, 0.05632606694126845, 0.05656245284959184, 0.05678781332812193, 0.057085567139796595, 0.05729650286565504, 0.05759275837280891, 0.05783992148883757, 0.058155633323414106, 0.05841593975945119, 0.05873295153236272, 0.05902010887004701, 0.05933518134421122, 0.05962166330937535, 0.059969150081400115, 0.060277355223205875, 0.06063967906833941, 0.06094885436798675, 0.06127196688511033, 0.061609653144830745, 0.062006737735566274, 0.06232791037530414, 0.0626542994654216, 0.06305787366419827, 0.06343985987706076, 0.06377660667790207, 0.0641505827874514, 0.06453281772826393, 0.06491656598644771, 0.06531936219502293, 0.0657489272204864, 0.06612689749427628, 0.06652558486438918, 0.06695115828786533, 0.06739955612920694, 0.06777659253917649, 0.06820301694010153, 0.06861666884770087, 0.0690521944861362, 0.06948428422876719, 0.06991894486233688, 0.07037697403546148, 0.07081824177978419, 0.07127087929260913, 0.07167385083653001, 0.07214552198098581, 0.07254918889710202, 0.07305322276985185, 0.07347663009560615, 0.07394541037095738, 0.07442095840831736, 0.07487861986740806, 0.07535953826796364, 0.07581491521854931, 0.07630281977713128, 0.07673817631830762, 0.07723672969830762, 0.07768283467854184, 0.07814834746521288, 0.07865241417281858, 0.07909753033346077, 0.07958805052637416, 0.08004313536983161, 0.08051528144809826, 0.08097574984132437, 0.08143410834410283, 0.08192152344848684, 0.08236606065477262, 0.08285078799676904, 0.0833318416003026, 0.08376661679764111, 0.08428597217428664, 0.08468463213863063, 0.08519096870963949, 0.0856588163941295, 0.08608271292552448, 0.08652821085943602, 0.08700430338823359, 0.08744389629344948, 0.08786122151897341, 0.08830407254578848, 0.08875426812681776, 0.08921772926378292, 0.08960688167780216, 0.09002152349954418, 0.09045957516444757, 0.09088604945338144, 0.09128475318249757, 0.09168626864111629, 0.09209311168373706, 0.09245444797757801, 0.09288517715307663, 0.0932552552102177, 0.09366194384937146, 0.09401015029139151, 0.09438400829076223, 0.09476932197826847, 0.09511155085512064, 0.09542951856300283, 0.09579153387338962, 0.09610667520488579, 0.0964870979520242, 0.09678297331889425, 0.09706757310085427, 0.09737123967482156, 0.0976702124453156, 0.09792966059984873, 0.09823076898773236, 0.09849925292632297, 0.09877527379153281, 0.0989957259962518, 0.09925257626953128, 0.09952950408250358, 0.0997273947850007, 0.09994315968790717, 0.10014486383211803, 0.10036545062266866, 0.10054198052311454, 0.10068632160583266, 0.10084999619560639, 0.10105206605626191, 0.10113961954521726, 0.1012656022006809, 0.10144899014595966, 0.10150001165377187, 0.10160841936959193, 0.10172405258056111, 0.10176143363940642, 0.10186471072401353, 0.10187352921328745, 0.1019394619691268, 0.10194217888082083, 0.10198797550708916, 0.10198807826604481, 0.10195441881850843, 0.10196863626218744, 0.10194806677557385, 0.10186441484039192, 0.10180957204481027, 0.10176030034491297, 0.10164366997829101, 0.10155149167625763, 0.10142207988671274, 0.10128690803987941, 0.10117834958511163, 0.10097262945011512, 0.10084776732943487, 0.10063323277152736, 0.10044154985892326, 0.10025920859214708, 0.10006076164308403, 0.0997717286124666, 0.09953597078429766, 0.09927233764979182, 0.09901805758485777, 0.09869620446886623, 0.0984277590512639, 0.09811085646493546, 0.09772896486159426, 0.09741454571352721, 0.09706239995647734, 0.0966552010164751, 0.09624940914030748, 0.09583112886789635, 0.09543774605585174, 0.0949970704388734, 0.0945382636623709, 0.09410476061365033, 0.09359869566064957, 0.09314248933558297, 0.09265035800341664, 0.09213967042760192, 0.09156167771396276, 0.09105921001750827, 0.09051526802817823, 0.0899358450596956, 0.08934858398538931, 0.08875848969251215, 0.08816592551985432, 0.08755994400301184, 0.08686985260651156, 0.08626607727984062, 0.08559178588534241, 0.08490253021031831, 0.08420977485810748, 0.08356078050899382, 0.08281488735754143, 0.0821510078384958, 0.081359501810642, 0.08065440405668234, 0.07989465260070179, 0.07918283724151029, 0.07836577488721916, 0.07761489497747998, 0.07685592884808762, 0.07600024019526691, 0.0752211187332092, 0.07438619213958525, 0.07357354731922941, 0.07272738559173604, 0.07192245755256267, 0.07104425412333033, 0.07019022769995409, 0.06930494995071936, 0.06840353410707412, 0.06752987029057196, 0.06667360067603129, 0.06579287415050139, 0.06489132252291764, 0.06397826560074026, 0.06310128708549619, 0.062165279208855506, 0.06123443251364358, 0.060326229284642735, 0.05944792443511737, 0.0585129007856937, 0.05755514218877038, 0.056640718878369425, 0.05568754720294894, 0.054777906612230226, 0.05380425302673388, 0.0529007099760755, 0.05196574232135778, 0.05102318852523168, 0.050111981393278805, 0.049175998697233145, 0.048207395886959145, 0.04729495253895413, 0.046396704006618314, 0.04542727788207446, 0.044522406441505624, 0.04365309099438419, 0.042733880603120084, 0.041829687508730264, 0.04093290920633194, 0.04003894848280341, 0.03914888913122719, 0.038296035922529136, 0.037404554820107155, 0.03654504679755121, 0.03570342141242373, 0.03488321595114896, 0.03401138892073702, 0.03320610266510563, 0.03242845377970047, 0.03157166459766138, 0.030820348949913905, 0.030088537242267697, 0.029273026332565903, 0.028582906224696645, 0.02783439516653767, 0.027158257582086023, 0.026408190150235072, 0.025775646866515293, 0.025143252325960888, 0.02446723063412682, 0.023846248212725463, 0.02323604647334226, 0.022673333877038772, 0.022109188539658826, 0.0215369537404131, 0.021059087297506433, 0.02054927598570634, 0.020084722573747125, 0.01959366625366625, 0.019202338190393933, 0.018772800098332966, 0.01842875801685694, 0.018069655355698988, 0.017741474909587024, 0.01747216818343912, 0.01722145305315524, 0.016980436873651996, 0.016749507121267326, 0.016623229273613076, 0.01644882309783949, 0.01632375811926054, 0.016276231975360995, 0.016220821134582272, 0.016177927857237248, 0.016200572487108263, 0.016257675694131182, 0.01635987867649422, 0.016449998540511022, 0.016631668894925674, 0.016830540152454304, 0.017053678153756753, 0.01731331437533549, 0.017669607310293076, 0.018002832984496595, 0.018420453650998213, 0.018836087081383315, 0.019338287573211068, 0.019853955632525563, 0.020395910443755678, 0.020996860948569833, 0.021663945940080642, 0.022333261335235808, 0.023100527705538578, 0.023862260526235708, 0.02468155332559158, 0.02556256781880197, 0.026476041240271267, 0.02744028909178068, 0.028429203103617955, 0.029489178951721907, 0.03064820051778972, 0.031820077543481144, 0.03302648348525076, 0.03426440385050642, 0.03558310407889475, 0.036968296247897, 0.0383753598779307, 0.03985589579637402, 0.04136740741920363, 0.042972641491931404, 0.04457919861371062, 0.04626274513488862, 0.04801090429098291, 0.04978622806964581, 0.051629661162087996, 0.05351934644226022, 0.055463264646999494, 0.05748133671894812, 0.05956674593230636, 0.06166765558066173, 0.06387993129881007, 0.06612603840251907, 0.06841441645731682, 0.0707608521474783, 0.07317691411833566, 0.07564107721326917, 0.07819989296023873, 0.08074971983418473, 0.08342696014525533, 0.08613769710060598, 0.08886985845375153, 0.09173351932782393, 0.09459201079068284, 0.09752420865805501, 0.10052005449275361, 0.10360695343518185, 0.10670993187302164, 0.10989952380647064, 0.11311672328307713, 0.11642910791857108, 0.11980708534796614, 0.12322777470951451, 0.12668064586838737, 0.1302282822378324, 0.13379525250874957, 0.1375166218087642, 0.1412034364959221, 0.1449763736908098, 0.14881340966618464, 0.15272115162039773, 0.1566489517135215, 0.16067866234083136, 0.1647662637379303, 0.16885823498942404, 0.17304847406286492, 0.1772870612178898, 0.18160581854879687, 0.18591482931307593, 0.19032194323995877, 0.19484300630609155, 0.19933681467569242, 0.20392193632859573, 0.20856153918634235, 0.2132388163048042, 0.21800643950163187, 0.2227857280123449, 0.22761745217812393, 0.23256554242620076, 0.23751007630577126, 0.2424876517582202, 0.2475614232334494, 0.25269411217776616, 0.25782310385710067, 0.26303215053742407, 0.26831487600919995, 0.2735884568353341, 0.2789436967842435, 0.2843469580272816, 0.28977494022689565, 0.29528380089577544, 0.300820973351518, 0.3064116750923062, 0.3120306804958248, 0.3176995065507352, 0.32339551755975876, 0.3291656560080711, 0.3349187707301057, 0.34075611798394734, 0.3466165610090101, 0.35254472015803806, 0.35849569946342186, 0.36447712183614867, 0.37048427527846234, 0.3764902641741288, 0.38257259390677817, 0.38867505029292937, 0.39481482743223595, 0.40098224269269866, 0.4072238573187262, 0.4134037429722449, 0.4196636288309128, 0.4259141206612678, 0.4322353175393918, 0.43858919885185704, 0.44494000471259487, 0.4512735074870488, 0.45766862268772035, 0.46407277111633327, 0.47051791278039956, 0.4769748894649866, 0.48341484761432657, 0.48989138130672955, 0.49635586898395967, 0.502850491069431, 0.5093609986382034, 0.5158953675133139, 0.5223965346446001, 0.5289257504471511, 0.5354498981514934, 0.541973053055249, 0.5485705674336074, 0.5550881795295469, 0.5616467367840184, 0.5682013772766769, 0.574727544712826, 0.5812684721712099, 0.587823298121421, 0.5943334992421402, 0.6008375756235534, 0.6073858352361825, 0.6138830427394043, 0.6203427382892797, 0.6268591467942224, 0.6332745011684168, 0.6397563119281902, 0.6461686881711006, 0.6525788495689195, 0.6589818402604231, 0.665300486904583, 0.6716915320743779, 0.678006346375906, 0.6843123816014414, 0.6905592170182724, 0.6968189348065699, 0.7030507450860071, 0.709237043272411, 0.7153999092256712, 0.7215147061539149, 0.7275459554285814, 0.7336375090511364, 0.7396391039942661, 0.7455876738341709, 0.7515450583771156, 0.7573972356301374, 0.7632784369797697, 0.7690695193944832, 0.7748054038036272, 0.7805031196734343, 0.7861927327613017, 0.7918057464062384, 0.7973686221679213, 0.8028276780409077, 0.8082948206902099, 0.8137033282504462, 0.819053593906415, 0.8243649107939108, 0.829577429409309, 0.8347718152586783, 0.8398438258795164, 0.8449035303963561, 0.8499047883515715, 0.8548247610471532, 0.8596669133802903, 0.864445166555346, 0.8691643537168191, 0.873815262487226, 0.8783800096990917, 0.8829227305696289, 0.8872981369773704, 0.8917105788396222, 0.8959636859544758, 0.900218602804283, 0.904345754685018, 0.9084161735501425, 0.9123926181301186, 0.9163081312493384, 0.9201459697672214, 0.9238837950418725, 0.9275312756021601, 0.9311351554321362, 0.934630106699358, 0.9380503186562772, 0.9413763903311307, 0.9446016104922506, 0.9477437930532434, 0.95080111664617, 0.9538251884931803, 0.9566946279285347, 0.9595085169556437, 0.9622186143179284, 0.9648197249391034, 0.967348354530995, 0.9698264285615675, 0.9721705363752235, 0.9744226108800372, 0.9765886549710057, 0.9786547407627365, 0.980656365762165, 0.9825036227212292, 0.984311323860878, 0.9859968876515928, 0.9875966905253667, 0.9891057286758727, 0.9905066440860155, 0.9917944471359672, 0.9930075666044743, 0.9941255878891447, 0.995141420880237, 0.9960522779712794, 0.9969146132085823, 0.9976018637401343, 0.9982458717763626, 0.998800802828192, 0.9991853484346234, 0.9995760589355972, 0.9998081848497349, 0.9999556036918308, 1.0, 0.9999749473990314, 0.999788932351996, 0.9995486816442639, 0.999230160419829, 0.9987822804048523, 0.9983001642464172, 0.9976552070226274, 0.9968956076151726, 0.9961184402366616, 0.9951829675751782, 0.9941963556845927, 0.9930884833832709, 0.9918854465593485, 0.9906182393661275, 0.9892464799393069, 0.987795151997441, 0.9862491612037763, 0.9846275451335754, 0.9828629236645419, 0.9810527656548343, 0.9791413107214632, 0.9771389345003135, 0.9751075909339394, 0.972890008095406, 0.970640755333406, 0.9683114350775929, 0.9658592429820506, 0.9633585802849196, 0.9607723201386409, 0.9581409246597995, 0.955379933449347, 0.9525444568742624, 0.9496410128708517, 0.9466755237215322, 0.9436328583883127, 0.9404747638396987, 0.9372969729335417, 0.9340011327573786, 0.9306665995490002, 0.9272746322527486, 0.9238027542810905, 0.9202187746384212, 0.9165992551622344, 0.912932110119182, 0.909208843672835, 0.905362168353774, 0.9014744834841687, 0.8975365374441899, 0.8935701463865411, 0.8894850340786502, 0.8854067581154533, 0.8812648008889609, 0.877033402103126, 0.8727416478828889, 0.8684096225927133, 0.8640920839615025, 0.8596584885310826, 0.8551847615117472, 0.8507125092028959, 0.8461178617596496, 0.8415592484778303, 0.8369226699073035, 0.8322389815481791, 0.8275431847598642, 0.8227533849721763, 0.8180030679198051, 0.8131521713583025, 0.8083018099632008, 0.8034556038631643, 0.7985573038865363, 0.7936068057637554, 0.7886034528443026, 0.7836182778097243, 0.7786258027176879, 0.7735913317366617, 0.7685578162533598, 0.7634965282368514, 0.7583950562706508, 0.7533032118441451, 0.7482063789660605, 0.7430945605705931, 0.7379121802520352, 0.7327822338193457, 0.7276352335452249, 0.7224910900765124, 0.7173121571983536, 0.7121609543836241, 0.7069929168246888, 0.7018228358651581, 0.696625794916379, 0.6914998963899526, 0.6863126541425295, 0.6811507808031286, 0.6760294960178695, 0.6709329490960932, 0.6657672454152901, 0.6606518505261785, 0.6555801209858308, 0.6504986669821226, 0.6454437991016588, 0.6403658652099026, 0.6353901582606791, 0.6303442970438842, 0.6253664449355523, 0.6204068138866308, 0.615442828631689, 0.6105096568503384, 0.6056186862523779, 0.6007426213380759, 0.5959298403925556, 0.5911656401645398, 0.5863471110953039, 0.5816283126652035, 0.5769526404645811, 0.5722890338023198, 0.5676559068117277, 0.5630412182052452, 0.5585033899721629, 0.5539962519469471, 0.5495009756179553, 0.5450933018385109, 0.5407152129441665, 0.5363602881079687, 0.5320791784919879, 0.5277889414343179, 0.5236154913136896, 0.5194504219830772, 0.5153257042437984, 0.5112571060351443, 0.507230630221106, 0.5032992117250675, 0.4993840026827783, 0.4955502188535601, 0.49173133006081887, 0.4879744348480753, 0.4842827060880606, 0.48063758686248687, 0.4770699257207174, 0.47358811454105065, 0.47008058766553423, 0.46664259159678567, 0.4633384420541301, 0.46002159362554795, 0.4567983034938459, 0.45357741512188776, 0.45046861843679564, 0.4474015869578335, 0.4444091381400305, 0.44149265692049977, 0.43860814614876353, 0.43577109778450207, 0.4330214541177801, 0.4303194582417112, 0.4276995612593233, 0.4251564022999082, 0.4226536483918703, 0.4201752153972619, 0.41782529257969014, 0.4155078100027014, 0.41320788086416055, 0.41101877477705556, 0.4088878253846417, 0.40685559740874844, 0.4048292448062061, 0.4028572567747959, 0.4009906877573633, 0.39912305890150274, 0.3973792626295547, 0.39570533557924203, 0.3940422444424921, 0.39244618351253313, 0.3909285365834391, 0.38944025427515183, 0.38806973514281956, 0.3867257122947811, 0.38544879877966937, 0.3842133895556275, 0.3830398346362084, 0.381938556758467, 0.38085547185466234, 0.3798536769013378, 0.37893845422828004, 0.3780253475293505, 0.3772314612398688, 0.37642987231478975, 0.3756993037940208, 0.3750004681996294, 0.37433446219329836, 0.3737986154336365, 0.37325229902961876, 0.3728110389029664, 0.3723754080149498, 0.37198373703024246, 0.37166536276658596, 0.3713757024565517, 0.37112828708315626, 0.37093336549201117, 0.37074637852684084, 0.37064256981493865, 0.37059876660186686, 0.3705935973359496, 0.37059744151366447, 0.37064011344414777, 0.3706881473986914, 0.370854386072319, 0.3709846134465373, 0.3711983290045112, 0.3714190456515107, 0.3716473329403407, 0.37192832497955924, 0.3722594720979611, 0.37260498769678735, 0.37299915108210574, 0.3734088542331055, 0.3738092010227104, 0.3742977685437985, 0.37475608324097653, 0.37529011918637295, 0.3757898093559626, 0.37635644237918664, 0.3769065404598689, 0.37749525653190574, 0.3780835904733927, 0.37868798751576144, 0.379341122601938, 0.37997480837334335, 0.3806454646144784, 0.38128701081994487, 0.3819331751905586, 0.3826258339536676, 0.383361935384988, 0.3840435158218029, 0.3847511059896525, 0.38544034246022507, 0.3861778847536364, 0.3868669876842823, 0.38765021101069175, 0.3883005929659806, 0.38906518733199585, 0.38972199670542385, 0.3904556812124369, 0.39120044089776307, 0.3918966230756204, 0.39254934927782426, 0.3932462929572396, 0.3939358997512376, 0.3945873578555177, 0.3952303321111087, 0.39588537278895564, 0.39648961338504707, 0.3971162384722034, 0.39770613742040206, 0.3982854701166488, 0.398851240773443, 0.3994217355946023, 0.3999239629986532, 0.40044063629924187, 0.40097218868873086, 0.4014070249085204, 0.4018296453026099, 0.4022843585173549, 0.40265609478233205, 0.40306023261854107, 0.4033748015408506, 0.40367673955579636, 0.40394838986329323, 0.40424452555542073, 0.4044296717518743, 0.40465455344530166, 0.40480469849821904, 0.40497648735235975, 0.4050502335743697, 0.4050889552446338, 0.4051501658300026, 0.4051797990058375, 0.4051734772063026, 0.4050785163514212, 0.40500621312793567, 0.40482955081616934, 0.4046552216036147, 0.40446644660266917, 0.4042157790652369, 0.40394587585175723, 0.4036040783516564, 0.40322746120025743, 0.4028279572409065, 0.40239437565375397, 0.4018634129281587, 0.40137468619420286, 0.40081821587597466, 0.4001750543968476, 0.39955089414085054, 0.3988240724485109, 0.3981468236442288, 0.397336126823421, 0.39652101535705037, 0.3956677168581521, 0.3948021585649432, 0.39385401465227, 0.3928771267943595, 0.3918305774956639, 0.3908014578849518, 0.3896942174919645, 0.3884967595873007, 0.3872788143889453, 0.3860660642786335, 0.3848000413271406, 0.38346728207944414, 0.38209319255546736, 0.3807365078561103, 0.37926630525645355, 0.377781094968384, 0.37624365508921204, 0.3746631835657187, 0.3730963972533266, 0.37143548546812205, 0.3697299016285964, 0.36803092499835877, 0.36627246304576205, 0.364451855809396, 0.3626360545224475, 0.3607362327664635, 0.3588429017690605, 0.35688617233242487, 0.35489988441374015, 0.3528877325883311, 0.35080663700555964, 0.3487151056047403, 0.3465856103561251, 0.34441831602824824, 0.34226738084977876, 0.339992802695543, 0.33773809155349654, 0.3354804579316143, 0.3331711229480006, 0.33081701095669447, 0.3284360641216964, 0.32605097277774825, 0.3236400987590076, 0.32116062396888506, 0.3186710891516422, 0.31618201044184757, 0.3136390986644655, 0.31109669457649214, 0.30852887249326694, 0.3058940059594273, 0.30331219715930746, 0.30066367209267447, 0.2979972927076706, 0.2953300308401249, 0.2926027514402461, 0.28993929314047395, 0.2871833485845611, 0.2844262241848262, 0.28173081530998867, 0.278914609717297, 0.27617158443299467, 0.2733535988598851, 0.2705741797080007, 0.2677596791115236, 0.26496170170561617, 0.26215546712824134, 0.25928547313559425, 0.2564606630750235, 0.2535951728110858, 0.2507873215056395, 0.2479261704227047, 0.24507534841246603, 0.2421880128509897, 0.239389324251792, 0.23650437002273858, 0.2336634246114943, 0.23084985854670317, 0.22798752957262183, 0.22514836681792802, 0.22230599304651752, 0.21951881301837944, 0.21669282107269155, 0.2139301517161882, 0.21108133299243595, 0.2083175909519146, 0.20556196900233795, 0.20277668801104898, 0.2000253528239311, 0.19730542837872064, 0.19459552024830049, 0.19188436947939536, 0.1891820657617903, 0.18654593762877475, 0.18386185231250984, 0.1812334179230989, 0.17863388233109687, 0.17603374868691193, 0.17344598835125102, 0.1709469499541433, 0.16842077428487376, 0.16590372771622883, 0.16341914630261822, 0.16099934711358052, 0.15857717217412864, 0.15618544613952118, 0.1538203102189557, 0.15148109650471256, 0.1491622637604397, 0.1468838998160031, 0.14467490125997223, 0.14240036335158143, 0.14021782085798623, 0.1380748580138459, 0.13597196352857277, 0.13387667405172504, 0.13178267953533945, 0.1298033862447603, 0.1278110576362521, 0.12585612330103885, 0.12396184262993272, 0.12206374509394222, 0.12021802222005074, 0.1184581330598429, 0.11664911035535394, 0.11496125822875708, 0.11325303663829496, 0.11162360241226664, 0.11002429761660411, 0.1084340922911145, 0.10689675415681862, 0.10537942568582652, 0.10396113820654757, 0.10252952465911577, 0.10115258554798501, 0.09985279198591102, 0.09852958636570479, 0.09730542562847516, 0.09609181894560603, 0.09493345057365225, 0.0938349835020902, 0.09276441561330706, 0.09171371595108102, 0.09071869968592967, 0.08975487255251315, 0.08885704076225737, 0.0879902495463863, 0.08713982590716249, 0.08637741598073248, 0.08562391957484265, 0.08490345754956184, 0.0842092208977818, 0.08360469473339589, 0.08307385964758389, 0.0824996498105982, 0.08199253698957883, 0.08153600482416248, 0.0811147831642421, 0.08076079823266656, 0.0803927277563906, 0.08012863762581376, 0.07986074207942331, 0.07963624881056962, 0.07944737988462917, 0.07932735913371118, 0.07922097828386679, 0.07917684156836105, 0.07912498847664734, 0.07910671415564756, 0.07913216487267566, 0.0792564429002948, 0.07935136977493243, 0.07946545090521628, 0.07967189211602962, 0.07985741723670864, 0.08011820646016478, 0.0804446213420552, 0.08072904978966172, 0.08109101310333425, 0.08145070314289823, 0.08190226358949998, 0.08230360446295355, 0.08280082370348803, 0.083300443340032, 0.08380222594491729, 0.0843482105065803, 0.08492069997886996, 0.08553211892453898, 0.08617236611931389, 0.08682800733141802, 0.08752565206911388, 0.088213223701736, 0.08893403541248333, 0.08966297012426558, 0.09045984648400408, 0.09122812107413597, 0.09207403001382498, 0.09286213397890133, 0.093752491007719, 0.09460317874692141, 0.09551296055972328, 0.09639786201026951, 0.09732166596334195, 0.09824027708909994, 0.09920744508957524, 0.10012113675008925, 0.10112391150831503, 0.10210463149046513, 0.10307462612204292, 0.10407411579572663, 0.10508398203710438, 0.10615048550075293, 0.10713924596603362, 0.10815521637819331, 0.10920522731788611, 0.11028493275773654, 0.11131661030821335, 0.11239641937148237, 0.11344158429563206, 0.11451368338185466, 0.11552357050431869, 0.11662882917072202, 0.11769242244833227, 0.11872291010506089, 0.11983357736208496, 0.12088152240001422, 0.12193300192350442, 0.12299702909560595, 0.12404328593270628, 0.12503748285538926, 0.12612712926658495, 0.12714035064323667, 0.12816871122180615, 0.12916143238163666, 0.1301772034327268, 0.13116376656681134, 0.1321522714818527, 0.13314332267031673, 0.13411286033273068, 0.13503703722273072, 0.13599365502048932, 0.13694446166158153, 0.13783686739739237, 0.1387659056213933, 0.13963147792165895, 0.14052359483494956, 0.14133430432386102, 0.14221461762675774, 0.14300929632405127, 0.1438197217547153, 0.14460454967134367, 0.14533295543402988, 0.1461041574314174, 0.14682018538825237, 0.14752668256402623, 0.14820061436906345, 0.14887045152591086, 0.14950730446804586, 0.15013230637308259, 0.15070356773512203, 0.15133130936487676, 0.15184015411204363, 0.15240946092515595, 0.1528911180406362, 0.15336190738062613, 0.15385241695375393, 0.15427992319877257, 0.15468371269054598, 0.15502016178115136, 0.15536679505335643, 0.15575546213219393, 0.1560138163819886, 0.15627191531118748, 0.15654877291271793, 0.1567577854423877, 0.15694070500205634, 0.15711836358196618, 0.1572881327699742, 0.15735287522583954, 0.15744160614582137, 0.15751429184372956, 0.15754612831891684, 0.15757922390854406, 0.15751765688768737, 0.15746272591189703, 0.15739388937574456, 0.15729357632266258, 0.1571386969960015, 0.15698556530254246, 0.15677667133620352, 0.15654275376446275, 0.15629296253534725, 0.1560478062361218, 0.1557482561369327, 0.15538235417434487, 0.1550069825525255, 0.15462618472551945, 0.15424239088562935, 0.15376871453555957, 0.1533150437228745, 0.15282194592487341, 0.15229502092272013, 0.1517753991052505, 0.15122555982366595, 0.15058748178897846, 0.14999937434375096, 0.1493466051076721, 0.14867333234654892, 0.14795683161377907, 0.14724396262164502, 0.14649835415809992, 0.14569426086417386, 0.14493870690513033, 0.14410746650964085, 0.14324122618923948, 0.1423853031301627, 0.1415055355861815, 0.14060329362437848, 0.13967983705536552, 0.1387713092564031, 0.13776296850573, 0.1368265648621856, 0.1358263160663813, 0.13479694564250175, 0.13372073488055278, 0.13267837106725924, 0.13156612506997264, 0.13047173847247193, 0.12935590790699525, 0.1282346865159784, 0.12711617292907326, 0.12593222876621363, 0.12473485809712341, 0.12353853933717084, 0.12239085264162443, 0.12115672271884383, 0.11990878305707221, 0.11862885207854994, 0.1173825015566661, 0.11615130906788163, 0.11486850376736697, 0.11359015534912674, 0.11226736162674385, 0.11098618036898805, 0.10968405160387512, 0.10834076825475486, 0.10703490877822322, 0.10569411203768321, 0.1043434521800249, 0.10294729385223421, 0.10160583949642521, 0.10022862578812343, 0.09887949483620148, 0.09755656282601612, 0.09613386506285138, 0.09479148402910095, 0.09339608834821435, 0.09198828331104753, 0.090620046065266, 0.08926060799740798, 0.0878905090325109, 0.08650911525517457, 0.08513561728631076, 0.08371985980192509, 0.08233151203496714, 0.08100644831765007, 0.07961048398526047, 0.07823855579771556, 0.0768877318203587, 0.0755395508399345, 0.07415198570584407, 0.07286143462728138, 0.07149579519751263, 0.070134601012531, 0.06877116860614113, 0.06747850480460836, 0.0661368698342062, 0.06486877810997747, 0.06359283005889435, 0.062299575122611694, 0.06095457890369232, 0.05969991795211293, 0.058481677273594976, 0.057228273692415274, 0.05597659522894882, 0.05476562050823322, 0.053530020762457324, 0.0523386853567807, 0.0511198095008262, 0.04999660495684651, 0.048814754540687524, 0.04765069862742784, 0.04651370706628874, 0.045333736474478706, 0.04427889074428542, 0.04315592420873163, 0.042082317150715, 0.04099212641760415, 0.039956337986556754, 0.03893759647170996, 0.03791310561728835, 0.036903933144421835, 0.03593856779060034, 0.03498946021374393, 0.03402367849089374, 0.03306915817665982, 0.03216070042107996, 0.03127513208300688, 0.030399089610702187, 0.029526986285126275, 0.02863951761050196, 0.027803284253214523, 0.027003478696650842, 0.026238259212035573, 0.025419366847611334, 0.02465764922774124, 0.02392736136657318, 0.02322982244357343, 0.02252263002150544, 0.021849285125818886, 0.021174408391428017, 0.02055173184785756, 0.01991428112561241, 0.01933881369184595, 0.018745535566152823, 0.018212017018318327, 0.017613297410542753, 0.01711385469494307, 0.016602794578704932, 0.016089314769016254, 0.015635221657184947, 0.015173736773831666, 0.014762790940117622, 0.014309677255989703, 0.013943422841521048, 0.013559664692707068, 0.013231982138190837, 0.012897672790160668, 0.0125449963570918, 0.012305905094648696, 0.012023723579775674, 0.011771560658863426, 0.011537854116476464, 0.011292914599103785, 0.011087327680386887, 0.010909967807177855, 0.010781738475468398, 0.010663008733644317, 0.010499603327386, 0.010412054867095467, 0.010318450767493745, 0.010244136850846354, 0.010152903645982654, 0.010117911877704765, 0.010138352706576124, 0.010154103846116869, 0.010130815885490144, 0.010194200283815501, 0.010232176101404552, 0.010319136727333676, 0.010374551385627229, 0.010499847804277387, 0.010633657952361925, 0.010821710812661499, 0.010936511781043268, 0.011120378918260622, 0.011323658799723404, 0.011526460362089503, 0.011723196869889605, 0.011996522749749924, 0.012217131622494581, 0.012513117396784793, 0.012779892628724084, 0.013074696215063011, 0.013397540852775945, 0.013701357941972483, 0.014086923491152111, 0.01442373185159146, 0.014824139635571379, 0.015220848031890173, 0.015660905909838173, 0.01606830871302357, 0.016510128111973974, 0.01698328197898871, 0.017452475537658756, 0.017927481910551324, 0.018446108360386786, 0.018947789319855197, 0.019497185295310367, 0.02000977891018794, 0.020576874125486155, 0.021138925635057634, 0.021722705648619993, 0.02234584849452522, 0.022979886067881396, 0.02357597894086177, 0.024249522635018565, 0.024871300447648043, 0.025603704991830012, 0.026272400182562206, 0.02697674404891368, 0.027710835654081625, 0.028436975226076657, 0.029178600755962496, 0.029957856242306718, 0.030782431717062377, 0.031553438970770835, 0.03232476124616845, 0.033173362078992186, 0.033999299502109566, 0.03484154493676179, 0.035732751225540246, 0.03664151159555685, 0.03753421810424001, 0.03846576973947789, 0.03934817431385601, 0.040336755676747646, 0.041260946389363055, 0.0422655262100661, 0.04326928400222445, 0.044305204541981065, 0.04532171416747732, 0.046381800901811765, 0.047421020243694274, 0.048511402276848394, 0.049624567416882044, 0.05076694577040518, 0.051911176892151425, 0.05301728424166742, 0.054216243625144905, 0.05543052025211509, 0.056582659084218175, 0.05783051361495243, 0.05909998260765182, 0.06033662720341523, 0.061645398563503415, 0.06294376966563114, 0.06429392955276741, 0.0656318167880983, 0.0670059089746184, 0.06840080442061193, 0.0698244450239285, 0.07124387746048745, 0.07274548854043576, 0.0741941007784464, 0.07570447875066583, 0.07722763811574916, 0.0787854359781511, 0.08034585439913419, 0.08198122697895596, 0.08357921830248524, 0.08523923364030227, 0.0869077022434694, 0.08862740092227062, 0.09032610597984146, 0.09209069145976614, 0.09384966735471002, 0.09565522280134203, 0.09754759667511403, 0.09940542007899772, 0.10129487245753911, 0.10319005190129926, 0.10517495073368653, 0.10712814847090518, 0.10911898698459639, 0.11117916061509277, 0.11326666517837704, 0.11535882412349321, 0.1175124098630029, 0.11966042122648504, 0.12183454689881251, 0.12410186274710573, 0.12631929346801676, 0.12861883614979017, 0.13097208518219883, 0.13333770662271893, 0.13570296964122805, 0.13813511876514847, 0.1406333175457135, 0.1431347998337581, 0.14565264226999902, 0.14822716052250545, 0.15087203244664474, 0.15352260551664498, 0.156172092814411, 0.15891170845284153, 0.16165902537111576, 0.16444883441263544, 0.16726883011180138, 0.17018910577850746, 0.17308250758655838, 0.17599433265638192, 0.17899421023601297, 0.18201389202028923, 0.18509207039235157, 0.1881769877414382, 0.19135066755409583, 0.19450630590483795, 0.19778215884889339, 0.2010139519781453, 0.20431423861737713, 0.20766507105612947, 0.21112495934849246, 0.21451244681689977, 0.21798467898683027, 0.2214908335563162, 0.22504791443057376, 0.2286488294295946, 0.23227439764934302, 0.2359562079114166, 0.23968455676907435, 0.24340902776745862, 0.24722221975859057, 0.25105092719639194, 0.2549726727259379, 0.25887279371724353, 0.26286613306601075, 0.2668359819467018, 0.2709119714659855, 0.2749976696147354, 0.2791310622651522, 0.28328180427488137, 0.28752346911994137, 0.291791246087424, 0.29606371509754514, 0.3004290625770387, 0.30474991413468483, 0.30919362974688946, 0.3136368560547184, 0.31812879397781246, 0.32267432506928784, 0.3272189155108874, 0.3318028296249078, 0.33642554197933733, 0.34111806335665906, 0.34584995685085423, 0.3505691956687802, 0.35537526514964557, 0.36019838249743225, 0.3650651456550843, 0.36996983625469165, 0.3748511933045744, 0.3798314029840103, 0.3848285090310021, 0.3898706161570446, 0.3949151277926894, 0.39998187402094604, 0.40512609312211745, 0.4102374122475963, 0.4154549031798055, 0.42059051656083446, 0.4258164292201046, 0.43109813358390636, 0.4363725893984229, 0.44167732129757437, 0.44701635048665966, 0.45234914934179365, 0.4577545943620133, 0.4631272582131271, 0.46855407534304294, 0.474038110859362, 0.479446681083877, 0.48496652166115406, 0.49045417199477204, 0.49594658044761625, 0.5014624631748927, 0.5070108414827859, 0.512565555584744, 0.5181375720574553, 0.5237186148103982, 0.5292757148927226, 0.5348996705522219, 0.5405101857766201, 0.5461032017300902, 0.5517017570791191, 0.557329842661405, 0.5629582207867614, 0.5685696053378988, 0.5742052515549556, 0.579851213200205, 0.5854960322077858, 0.5911117294373741, 0.5967279019160401, 0.6023376328426732, 0.6079855726323589, 0.6135723367183719, 0.6191649464675023, 0.6247582000541727, 0.6303403376431111, 0.6359029469474553, 0.6414243547069263, 0.6469633618731625, 0.6524884507236169, 0.6579888548716669, 0.6634675803883727, 0.6689434545516857, 0.6743727146907319, 0.6797933530087089, 0.685176701932526, 0.6905712822534916, 0.6959039832008559, 0.7012520017158194, 0.7065007870783858, 0.7117639868546339, 0.7169783129445231, 0.7221947781643752, 0.7273240334410096, 0.73242322575845, 0.7375526221786282, 0.7425401588837258, 0.7475824870929011, 0.7524995351861739, 0.7574419167680135, 0.7622807832773751, 0.7671272793133397, 0.7719055303445781, 0.776590195703509, 0.7813196771045405, 0.7859358313292973, 0.7904786966446211, 0.795032463932918, 0.799508204598067, 0.8038862912433395, 0.80826102179853, 0.8125565728227353, 0.8167843016194158, 0.8209632743834413, 0.825081400667552, 0.829117623548346, 0.8330992581086616, 0.8369777525125842, 0.8408440228948058, 0.8446443810551213, 0.8483496381827922, 0.8519626748618745, 0.8555090865997126, 0.859011869186233, 0.8624461444513286, 0.8657828614190709, 0.8690775638608396, 0.8722563941861872, 0.875360101757675, 0.8783803409360271, 0.8813555477593076, 0.8842199804740655, 0.887023157559812, 0.889733125220595, 0.8923409815209103, 0.8948875979086685, 0.8972996760085704, 0.8996595539566293, 0.9019322894144118, 0.9041333817235355, 0.9062272136916486, 0.9082623241196506, 0.9101456114695813, 0.911983307762865, 0.9137135590110914, 0.9153555007359471, 0.9169260878093454, 0.9183786819394306, 0.9197491174231077, 0.9210095565429586, 0.9221627357711625, 0.9232328975133369, 0.9242273426448565, 0.92511955503178, 0.9259171102661363, 0.9265798651658094, 0.9271893498799216, 0.9276821618697116, 0.928041143255392, 0.9283471392039118, 0.9285428307843334, 0.928665492251494, 0.9286399553913568, 0.9285497193648381, 0.9283502316303961, 0.9280637629111085, 0.927679501165667, 0.9271669011196072, 0.9266134306938907, 0.925895557578352, 0.9251231655849055, 0.9242226019614145, 0.9232210586075352, 0.922139557085549, 0.9209688662423827, 0.9197007980718788, 0.9182970121363317, 0.9168339740797282, 0.9152697034334129, 0.9135881017577178, 0.9118050015200059, 0.9099576099396123, 0.9080282771517952, 0.9059371046927402, 0.9038146883415351, 0.9015912338439387, 0.8992572815501563, 0.8968494311978717, 0.8943442091413951, 0.8917285904175856, 0.8890402318490644, 0.8862697746251079, 0.8834064545797071, 0.8804496181549853, 0.8773920289197198, 0.8742888354619085, 0.8710612783032189, 0.867746224865956, 0.8643645532778993, 0.8609343981775873, 0.8573524917678512, 0.853763102154411, 0.8500267880027004, 0.8462675738783587, 0.8424241612899412, 0.8384976285655478, 0.8344830851948036, 0.8304078079665612, 0.8262494985028289, 0.8220467109355698, 0.8177821135537819, 0.8134151331527949, 0.8089674779795719, 0.8045285627123094, 0.7999397161441034, 0.7953016538687132, 0.7906568660459797, 0.785879878813327, 0.7811004823192995, 0.7762472735049027, 0.7713583075855804, 0.7664248555145988, 0.7613745721186339, 0.7563088711904833, 0.7511859502999872, 0.7460531090557744, 0.7408434114428848, 0.7355650101108053, 0.7302965682043271, 0.7249612655429106, 0.7195607979513579, 0.7141775426716506, 0.7087328949455108, 0.7032129440702197, 0.6977105922714565, 0.6921691351070057, 0.6865727327321124, 0.680967454811352, 0.6753054134805266, 0.6696255476437164, 0.6639841794613075, 0.6582669656941438, 0.652496479039701, 0.6467814097981889, 0.6410116694357542, 0.6352238847133761, 0.6294273064570378, 0.6236309335729932, 0.617838855183396, 0.6120179176291914, 0.6061991067048745, 0.600352427427289, 0.5945304578927199, 0.5886677846370713, 0.5828208375672954, 0.5769685311375521, 0.5711297417238532, 0.5653183350986414, 0.5595037032333621, 0.5536951601848938, 0.5478499995360038, 0.5420592031634864, 0.5362649682786886, 0.5304975729614192, 0.5247797247579343, 0.519012108402106, 0.5133500202035075, 0.5076305830514244, 0.5019238709030872, 0.496317538152868, 0.49070059209407163, 0.485090671985578, 0.47952710617093675, 0.4739629213688004, 0.4684801968271865, 0.46297318210366395, 0.45754125288627745, 0.4521094544527878, 0.446770381970111, 0.4414497938344765, 0.43612840667652725, 0.43085715070332337, 0.4256558051449653, 0.4204804644517925, 0.41533060122889437, 0.410290176733319, 0.40522224892333747, 0.4002885785401697, 0.39530836783209944, 0.39041338522362423, 0.38560548797660155, 0.38081441022803114, 0.37608684532167497, 0.3713492825284381, 0.3667443453746647, 0.3621811517990479, 0.357636498728279, 0.35315551237849224, 0.34876289860042603, 0.3444313460768629, 0.34011742337846396, 0.3359107593178503, 0.3317300407412806, 0.3276284036469187, 0.32361279418019173, 0.31963259837008917, 0.31567962662383475, 0.3118165623146904, 0.3080526571961378, 0.3043220347023724, 0.30065096023637344, 0.29707545291819076, 0.2935552042039345, 0.2900670072345199, 0.2866726515479689, 0.28335154720785266, 0.2800567064721625, 0.2768971151281171, 0.2737200678142841, 0.2706784563151266, 0.2676729394594896, 0.26477396334597036, 0.26189212480664315, 0.2590906011601041, 0.2563660786324922, 0.2537210085950208, 0.25117115411697183, 0.2486167558820486, 0.2461848256170804, 0.24379051879551966, 0.24144073986906872, 0.23923356513863142, 0.23705145283275939, 0.2349035581287059, 0.23286709416720155, 0.23086002168898087, 0.22894122883477375, 0.2270799858151721, 0.2253267355314208, 0.22357541829547534, 0.22188064943305208, 0.220271099482467, 0.2187455075451165, 0.2172568410399493, 0.2158396784741007, 0.2144966181492679, 0.21318779758235787, 0.2119421221922397, 0.210791301539567, 0.20965322611943848, 0.20859730812875005, 0.20757841834416027, 0.2066045443623326, 0.20570262042979404, 0.20484898217756048, 0.20409083517018306, 0.20332263617327986, 0.20260852015227435, 0.20197294389445494, 0.20138552481537259, 0.20081231083383366, 0.20035332725446006, 0.19984570799032828, 0.19945748938555571, 0.1990787864155017, 0.19878677890402366, 0.19847860582011276, 0.19826153835775964, 0.19805808383662196, 0.19785306646189316, 0.19776114549532942, 0.19766187943456398, 0.19760170334240176, 0.19755790902053552, 0.19756388193809746, 0.1976395978659789, 0.19766649875088932, 0.19775459865025258, 0.19789701304298016, 0.19803208160340474, 0.19818423264031088, 0.19839921381718345, 0.19862077697336397, 0.19884607228680448, 0.19910690640910905, 0.1994027985086288, 0.19965222853749998, 0.2000067075533592, 0.20030061220001957, 0.20065293601118736, 0.20099580170587952, 0.2013554739569386, 0.20168741048774239, 0.20209172109094992, 0.20247532173102398, 0.20280576093512506, 0.20325079723895342, 0.20363495754305613, 0.20399453366999792, 0.2043821151578857, 0.2047783148770204, 0.20516700384130768, 0.20553767387168417, 0.20590748229232603, 0.20627076162914254, 0.20665916776506518, 0.20696708429858574, 0.20732976854475638, 0.20766949724546632, 0.2080205218712659, 0.20831914628147014, 0.20856722537848446, 0.20886804455913913, 0.20914047661011184, 0.2093360545064517, 0.20957093619951553, 0.20972783228993, 0.20993594077359717, 0.21003286101535457, 0.21018221559875078, 0.21026051983402058, 0.21036479908163572, 0.21043489835721263, 0.21041269664639806, 0.21041696523291709, 0.2103450360666296, 0.21028888350988947, 0.2102038592531484, 0.21004597186827476, 0.20987097719754252, 0.20970270446061162, 0.2094742659413816, 0.20913547508348648, 0.2088413002300763, 0.2085210551047558, 0.2080767639962079, 0.20765965936231842, 0.2072054412579366, 0.2066669147166067, 0.20609284697614988, 0.20552077087087264, 0.20488116826496175, 0.20419732975381297, 0.20344460579940332, 0.2026895897867937, 0.20188208144466976, 0.20101889563041522, 0.20013781225034513, 0.19916163183121696, 0.19818461462206602, 0.1971200053846043, 0.19606595499697535, 0.1949077984608578, 0.1937364507500911, 0.19247944109010076, 0.19116206739943972, 0.1898648475391824, 0.18850104024617495, 0.18704154760336084, 0.18556108009021074, 0.18401822351594607, 0.18244930456805108, 0.18083725823142957, 0.17915973698016396, 0.17743332771731535, 0.1756778017795063, 0.17384390600664484, 0.17199180392824456, 0.17008980464221127, 0.16807982961217133, 0.1660743263231447, 0.1640311292527749, 0.16190787442821428, 0.15976961658094319, 0.15756638380320023, 0.15529743114939673, 0.15300481842301922, 0.15064636607560442, 0.14824685221625963, 0.14582638921364038, 0.14331786410991448, 0.1408001326191974, 0.13826229973070264, 0.13558639485118568, 0.13295588121495364, 0.13026121911547237, 0.12753987461953, 0.12477073312204164, 0.12192529375007724, 0.11908926961823985, 0.11616151740641678, 0.11320041667262251, 0.11027670766218006, 0.10724016967460825, 0.10421389437969915, 0.10106310062984177, 0.097989729931894, 0.09480985373520585, 0.09161836620383007, 0.0883899361791921, 0.08515903058151289, 0.08185334567956182, 0.07853081047508853, 0.0751822610989927, 0.07183602323127092, 0.06842888592073845, 0.06501101636259632, 0.061574427335741706, 0.05808376074015073, 0.054595125034534016, 0.05106585679639888, 0.047556287373782896, 0.04398794286731977, 0.04036723736291163, 0.03681999096572054, 0.03317194697053429, 0.029519119340008344, 0.025875836811333323, 0.022230051567908495, 0.0185730993486247, 0.01487059460220686, 0.01116768082736303, 0.007456053109312099, 0.0037388956504155065, 0.0