0.04159206191642865, 0.0410380994711207, 0.0405332294185666, 0.04009096547332382, 0.03968453547004903, 0.039289719403781585, 0.03892127381129915, 0.03857714336296085, 0.03823034149121967, 0.03793761114845669, 0.03763093176493363, 0.037322803331052645, 0.0370469762510849, 0.036728910735582335, 0.03649287104182279, 0.036193342086304245, 0.035961389864140283, 0.03567812746502426, 0.03539082626301047, 0.0351353964525445, 0.03488011136451828, 0.034666348795951936, 0.034394334918455664, 0.03416633385385856, 0.033949093527637884, 0.03369324247948196, 0.033437857529912796, 0.033225856380881914, 0.033028809550712364, 0.032808939213808036, 0.03264317760827065, 0.03240878393542678, 0.032255585828391685, 0.032078916280043564, 0.03188859433143273, 0.031761218225180674, 0.03160727080252439, 0.03142662489680736, 0.03132556601738772, 0.03119207822770893, 0.031105972817165657, 0.031019033655209607, 0.030943514922195953, 0.03085172265905232, 0.030797814626453437, 0.03078996741181964, 0.030746387754718375, 0.03070471577519242, 0.03073983518734714, 0.030762266197288817, 0.0307792257641427, 0.030835333683719574, 0.03088127659174401, 0.03091581120705269, 0.03099855138343377, 0.031111914002760414, 0.03126590644842999, 0.031346674682876066, 0.03149896144296187, 0.031680546410675595, 0.0318577167063938, 0.032013749994419353, 0.03222263881017771, 0.032454815105534544, 0.032706522849619744, 0.032945466619738656, 0.03321970147960403, 0.03352694392704668, 0.03381753424182099, 0.03414961465032904, 0.03450364739858309, 0.03482376638429194, 0.03523712139638392, 0.035618962727458965, 0.03601352871021245, 0.03644042497691944, 0.036853732393018146, 0.03736072178630999, 0.03779522321150678, 0.0382983709511928, 0.038823595229867454, 0.03935794456621704, 0.039923158513633476, 0.04045672185915091, 0.04109865472841466, 0.041694012639947195, 0.04233149072071342, 0.042954901505044725, 0.04361508418534475, 0.04433614923434776, 0.04501475566285106, 0.04578461963422646, 0.046484919946730575, 0.04729757835232177, 0.04806825076998693, 0.04886141056584617, 0.049716127833531035, 0.0505374828064496, 0.05140021722710717, 0.05232552377058134, 0.053233522035104945, 0.05414939674083392, 0.05508859827065726, 0.05607268945435446, 0.05710322131906107, 0.05809719870026474, 0.05917097438400923, 0.06021667657671161, 0.06127706608839182, 0.06243661776845438, 0.06354698309440014, 0.06468719418716005, 0.0658539972898389, 0.06706719964960571, 0.06828085827432004, 0.06949379598727216, 0.07074969543046046, 0.07203161286446834, 0.073339273007941, 0.0746604938690874, 0.07604874046540291, 0.07736380202938081, 0.07879719289552536, 0.08016930641758559, 0.08162578810968464, 0.0830649693920318, 0.08453168116688003, 0.0860751726075667, 0.08757275099452629, 0.08912218239925467, 0.09065375685608072, 0.09224129678510948, 0.09383772855151921, 0.09548380522333821, 0.0970885291800179, 0.09879701490968848, 0.10045428063341773, 0.10212160898369811, 0.10388442436937576, 0.10558637960574299, 0.1073466126331374, 0.10916248638426346, 0.11090288034724713, 0.11272660453228808, 0.11456084448223745, 0.1164474097415677, 0.11830278412123651, 0.1201619781187406, 0.12209525352861747, 0.12398593916582824, 0.12590244638683057, 0.12784929178716106, 0.12983292420234244, 0.131793210417504, 0.1338028628842271, 0.13578741083230988, 0.13782129184021816, 0.1398499056179386, 0.1418890207008205, 0.1439459154792342, 0.14601984597047266, 0.14810912339488988, 0.15017496527692206, 0.15232068127657697, 0.15441967311755234, 0.15656091741855763, 0.15864892235798891, 0.16081394113138414, 0.1629713977064172, 0.16515409584296353, 0.16729564664979402, 0.16950401562991035, 0.17165271075783134, 0.173889150700844, 0.17607687662364147, 0.17825176068955528, 0.18048629126910187, 0.18267874150066507, 0.18487930113860085, 0.18711962447881336, 0.18932999642576626, 0.19157927697860228, 0.1937783083704698, 0.1960049035326624, 0.19824780339928685, 0.2004473226576985, 0.2027148892996064, 0.2049174344530249, 0.20719930633806172, 0.20939905426912023, 0.21161369451354123, 0.21386561834737447, 0.21607058838774526, 0.21827746083924737, 0.22047019752888852, 0.2226745841332528, 0.22487806010687902, 0.22706324299583128, 0.22923637907088862, 0.2314306157319072, 0.23360029308730101, 0.23577740357281454, 0.2379460615270767, 0.24005322679776975, 0.24219889901529576, 0.24434910772822324, 0.2464344015389067, 0.24851971474952547, 0.25063777787743174, 0.2527241256107624, 0.25476271458753635, 0.2568160402686477, 0.2588215010418449, 0.2608578321983143, 0.26289681137453214, 0.2648589856581449, 0.266828937572111, 0.26875495291177665, 0.2706876564092644, 0.2726200107513266, 0.2745403271879152, 0.2763814800368316, 0.27823836301467103, 0.28008554176010636, 0.28190717703900886, 0.28372439704351177, 0.28547025255932634, 0.2872067388172774, 0.28897686493685987, 0.2906831763600841, 0.2923579116294327, 0.2940041573447541, 0.2956224935023619, 0.2972338756173684, 0.29880681859895575, 0.3003904545545469, 0.3018762548348156, 0.3033637595227936, 0.3048605377899404, 0.30631015852161514, 0.3077038972162256, 0.3090962526199564, 0.31045538790338784, 0.31176022407654175, 0.3130659379904335, 0.31432873587221427, 0.31557543405444066, 0.3167685434459111, 0.3179761271308277, 0.31907191716064354, 0.3202117861887909, 0.3212633166590589, 0.3222973938977931, 0.32330818089695573, 0.32429450532120074, 0.32520212254045705, 0.32614182928102947, 0.3269949501869646, 0.327829632300145, 0.32861533303583645, 0.3293737034156748, 0.3301242142720666, 0.3307936743582926, 0.3314799284052603, 0.33206916979282053, 0.33269667924280777, 0.3332185640243333, 0.3337268083823983, 0.3342058930030549, 0.3346528309911067, 0.3350641619012545, 0.33544515253741064, 0.3357371513921325, 0.3360603036060172, 0.3362900206569033, 0.3365175820065001, 0.3366967844605943, 0.33682079621619204, 0.3369011113974384, 0.336981600597349, 0.3370057855127685, 0.33702021845430663, 0.33695894716974606, 0.33690373076874347, 0.3367696648353124, 0.33658795659761576, 0.3364039457925196, 0.33618015801827816, 0.33591455136361703, 0.33559497107067926, 0.33525157679055956, 0.3348910626076778, 0.334474255500947, 0.3339954033897814, 0.3335553631554566, 0.33301312042645226, 0.3324183116379846, 0.33185105764666495, 0.3312285103684553, 0.3305382835038096, 0.3298397804588442, 0.3291030010949315, 0.3283378468436034, 0.3275597929972997, 0.3267325353367832, 0.32586388178650033, 0.32497978365095226, 0.3240110728235982, 0.3230506860122638, 0.32204936819120394, 0.32103295677385585, 0.3199862938665169, 0.3189262041386515, 0.3178076279987818, 0.31662424976085357, 0.3154404166594792, 0.31424640984267793, 0.3130013302187188, 0.31179636270285316, 0.31047248826196006, 0.30918037741102716, 0.3078225107607035, 0.30647142013960904, 0.3050410126608298, 0.30363417686379984, 0.3022160665514727, 0.3007281135860817, 0.29925115546524383, 0.2977758239443453, 0.29621118927058, 0.2946891886145656, 0.29309914395445635, 0.29150582864807245, 0.2899134786205997, 0.28826540706000137, 0.28659133800805964, 0.28494933858164084, 0.2832682747784227, 0.2815369390367926, 0.279806512827029, 0.2781233197126395, 0.2763412452003227, 0.2745725245056132, 0.2727889035294226, 0.27103467632078115, 0.26919534257617433, 0.2674151465492834, 0.2655559414542303, 0.263718093417356, 0.2618848598446578, 0.26002783439180377, 0.2581666621947243, 0.2563152081611857, 0.2544322817648215, 0.25253973763644916, 0.25062764521998154, 0.24872929071551755, 0.24682311968830856, 0.2449140838338527, 0.24300935219840028, 0.2410813314251556, 0.2391863819614663, 0.2372803121353481, 0.23536340829244984, 0.23341328073139928, 0.23151666307699156, 0.22956951407955703, 0.22764831581537393, 0.2257356448052016, 0.22383045329504064, 0.22191604897065112, 0.22000754499125363, 0.21814543274746756, 0.21623391758536248, 0.21434487890620266, 0.21244645370155293, 0.2105500417567365, 0.20866848483063033, 0.2067995415369347, 0.2049357740074054, 0.20308761683002177, 0.20125664358744297, 0.19944687331014332, 0.19762998658939082, 0.19578126803829982, 0.1939776716094455, 0.19223927144021247, 0.1904512096395819, 0.18868874768652816, 0.18690026004715102, 0.18520125948168442, 0.18344920385288985, 0.18176325223869136, 0.18007686488440278, 0.17838112567380474, 0.1767000542858064, 0.17508423730828196, 0.1734136158523294, 0.17182544137160327, 0.1702008014762769, 0.16865372816705032, 0.1670946809295096, 0.16550134565644248, 0.16398861088343256, 0.1625142332607128, 0.160984289743122, 0.15953481530544475, 0.15810963788925805, 0.15667234770102542, 0.1552271938016565, 0.15387926810513783, 0.15251070108844741, 0.15115162886198985, 0.14979871599380098, 0.14853957258632, 0.1472219619083782, 0.14598005561924896, 0.1447616086652027, 0.14349300655478298, 0.14233184868796064, 0.14116645000503378, 0.1400106800080721, 0.13890513020177878, 0.13780699064512564, 0.13671332079665233, 0.13566420382764746, 0.13466566497565421, 0.13364711537436075, 0.1326585875530286, 0.13171566831984854, 0.13078316085640215, 0.12989103511372435, 0.12897569444016, 0.1281601844677517, 0.12730821227442193, 0.12650803924253803, 0.1257008801872445, 0.12498091517595794, 0.1242223797893504, 0.12351996056260435, 0.12284686952825666, 0.1221721719243276, 0.12156696521492967, 0.12095236557834209, 0.12034295440072118, 0.11978420194461449, 0.11926313756448075, 0.1187894916026285, 0.1182910848462078, 0.11781989382519002, 0.11741718225936587, 0.11698477599391097, 0.11662751081647939, 0.11625058769228278, 0.11589920166949186, 0.11560596032487881, 0.11535201578067297, 0.11507664319389645, 0.1148512927093822, 0.11460071009130522, 0.11442074747618206, 0.11429695295824453, 0.11414979449320338, 0.11403034657599827, 0.11394750415277022, 0.1139044867896831, 0.11383428618320597, 0.11383798622163072, 0.11386655290235052, 0.11386976966750254, 0.11393810186460454, 0.11402425287857709, 0.11412698281492854, 0.11426114736894451, 0.11441640708666552, 0.11459553347986592, 0.11478184784145332, 0.11498612605131657, 0.1152528248082262, 0.11550297332295267, 0.11580384958142091, 0.11615283582889474, 0.11645478012997891, 0.11685111127978139, 0.1172259883665391, 0.11760991250424564, 0.11804576725418472, 0.11852891065890951, 0.11899873708919168, 0.11947647910647648, 0.12000932510703662, 0.12057217764751205, 0.12114199451882038, 0.12173010093962007, 0.1223429511621918, 0.12298886401495221, 0.12362330522784405, 0.12428609011274976, 0.1250354101772508, 0.1257563008114192, 0.12650230796265785, 0.12725387655126788, 0.1280573295620525, 0.1289092185466088, 0.12973273537826951, 0.13060415733573294, 0.13148801610322466, 0.1324112652168505, 0.13332046775590967, 0.13430610241390503, 0.1352729907947895, 0.1362926591228171, 0.13729416379342327, 0.13836122611230248, 0.13945135282042884, 0.14052899814817815, 0.14163404089480194, 0.14281376710841276, 0.14396668499900392, 0.1451558805098399, 0.14638392908308964, 0.1476327597185335, 0.1489033060164098, 0.15018710000013755, 0.15150432613314765, 0.15281631299983564, 0.15420018607239902, 0.15562363509065474, 0.15702795431624078, 0.15845761654965468, 0.15994237300470848, 0.16142692821571908, 0.16296433471115992, 0.16449631210358445, 0.1660622666434684, 0.16767470751140182, 0.16932809448281017, 0.1709578962107707, 0.17264720745644255, 0.17434345147764274, 0.1760946017666348, 0.1778836164511128, 0.17964942419205104, 0.18149583560344462, 0.18332612085750247, 0.18524205497631566, 0.18715232090262343, 0.18907782611778545, 0.19106960121009844, 0.19304549525594236, 0.1951085078017269, 0.19716774616525454, 0.19926635473512813, 0.2014148892964493, 0.20357623198177138, 0.20573255342891453, 0.20796323619784823, 0.21019558855493464, 0.21252833146807829, 0.2148253545209141, 0.2171915836015287, 0.21960328564948223, 0.22198750993696104, 0.22447406313946208, 0.22696723423660706, 0.2294718175328741, 0.23202851867668045, 0.23464492310353585, 0.23726837580442825, 0.2399431806319924, 0.2426569395060355, 0.24540808879002787, 0.24813958772903813, 0.2509549408440514, 0.25379664607089836, 0.25670313862765587, 0.2596287274436108, 0.2625830114505229, 0.2655472954760025, 0.26861091027076744, 0.2716612699302859, 0.2747797752624275, 0.277897429762393, 0.28107720103938394, 0.28431328351598667, 0.2875922490417844, 0.29087894493136013, 0.2941884755210161, 0.2975864908996277, 0.3010110149747559, 0.3044167274958186, 0.30791518865846446, 0.31146797532694687, 0.3149951015244561, 0.31861402771223263, 0.32222216482153826, 0.32590636750977636, 0.3296323340394033, 0.33338874379374256, 0.3371653296277502, 0.34100298366540843, 0.34486183916651025, 0.3487511206582055, 0.3526817146160455, 0.35664954361153106, 0.3606614944425907, 0.364707991648875, 0.36879878383795683, 0.3729025679199672, 0.3770908065686871, 0.3812775744002753, 0.38551005867868005, 0.38972848712669717, 0.3940174958845089, 0.3983464894143409, 0.4027377291706121, 0.40708354957754894, 0.41154675577850247, 0.41596698229031026, 0.420483709431777, 0.4249970099903711, 0.4295348270048813, 0.43409951294309346, 0.4387250052378089, 0.4433254767523054, 0.44801598853103375, 0.4526921517910561, 0.45745163192973737, 0.4621707788800884, 0.46693492182762053, 0.47172561068907626, 0.4765526148451393, 0.4813933136808005, 0.4862467617527767, 0.49113876429478903, 0.49603779151728494, 0.5009790246460722, 0.5058900387854451, 0.5108557591850625, 0.5158417823760898, 0.5208169256706561, 0.5258530523691941, 0.5308706472671311, 0.5358686830373082, 0.5409636025079989, 0.5460108337808789, 0.5510426868150557, 0.5561231402237543, 0.5612135275587642, 0.5663193612659756, 0.5714143459149096, 0.5765120612301442, 0.5816224973890629, 0.5866988614563219, 0.5918237513359441, 0.5969104994594454, 0.6020330451157867, 0.607117903790246, 0.6122265559488296, 0.6172868398883744, 0.6223685021277836, 0.6274407926272321, 0.632518568957993, 0.6375754500200391, 0.6425865391069712, 0.6476165729087419, 0.6526140446852688, 0.6576098406349936, 0.6625892182163533, 0.6675431418493574, 0.6724688358804813, 0.677408431357201, 0.6822917141295033, 0.6871035301423812, 0.6919623493592616, 0.6967541609325427, 0.7015068974025189, 0.7062658315824493, 0.7109898373513679, 0.7156258039961222, 0.7202671508253521, 0.7248503847950539, 0.7294158081178431, 0.733940081688595, 0.7384167073175464, 0.7428076366126393, 0.747211781864748, 0.7515633898393469, 0.7558266306752813, 0.760040232080587, 0.7642490207155843, 0.7683553921614474, 0.7724220281180044, 0.7764826975305005, 0.7803909978784919, 0.7842956484766058, 0.7881212398553628, 0.7918774547290519, 0.79556386361063, 0.7992078532645341, 0.8027833831667816, 0.8062770793264928, 0.809708244866561, 0.8130908353463455, 0.8163369913049257, 0.8195712409709234, 0.8226723144321595, 0.8257478730279624, 0.8286852114530031, 0.8315662477687645, 0.8343973739859476, 0.8370967210917873, 0.8397557676054728, 0.8423096462734758, 0.8447452918839748, 0.84713403851346, 0.8494003371948575, 0.8515544975087387, 0.853702111810018, 0.8556608047747057, 0.8575952945461137, 0.859367058425903, 0.8611024321156158, 0.8627156533813869, 0.8642042804789882, 0.8656275164187379, 0.8669035434320346, 0.86812342150092, 0.8692260860412674, 0.8702146014770101, 0.8710980830994313, 0.8718645181492185, 0.8725304502538364, 0.8730862464504957, 0.8735616988352108, 0.8739089970254323, 0.8740932572839697, 0.874219304472827, 0.8742464164761058, 0.8741195950358666, 0.8738685552660016, 0.8735257593921213, 0.8731132565780659, 0.8724961320783258, 0.8718544024362596, 0.871040128974591, 0.8701008817814069, 0.8690738847570586, 0.8679365313846915, 0.8666425162256691, 0.8652801881618295, 0.8637893177143574, 0.8621491358160882, 0.8603965240699906, 0.8585648214171141, 0.8565813470123702, 0.8544486568865125, 0.8522288420189837, 0.8499454893690509, 0.8474883975182953, 0.8449144415972046, 0.8422091503430355, 0.8394151976419663, 0.8364996180801176, 0.8334773505260469, 0.8303602331291207, 0.8270957522947492, 0.8237052805528391, 0.8202369727505657, 0.8166403499989608, 0.8128762517575853, 0.8090621346105238, 0.8051602790126933, 0.8010871056427192, 0.7969470167468891, 0.7926931414441333, 0.7883052514570746, 0.7837933383083672, 0.7792430096735764, 0.7745550361216574, 0.7697646770718736, 0.7648729655392547, 0.7598839008272246, 0.754772974488488, 0.7496187636720477, 0.7443101039397074, 0.7389492064143629, 0.7334610117475472, 0.7278653016047922, 0.7222272956681083, 0.71649580262431, 0.7106281664337384, 0.7047203765244182, 0.6987250654292969, 0.6926137362697413, 0.6864751810126033, 0.680214292940247, 0.67383785162454, 0.667483517299996, 0.6609919979939795, 0.6544492891245074, 0.64778738846979, 0.6411063165358837, 0.6343765833867525, 0.6275358940339086, 0.6207008189923371, 0.6137119795624029, 0.6067354658082226, 0.5996775522001182, 0.5925634967301445, 0.5854395337350833, 0.5782258578637459, 0.570948013208014, 0.5636450079527837, 0.5562945908192127, 0.5489232019071285, 0.5414866317059902, 0.5340504009343537, 0.526584614862817, 0.5190487042285568, 0.5114740245657518, 0.5039397750711566, 0.49633521073849324, 0.48870006149269046, 0.4810814829883991, 0.4734393203125775, 0.46576835353962937, 0.4581044441680768, 0.4504268175067815, 0.4427379077618078, 0.4350497841071935, 0.4273333547007607, 0.41965582334848184, 0.4119673949862752, 0.4043022845881074, 0.3966031869603334, 0.3889402414775587, 0.38129214686512475, 0.37366794314427126, 0.36608854609264607, 0.35847032316339805, 0.35092765825482514, 0.3433960859149438, 0.3358508954494973, 0.328399323076269, 0.3209844732589746, 0.3135350733493086, 0.3061967714034063, 0.2988829742804193, 0.2915716856055566, 0.2843701612880802, 0.2771547532236677, 0.27001133775075925, 0.2629523673667994, 0.2559297628576552, 0.24896463726955578, 0.24207503564717472, 0.235204383350906, 0.2283910899167145, 0.22171218583789115, 0.21504006631340408, 0.20849933648290536, 0.20200209316204193, 0.19558466847629594, 0.18921926476644443, 0.1829672556467333, 0.17675936774793338, 0.1706730778989485, 0.16464526004166685, 0.158747972325205, 0.15290226383418565, 0.14714531308327886, 0.14151074494297242, 0.13594100523714797, 0.13044127539570427, 0.12509060058562851, 0.11980616074875976, 0.11464033361176541, 0.10960899316362724, 0.10461505414849932, 0.09979346765187859, 0.0950339682397493, 0.09036960309350235, 0.08584732257311356, 0.08144545604855087, 0.07713140727582014, 0.07289742060303003, 0.06882234270075283, 0.06489602069284255, 0.0610087721424798, 0.05730417227043735, 0.05369171690290976, 0.05016052550046955, 0.04682179903181645, 0.04352526945988334, 0.0403958986293616, 0.03737462590821395, 0.03448238112801029, 0.031724881321685744, 0.02910163362759461, 0.026566066588008877, 0.024151165171683323, 0.021875752194129367, 0.019728381273759178, 0.017697246401781056, 0.01581361423175507, 0.014016884369672586, 0.012390890245761559, 0.010839753013011908, 0.009435750596534053, 0.008209535130334141, 0.007015199860447103, 0.0059807726199690835, 0.005081464841652222, 0.004309966889166715, 0.003675770151019403, 0.0031509794349733455, 0.0027128832672866495, 0.0024199946491458074, 0.0022366335693913735, 0.0021979449148027846, 0.0023034823447453633, 0.0024787495178233893, 0.0027868686680045758, 0.003183094232414696, 0.0037294668332017136, 0.0044200820852087755, 0.005162132944497989, 0.006063936753508609, 0.007055733340177634, 0.008163368668770562, 0.009388858591802284, 0.010712633308499446, 0.012158049383306726, 0.013667177895995747, 0.015304388917238178, 0.017062421814172245, 0.01889576666131697, 0.020849821979356534, 0.022908901649478133, 0.02501780486027408, 0.027260874329304456, 0.029620458197596396, 0.03201607285281425, 0.0345284890757629, 0.03711822152230468, 0.03979927528254702, 0.042605673778489006, 0.04545415460293906, 0.04837761811511321, 0.051366229752422964, 0.05447363060320708, 0.05760063790419583, 0.06085255359071917, 0.06417151490800449, 0.06755124587812675, 0.0709519640904698, 0.07445416316480367, 0.07803908914613789, 0.081659699151403, 0.08536014121309697, 0.0890545835388404, 0.0928638975032787, 0.09673030481772778, 0.10063469561552821, 0.10452187145873651, 0.10853251792025263, 0.11256266539977071, 0.11660073290123658, 0.120713326604755, 0.12481999557837826, 0.12899552612781698, 0.13321236910739737, 0.1374169617754731, 0.1416589196810715, 0.1459285161312897, 0.15023634132764097, 0.1545419774529221, 0.1588548873161424, 0.16321398813644603, 0.1675644878494353, 0.17192399991721882, 0.17627410199631632, 0.1806375790435124, 0.18504492197305514, 0.1894093076956665, 0.19376917935009885, 0.19814364028725936, 0.20249137422678692, 0.20683088909740796, 0.21120729293479812, 0.21549959302550153, 0.21981110084422875, 0.22409899558905205, 0.22837811576572117, 0.2326068309308159, 0.2368324990574929, 0.24105254283021754, 0.2451857566094958, 0.2493265701199771, 0.2534311822105081, 0.25753331543917585, 0.261564768183306, 0.26555403505396175, 0.2695015453039818, 0.2734314689271173, 0.27729030143657707, 0.2811259226150465, 0.2848873530329005, 0.28861766550333934, 0.2923117868817698, 0.295927713406659, 0.29948906764813954, 0.3030147660896686, 0.306510130567103, 0.3098974506789264, 0.3132566837546668, 0.31655373755600635, 0.31976675945188043, 0.322896108701736, 0.32602117775005485, 0.32906457026169467, 0.33200978185742486, 0.3349224312728738, 0.33776866220567153, 0.34050167514626006, 0.34322869222879104, 0.3458112129990604, 0.34840881733523377, 0.3508556786568858, 0.35328204728912066, 0.35559312792453995, 0.35788542316554567, 0.360055594411461, 0.36216464897140177, 0.36419558175159406, 0.3661328487602758, 0.36802265617968993, 0.36982399796775484, 0.3715482045930676, 0.37321283743813044, 0.37478486351158585, 0.3762897261780486, 0.37771689478959963, 0.37906970757660463, 0.3803258067350979, 0.38149925959372755, 0.3826177753721358, 0.3836621176178589, 0.38464629174180454, 0.3855020944990996, 0.38633658887946565, 0.38709564396013224, 0.38773637378999426, 0.3883257541044759, 0.38885388693516026, 0.38932968825763736, 0.38966936079236325, 0.38998901080498277, 0.39023103717231133, 0.39038163912219803, 0.3904977686058147, 0.3905587356091609, 0.3904948820630289, 0.39045860996352527, 0.39025840739400125, 0.39008836286741366, 0.38980340223827253, 0.38944977860052077, 0.3890523039688272, 0.38860589363483744, 0.3881044559324657, 0.3875471889555128, 0.3869353517447835, 0.38627652289475456, 0.3855832082704416, 0.3848258005909579, 0.3840201573376298, 0.3831757359507679, 0.38228421048014943, 0.3813565863021254, 0.3803915859840696, 0.37938619640826804, 0.3783824500969581, 0.37728874996518647, 0.3761898147780122, 0.3750460482107412, 0.37391618873058147, 0.37274809652295915, 0.37151882216949755, 0.37031130502991394, 0.3690654578324369, 0.3677755668140689, 0.36651454752402296, 0.3652634564560185, 0.36392238205305905, 0.36261382198047276, 0.36131761897942594, 0.35999826646726696, 0.3586828010515693, 0.3573495171400956, 0.35606174003794483, 0.35472171820797915, 0.3534210997928502, 0.35215052822925075, 0.35082551216722657, 0.34958306142570733, 0.3483142612408939, 0.34710192479831264, 0.34588294085067167, 0.34470070884748216, 0.34352737891580626, 0.3423964677169401, 0.3412528347378336, 0.34019084549841005, 0.3391175926538801, 0.338114149995477, 0.3371145350033161, 0.336215244297086, 0.3353111749608614, 0.3344582432246088, 0.33361574023321433, 0.33287126578431175, 0.332180341277312, 0.33152405909917787, 0.3309295974094155, 0.33035583895738485, 0.3298785908800362, 0.32944255351037194, 0.3290932364370807, 0.3287605213838265, 0.32851339021092846, 0.3283777048482807, 0.32822258780693275, 0.3282259902136026, 0.32822457212624345, 0.32832334885153774, 0.3285330238438267, 0.32875341550732734, 0.32912207883131106, 0.3295034057639331, 0.3300057921190225, 0.3305718177744164, 0.3312445068890706, 0.3319750804119448, 0.3327841716700473, 0.33369930999830216, 0.334725312177045, 0.33579059644723785, 0.3370001621124139, 0.33823201130012287, 0.3396328609437085, 0.3410518842884606, 0.3425958907129179, 0.3442558113973122, 0.3459620834842314, 0.3478075012359025, 0.34971004169109005, 0.3517246890374973, 0.35385885946087753, 0.35602683908485866, 0.358336102188692, 0.3607876607645321, 0.36324456740831396, 0.36584994980333124, 0.3685704128323591, 0.37135610611193753, 0.3742287124268412, 0.37724223399536533, 0.38030679813746265, 0.38351770745610947, 0.3867801562312144, 0.390151922906273, 0.3936396530483004, 0.3971826444509363, 0.40083681563843626, 0.4045854029416999, 0.40843949042280914, 0.4124080192865588, 0.41644381868637115, 0.42053581432768933, 0.4247723723350384, 0.42906435772394724, 0.4334503551392811, 0.4379758806573322, 0.44252687717123096, 0.4471662875240089, 0.45190289042720305, 0.4567360991128574, 0.46165181878499223, 0.4665822062951157, 0.4716579530611971, 0.47678478849980716, 0.4820369160889524, 0.48730172910157493, 0.4926703581366937, 0.49808109002466366, 0.5035373491899664, 0.5091167945341949, 0.5147408202820686, 0.5204664167708865, 0.5261713399404495, 0.5320006469599502, 0.5378207888504923, 0.5437844824594115, 0.5497262634107472, 0.5557713566052616, 0.5618176170507745, 0.5679405155395542, 0.5740593553374843, 0.5802674729049958, 0.5865180993090062, 0.5927424623041642, 0.5990871994131236, 0.6053856480641825, 0.6117555222580092, 0.6181507276938373, 0.6245017012491209, 0.630956471123421, 0.6373729424722656, 0.6438560984002542, 0.6502965234931034, 0.6567914981328932, 0.663266368449327, 0.6697822616458214, 0.676249583391561, 0.6827058121930994, 0.6892154759388264, 0.6956382712419639, 0.7021483957243676, 0.7085530883098812, 0.7150052577400108, 0.7213772303298845, 0.7277806585485402, 0.7341427936119881, 0.7404685342648879, 0.746726141543482, 0.7530099114171906, 0.7592459955468909, 0.7654121031245252, 0.7715250027335997, 0.7776330066568632, 0.7837106843854661, 0.7896541068753483, 0.795587299501702, 0.8014602162309012, 0.8072810729224031, 0.8130462989285572, 0.8187015748916768, 0.8243441012939184, 0.8298759667593222, 0.8352941244939478, 0.8406806210147103, 0.8459871420228273, 0.8512223626440717, 0.856323378574341, 0.8613564480343517, 0.8663283778958296, 0.8711637525788193, 0.8759174467481269, 0.8805745171798947, 0.8851100868533157, 0.889538008386402, 0.8938860833757551, 0.898130942037031, 0.9021913493062177, 0.9062090021445305, 0.9101111246359141, 0.9138296621559608, 0.9174929333205927, 0.9210220230320185, 0.9243802241499245, 0.9276381199518988, 0.9307390992877694, 0.933775610297623, 0.9366261525738326, 0.9393235412890498, 0.9419007547256395, 0.9443511309851647, 0.9466514276185868, 0.9487793959360828, 0.9508240312297281, 0.9526791941537599, 0.9544012737885172, 0.9559745196745987, 0.9573827415090383, 0.9586152110764523, 0.9597644472398542, 0.9607039916569694, 0.9615143318152503, 0.962130658506398, 0.9626216923596133, 0.962951508398105, 0.9631036842513977, 0.9631144781100958, 0.9629756764662628, 0.9626329894025539, 0.9621892480786409, 0.9614994006509017, 0.9607380187003064, 0.9597664545003192, 0.9585949302560774, 0.9572993032822512, 0.9558695079429902, 0.9542486746788967, 0.9524287415293803, 0.9504818792808059, 0.9483955033532289, 0.9460932251697509, 0.9436822323799429, 0.9410763279020365, 0.9382945488862751, 0.9353812979608528, 0.9322873534952266, 0.929006679815956, 0.9256393955166188, 0.9220634961360414, 0.9182945719688388, 0.9144546330694877, 0.9103851649467549, 0.9062045707831283, 0.9018933831207916, 0.8973626975543567, 0.8927290512598062, 0.8879554525354658, 0.8829712782614308, 0.8779119766647874, 0.8726443275317284, 0.8672904722886926, 0.8617845098679515, 0.8561208227377052, 0.8502921939731245, 0.8443691155641646, 0.8382925130439517, 0.8321156816167659, 0.8257828049758217, 0.8193042649608141, 0.812751284237119, 0.8060381884318493, 0.7992220001813893, 0.7922754954671041, 0.7851914387753071, 0.778027343651778, 0.7707315316015461, 0.7633693041603942, 0.7558936262213457, 0.7482884734963609, 0.7406017123649415, 0.732792199183776, 0.7249270182207742, 0.7169553110376692, 0.7088396888515647, 0.7007293865283181, 0.6924874060878833, 0.6841476215117996, 0.675791249465259, 0.6673004926004363, 0.658802639384359, 0.6501823699712233, 0.641508780409961, 0.6327904745265958, 0.6240166765117462, 0.615222760941753, 0.606329579408157, 0.5974103638440261, 0.5884171536865354, 0.5794037080020819, 0.5703632339160584, 0.5612880316282578, 0.552176229492945, 0.5430686606280922, 0.5338940517999009, 0.5247311821251112, 0.5155480043611717, 0.5063215473827837, 0.49708733315030396, 0.4879072580691795, 0.47865370519700967, 0.469435048637881, 0.46023310117317684, 0.45105602030434006, 0.4418450249385977, 0.4326685671851826, 0.42352984973973384, 0.41438666286104736, 0.4052787579073703, 0.3962160839881667, 0.38719078170688426, 0.37819990764298184, 0.3692081371035556, 0.3603180537492427, 0.3514348965990293, 0.3425694597548774, 0.3338032307880254, 0.32509348396565324, 0.3164624890484987, 0.307843707431172, 0.29935757938584107, 0.29090615464568303, 0.28248508871787764, 0.27418765184583677, 0.26598106440059394, 0.25782781654084486, 0.24978070268481237, 0.2418108391349691, 0.2339298474429292, 0.2261397766828376, 0.2184173123595823, 0.21085459261630568, 0.2033451818939943, 0.19598991454374617, 0.18866975099360347, 0.18153574845013182, 0.17447030199461866, 0.1674918918663537, 0.16068908354630804, 0.1539592043726358, 0.14739067926118038, 0.14093601259471247, 0.13455833480006, 0.12839241459493728, 0.12226570683314014, 0.1163637962567928, 0.11050633851083293, 0.10481884764794262, 0.09932889733383184, 0.09388048322369008, 0.08861292401850082, 0.08352404552371198, 0.07853686583045595, 0.07369229346934544, 0.06901486900239848, 0.06445800188241729, 0.060075160176170136, 0.05580840200814222, 0.05170658995651228, 0.047784648628051006, 0.043998507390649665, 0.040346521152424174, 0.03686818933033909, 0.033573085409792855, 0.030371226743164403, 0.027391970824412724, 0.0245403472855469, 0.02183785011512199, 0.01927748326234101, 0.016897715900719742, 0.014666947380627238, 0.012629762231129858, 0.010705485561637506, 0.008952274812904894, 0.007367916605720661, 0.005920857506644571, 0.004595366815848069, 0.0034856571408120587, 0.0025641063069304724, 0.0017083826909415985, 0.0010933736181005416, 0.0005739893741168913, 0.00020797274013199915, 1.1762709116020218e-05, 0.0, 7.242107564631654e-05, 0.00037527239652002385, 0.0007455960670415361, 0.0013025103114921463, 0.002040832910081106, 0.0028696359126984742, 0.0038489280959415296, 0.005022534922034048, 0.006290408401953056, 0.007723009998632897, 0.009267036196685528, 0.010943394901627575, 0.012773070142572304, 0.014734670472263909, 0.016830016074059706, 0.01900678699498021, 0.02135788158258705, 0.023841266008723064, 0.02647746192419788, 0.029184782917376084, 0.03198672194764114, 0.03497540471530154, 0.03804216503761365, 0.04123494046166198, 0.044485142846552965, 0.04790527572880089, 0.051388463686939945, 0.055021283640586685, 0.058734609867491544, 0.0625046404945304, 0.06641037971638628, 0.07042324359176141, 0.0744905636994917, 0.07861614464637293, 0.0828770824637578, 0.08721412756395353, 0.09163634167198534, 0.0961137088140768, 0.10066718493041503, 0.10529436499612073, 0.10998077172190776, 0.11477227103750665, 0.11954697164384794, 0.12446747050106757, 0.12937524696203848, 0.13437722647312697, 0.1394141628928775, 0.14448096426031595, 0.14963392769539652, 0.1547858167351259, 0.15999069284751413, 0.1652166667746222, 0.17045790663334728, 0.1757757735898628, 0.1810960489731675, 0.1864382757774379, 0.1918149009295713, 0.19715519710394488, 0.20256465673280508, 0.20798903179411318, 0.2133751589409347, 0.21881421693063574, 0.22420812318904831, 0.22961093266164095, 0.23502977481710854, 0.24044781715796393, 0.2458041629906685, 0.25116946176807053, 0.25655474100029824, 0.26188363872794346, 0.2671850192376193, 0.27249337155042697, 0.2777437687591183, 0.2829656382640428, 0.28815733292755535, 0.2933125128038699, 0.2984473099861643, 0.3035455378476783, 0.308571611454334, 0.31357277218158397, 0.318501988812781, 0.3233970421605279, 0.3282460168700791, 0.3330411706898811, 0.33772801199034513, 0.34239246085017605, 0.3470117531150787, 0.3515371576623572, 0.35601473738505696, 0.36040511384549884, 0.3647371758192919, 0.3690191423934663, 0.37319567806830034, 0.37726988115645227, 0.3813168867727446, 0.3852720448791502, 0.3891266882033488, 0.39290267285974073, 0.39660899821791473, 0.40021664292212583, 0.40371452791718465, 0.4071655527498026, 0.410519970472007, 0.4137893785264925, 0.41691686618185647, 0.41999638460331845, 0.4229813155147371, 0.42584810265858336, 0.4286366850012307, 0.4312975527833133, 0.43390618287660454, 0.43637178594485576, 0.43873830403190617, 0.4410297876085022, 0.4432314432093825, 0.44529039003664805, 0.4472628918034039, 0.44914413121955704, 0.4509125709637838, 0.4525953549584412, 0.4541916716598892, 0.4556577622195259, 0.45700572245065046, 0.4582682481760472, 0.4594283946376614, 0.460516380241298, 0.46144694864952407, 0.462338148668655, 0.4630900794008809, 0.4637452085200292, 0.46429788701723, 0.46475374452200435, 0.46512458359142717, 0.4653460065208531, 0.4655444103949667, 0.4656002148653834, 0.46559561162931457, 0.4654545655010202, 0.465269969006581, 0.4649602744444658, 0.46457323944042866, 0.4641098451730243, 0.46353478835814416, 0.46288135537750147, 0.4621451431355193, 0.46132857418726886, 0.46042372123591363, 0.4594735686034424, 0.4583814681454678, 0.4572685277124534, 0.4560632846509855, 0.45473903740726546, 0.4534143945031735, 0.45197192918553464, 0.4505198928985267, 0.4489295715611975, 0.44730125867349046, 0.44566307213821554, 0.4439226067026621, 0.4421195395968642, 0.4402821121946788, 0.4383630243977106, 0.4364285695820792, 0.4344551905499453, 0.4323807129648317, 0.4303151488244038, 0.4281955269271194, 0.42607273788152833, 0.42386899895615565, 0.42160794754941733, 0.41939815939591923, 0.4170756837024211, 0.4147846705837397, 0.41246557905228987, 0.4100900832293227, 0.4077361453395605, 0.4053618988220808, 0.40296477048257634, 0.4005605325706264, 0.3981772764352423, 0.39576044094882445, 0.39338071344745623, 0.3909395439767688, 0.38853639762820485, 0.38615470866257, 0.3838016523552127, 0.3814314116390184, 0.3790707696594853, 0.37672854995652655, 0.37442574341299206, 0.3721227607321455, 0.36985282110914625, 0.3676132160712226, 0.3654320122578131, 0.36327068269930063, 0.36113608977701717, 0.3590444165318982, 0.3570206400353761, 0.3550195761930589, 0.3530727544211244, 0.3511582568429108, 0.3492995119734741, 0.3475102203285975, 0.3457704164216974, 0.34410089986083575, 0.34248352829597134, 0.3409509295761576, 0.33946813882445515, 0.3380880273190657, 0.33675562111137713, 0.3354624753058909, 0.33428816175660026, 0.3331506685458608, 0.33215405051901337, 0.33119195849472677, 0.33031508586420105, 0.32955461797220437, 0.3288457579078599, 0.32825705485353573, 0.3277544431202417, 0.3273566789495992, 0.3270398305142699, 0.326803796108315, 0.3267166830537346, 0.3266595017944552, 0.32674236084721253, 0.32696331546468343, 0.3272276920248286, 0.32766285817491236, 0.32811469629623197, 0.32874433196186936, 0.32944321414354316, 0.3302873118708939, 0.3312401805913944, 0.33228632408801695, 0.33344276427676944, 0.3346845322204327, 0.33608587303271115, 0.3375964213789487, 0.33924238466482365, 0.34096875757833267, 0.3428377732637796, 0.34480284006864576, 0.34689277434163895, 0.34907723881996344, 0.35140369168761626, 0.35386079081618566, 0.3564158436986443, 0.35909608734466214, 0.3619020812369447, 0.3648057214413855, 0.367808636863197, 0.3709805246893903, 0.3742419984236215, 0.37759986627988545, 0.38108953733096396, 0.38465979095669195, 0.3884212356092773, 0.3922333889702186, 0.3961738905113758, 0.40024822473359506, 0.40439014039202187, 0.40868533663432594, 0.4130726742130693, 0.4175393776407453, 0.42214382694366603, 0.4268251256364074, 0.4316312523024111, 0.43656885899200515, 0.4415441000503396, 0.4466176894150588, 0.45183891603076365, 0.4571403993010497, 0.4625208032596768, 0.46797131729771974, 0.473551388959661, 0.4791798614026918, 0.48491431755968883, 0.49074912619415306, 0.49667516979572374, 0.5026169044705879, 0.5087101124273695, 0.5147999414183017, 0.5210173954193733, 0.527320996716254, 0.5336174422131861, 0.5400191621838503, 0.5465261313401097, 0.553019564571739, 0.559603851648913, 0.5662219273932523, 0.572938798034131, 0.5796464861067714, 0.5864151135049265, 0.5932820683816536, 0.6001113261533046, 0.6070289267742581, 0.6139187726440731, 0.6209314835714762, 0.627896330760791, 0.6349276045116656, 0.641952037286973, 0.6489827782820864, 0.6560684254230944, 0.663154846312248, 0.6702787697173025, 0.6773747510494478, 0.6844318911504695, 0.6915525190089631, 0.6986269128615669, 0.7057512371178529, 0.7127995669945053, 0.7198791001250353, 0.7269055114647341, 0.7339135041316206, 0.7409385197148094, 0.7478855179652393, 0.7548223940885206, 0.76172204748024, 0.7686342480259869, 0.7754170520646387, 0.7822210830125905, 0.7889783477539177, 0.7956608307228938, 0.8022593677538599, 0.8088378417356266, 0.815391675156868, 0.8218239266899913, 0.8281840671333237, 0.8345271993478943, 0.840726231461996, 0.8468762604445073, 0.8529703184688638, 0.8589884555899489, 0.8648988374285885, 0.8707042026023198, 0.8764110106013622, 0.8820538535498473, 0.8876225266995326, 0.893005851259377, 0.8983746877172925, 0.9035954142000611, 0.9086741589493509, 0.9136928737159041, 0.9185781222458447, 0.9233526680344577, 0.9279606295013039, 0.9325208356930743, 0.9368971378868215, 0.9411788310054986, 0.9452981193931727, 0.9492641744698865, 0.9531261881249024, 0.9568747399116435, 0.9604535302757602, 0.9638942433861107, 0.967202574804528, 0.9703621518405607, 0.9733474673525447, 0.9761757856186205, 0.9789001960266197, 0.9814219995640888, 0.9838502189615925, 0.9860633203212084, 0.9881140861740454, 0.9900406390696487, 0.9917630444996676, 0.9933596189402253, 0.9947611540132167, 0.9960052729662366, 0.9971368865780249, 0.9980019149456496, 0.9987518629588601, 0.9993494469646429, 0.9997110006073828, 0.9999761510504743, 1.0, 0.9998794168449116, 0.9996262019574935, 0.9991353454845509, 0.9985132387031337, 0.9976604518404536, 0.9966991578347866, 0.9955208944268713, 0.9941838321657583, 0.9926532788612304, 0.9909750931205458, 0.9890821894261526, 0.9870501887116809, 0.9848308714661806, 0.9824048824804091, 0.9798235585100326, 0.9770960295544224, 0.9741567254029878, 0.9710676828589648, 0.9678420791366331, 0.9643628403260257, 0.9607793233890577, 0.9570186281598345, 0.9530490771561437, 0.9489415104745091, 0.9446706332154545, 0.9402444033992233, 0.9356321209303965, 0.930883643778297, 0.9259791402629123, 0.9208990583389951, 0.9156567673198658, 0.9102503434397838, 0.9047051919561833, 0.8990364388555175, 0.8931578418222222, 0.887186678750726, 0.8810476961537059, 0.8747828723399544, 0.8683725076282842, 0.8618015277571822, 0.8551197360845821, 0.8483251716057462, 0.841337326481609, 0.8342696904759791, 0.8270598355593264, 0.8197734371967004, 0.8123150188019073, 0.804727247496145, 0.797094853209064, 0.7892612764266324, 0.7813929166937409, 0.7734011723225487, 0.7652964394094808, 0.7570956962235437, 0.7487815308709695, 0.740403178937674, 0.7319135021816331, 0.7233557483677671, 0.7146912818325669, 0.7059842347553147, 0.6971864864254734, 0.6882970369288379, 0.6793702979668543, 0.670342361508404, 0.6612737078564555, 0.6521299131629751, 0.6429386060282763, 0.6337439316107957, 0.6244141296179839, 0.6150991759449176, 0.6057291477193639, 0.5963423701780161, 0.5868726811879907, 0.5774409966697962, 0.5678906064229663, 0.5583986897945948, 0.5488496929235223, 0.5393073826606781, 0.5297101807784721, 0.520173753034118, 0.5105997551835947, 0.5009899930511585, 0.4914150245291378, 0.48186983285449736, 0.47231643795031514, 0.4628186484217275, 0.45329779952737986, 0.44376618178852245, 0.4342945453567109, 0.4248723304626626, 0.4155005596489732, 0.40610187153226796, 0.3967752030944915, 0.38748401994116893, 0.37826125656395126, 0.3690890817750033, 0.3599410133412055, 0.35087037538342253, 0.34183770017317505, 0.33291380908525714, 0.3240632340109943, 0.3152599080640641, 0.30650422216300727, 0.2978904840932517, 0.2892843223649079, 0.28082341105479747, 0.2724435619734624, 0.26415867703363116, 0.2559350129547191, 0.24783638297073682, 0.2398075818714808, 0.23194052466031206, 0.2241159137342414, 0.2164457687032946, 0.20881158462593077, 0.2013830814837049, 0.1940045852042698, 0.18679431375936803, 0.17970930881017735, 0.1727354242150261, 0.16585388417239375, 0.15915925955470117, 0.15254525174017994, 0.14609592248867456, 0.1397689747438632, 0.13355413367366442, 0.12754407436955414, 0.12160461196403427, 0.11590226324398675, 0.11023440069412091, 0.10477393226561792, 0.09948126443379521, 0.09432063752062626, 0.08927962351455286, 0.08443961399207528, 0.07969831299076062, 0.07514793814927008, 0.0707794350623789, 0.06650095390850085, 0.06241592950563368, 0.058504451891841946, 0.05478202213799565, 0.05115389762613764, 0.047733799122097, 0.04445958311877149, 0.04139440840472329, 0.038403329969476416, 0.03567034285220976, 0.03302670463840915, 0.030618175916706986, 0.02833132082401901, 0.026173280046335002, 0.02426611871700721, 0.022459082469949872, 0.02082632147473263, 0.019406461175078975, 0.01809741109326243, 0.016980481933419913, 0.016024920356741624, 0.015226030209162635, 0.014596774113181431, 0.014165347610690597, 0.01381593769988196, 0.013684813018219173, 0.013722506369731451, 0.013881946584323748, 0.01421845453283902, 0.014710794217135505, 0.015330508345834479, 0.016152704029995676, 0.0171154784079198, 0.018185898012649363, 0.019449751035806515, 0.02086189812873399, 0.022418755804031232, 0.024123873398321748, 0.02595006675868411, 0.027901081343312022, 0.03005561300865828, 0.03230853554773284, 0.03467264386836217, 0.03721037959622723, 0.03991388007564379, 0.04269850388947056, 0.04562736566689521, 0.04862509117096032, 0.05180928038021781, 0.055080214021961574, 0.058509997345095884, 0.0620137188309839, 0.06569121976371403, 0.06943256304127057, 0.0732542962791044, 0.07723795300985829, 0.08124816134761838, 0.085417783018437, 0.08971440328584676, 0.09402966750089248, 0.0985065434331681, 0.10298848654255827, 0.10762724763838172, 0.1123127740672685, 0.11713085739952664, 0.12195775410679452, 0.1269157117047124, 0.13191563956644103, 0.13700069373501386, 0.142089078134546, 0.1473054416068217, 0.1525778693060002, 0.1578893317756442, 0.1632118861448923, 0.16863071465114418, 0.174120794104698, 0.17960624657179805, 0.18513837506212835, 0.19074543646183362, 0.196311926954706, 0.20197822626559958, 0.2076131711711316, 0.21334626498498468, 0.21903690359676242, 0.22478818663238298, 0.23053022901275336, 0.23624987077116885, 0.24206225820641195, 0.24779780973941654, 0.2535825295325636, 0.25935546702040685, 0.2650854683803774, 0.27085749852640323, 0.2766286785976178, 0.2823359461140189, 0.28805106480256293, 0.2937394341747091, 0.2994513916064662, 0.30505288455280816, 0.31066445878238585, 0.31630088588461797, 0.32185106370092986, 0.32736156249409226, 0.3328081219962051, 0.33823934860341964, 0.34363300612540276, 0.34899680072882944, 0.3542948625571229, 0.3595447234600285, 0.36470908379639977, 0.3698549412106496, 0.3748936488209742, 0.3799269467921653, 0.3848504215106591, 0.3897285439677233, 0.39453450548437347, 0.39922008013134225, 0.40392597620313364, 0.40847398535447194, 0.41301301772406085, 0.4174205070786867, 0.42174384708427576, 0.42603099237348313