0.0412379984375646, 0.04095052253160472, 0.040663056476463476, 0.040341093831011726, 0.04006823416540334, 0.03979428218235464, 0.039558799725381205, 0.039288859703155155, 0.03905755172124482, 0.03878796456989052, 0.038571140370262, 0.03836000150270597, 0.03808576536604772, 0.03786340057740746, 0.03766762345694246, 0.03742365784969216, 0.037187656393953744, 0.0369978823223429, 0.036834371896171336, 0.036577048213106436, 0.036400575822367, 0.0361746831802515, 0.03598570545008921, 0.0358188485580663, 0.035616997114717906, 0.03543107785589319, 0.03523462979401282, 0.03505943191311382, 0.03489433270499132, 0.03470079522667101, 0.0345230567442247, 0.034366370037665885, 0.034227628487009255, 0.03401907753184885, 0.03387340927303504, 0.033760857005807006, 0.03360661140984889, 0.03348926433050402, 0.03337939737427019, 0.033259642128608845, 0.0331328334417128, 0.03304371678093134, 0.032923763789392275, 0.032846348551010415, 0.03277689280669844, 0.03274719721133197, 0.032646865543399746, 0.03262709226570018, 0.03251452554825124, 0.03253071118395241, 0.03245750928320048, 0.03243451369329881, 0.03242563375552555, 0.032405225166172155, 0.0324617348808827, 0.032460167451019935, 0.0324476450336315, 0.0325048169814935, 0.03257629417877727, 0.032609693220554244, 0.03271216390544857, 0.03274353778841941, 0.03284773987756841, 0.03297699267078477, 0.03307043102268539, 0.033199602778880496, 0.033356585213933275, 0.033488957220913475, 0.03363906442812473, 0.03382915608809161, 0.03403508978154267, 0.03419937263765474, 0.0343826438871388, 0.0346295213456084, 0.03487910390442183, 0.03510866079060188, 0.03536587282491127, 0.03565543214227011, 0.035938196254520056, 0.03621998640330623, 0.036556908599642716, 0.036911713843960685, 0.03723471956661781, 0.03765770977585529, 0.03799073247443938, 0.038420956897143234, 0.03881533389625233, 0.03923201654459927, 0.03969405912252965, 0.0401361223022545, 0.04062807647657443, 0.04111896402519928, 0.041597645918843816, 0.042138519796864365, 0.04268136082839934, 0.04320823652180464, 0.0437689868459821, 0.04440581695877988, 0.04498659337608905, 0.0456016618718906, 0.04631208461165804, 0.046969218148603005, 0.04764976700899244, 0.048373622182043434, 0.049075346653890975, 0.04980672499617942, 0.050583790578594336, 0.05135037935715, 0.052166417643348346, 0.053021580277394426, 0.05380359032608171, 0.05471055970276015, 0.05552649777138163, 0.05645385150070552, 0.057386837075662216, 0.05829615523663528, 0.05926641530333879, 0.06025203626094853, 0.06128248562635867, 0.06224774858515134, 0.06333022179852946, 0.06442539406021516, 0.06553301393554288, 0.06660637066202943, 0.06774900056115563, 0.06892783323366339, 0.07007375505573955, 0.07128762938406139, 0.07250288848022433, 0.07373799820071027, 0.0749949368188871, 0.07627528884084267, 0.07756163235096775, 0.07889942512937545, 0.08024829048185514, 0.08160973967367424, 0.08302041734514737, 0.08447182483647522, 0.08590051462583216, 0.08731082432888376, 0.08883073043220387, 0.09034459752625719, 0.09182786378250157, 0.09341431039402791, 0.09497782662413526, 0.09653711535278144, 0.09818811584782777, 0.09983955470370688, 0.10149287168061298, 0.10315401207190232, 0.10482740822776827, 0.10655912226085294, 0.10826753079774204, 0.11005574940209505, 0.11178011936939862, 0.11364568308401297, 0.1154285623409644, 0.11723309493395616, 0.11911450201825625, 0.12102095203138666, 0.1229343058497983, 0.12484267231225933, 0.12674602655032927, 0.12873622729852938, 0.13069707850494153, 0.1326893534723201, 0.13471531096801814, 0.13673095596349105, 0.1387939227680015, 0.14081337262106658, 0.14292069902909646, 0.14501946539807548, 0.14710205006783728, 0.14923491917766696, 0.1513801772905545, 0.15352193855165167, 0.15568810223137103, 0.1578942073868501, 0.16007467077619325, 0.16232662903799172, 0.16454959933065336, 0.1668185941735579, 0.16903162812180397, 0.17134710456863636, 0.1735884114773739, 0.17588655681996931, 0.17823402303949978, 0.1805222854270051, 0.18284720413236985, 0.18520774695438816, 0.1874949693050218, 0.1898644657443468, 0.19222042811616544, 0.19459236235486072, 0.1969775204196671, 0.19934517733758755, 0.20177039333958938, 0.20411787010807356, 0.20657380453285396, 0.2089407009601026, 0.21135323809227205, 0.21381397897660218, 0.2161936094589301, 0.21866732950435605, 0.2210405461196166, 0.22352229709157673, 0.22590131911166347, 0.2283708481229826, 0.23077001912609002, 0.2331935434602002, 0.23564826138555037, 0.23804005461769553, 0.24048685463544744, 0.2429018779322764, 0.24527201280037741, 0.24771493643529036, 0.25009966865384886, 0.2525581677628535, 0.25491458499693564, 0.2573038469445748, 0.2596724383505034, 0.2620650377763806, 0.26445852695104166, 0.26678928111302996, 0.2691743605405216, 0.271486417510905, 0.2738342800045973, 0.27615356307269906, 0.278418220524831, 0.2807190224187572, 0.28299514654620056, 0.2852388429396511, 0.28749906384914575, 0.28972315584838043, 0.29189386059884703, 0.2940862651045962, 0.29628761281052773, 0.29843629466053356, 0.3006035537031789, 0.3026986642639328, 0.30479370238679343, 0.30688181555852573, 0.3089790844649647, 0.31103673631482104, 0.31300272478354374, 0.3150255378578488, 0.3169635554220898, 0.3189083006590754, 0.3207919122673778, 0.3227051220055889, 0.3245365113775986, 0.3263513405231644, 0.32820890225186183, 0.32991850068146383, 0.3316865360685185, 0.33341658140746017, 0.3350953492658217, 0.3367422319824994, 0.3383474956016284, 0.3399569620664352, 0.3415147309034791, 0.3430126064279413, 0.34451147205034643, 0.3459536900395021, 0.34743562190164706, 0.3488005996893204, 0.3501502645235061, 0.35143835846551025, 0.35268222890206957, 0.3538986266984315, 0.3551008115429332, 0.35625596687998634, 0.35739516801091925, 0.358405167566873, 0.3594681163667161, 0.3604139519240525, 0.36141694780888217, 0.3622918517520521, 0.3631295283550579, 0.3639499729088857, 0.3647662448849844, 0.36546400265186335, 0.36616360632060274, 0.3668398425103833, 0.36740814717711684, 0.3679856460778698, 0.36845190236463915, 0.3688910980868503, 0.3693492509339653, 0.36968328720259364, 0.36998221211503385, 0.37023789582505584, 0.3704845599845308, 0.370648660823386, 0.3707468587987933, 0.37083081519716676, 0.3708181959393504, 0.3708034038379434, 0.3707608825643984, 0.37064863680783944, 0.3704497077437847, 0.37022451260813444, 0.36999764324151924, 0.3695942311192823, 0.36927213209118276, 0.36883061104611486, 0.3683588563991836, 0.3678466449295681, 0.36725008569616235, 0.3665910470290354, 0.36595157661089756, 0.3651832706810475, 0.3644411311956235, 0.36360603027137395, 0.3626553363714412, 0.3617382180346043, 0.360753940755354, 0.3597077192473051, 0.35866430112778114, 0.35746663920553756, 0.35633306464786546, 0.3550783625723398, 0.35378334820593355, 0.3524857984898137, 0.35106382983782203, 0.3496154469739607, 0.3481797826513081, 0.34665171801863365, 0.34506325587077863, 0.34337039213303583, 0.34169838945224934, 0.33997679766962013, 0.33818580160004286, 0.3363643215432436, 0.33450807988534703, 0.33257473287325473, 0.3306483132271399, 0.3285968157560806, 0.3265881105278697, 0.3245071584365092, 0.3223505564364329, 0.3201377424166762, 0.3179720104297403, 0.31567271935358626, 0.31340149912651677, 0.31105804227716294, 0.3086662932589628, 0.30623814362284657, 0.3037462539069883, 0.30123381148541795, 0.2986974353384961, 0.2960964519267798, 0.29352441614203534, 0.2908488244307053, 0.28815641617455, 0.2854331158606442, 0.28269587488361997, 0.2798901257036777, 0.27706903168255315, 0.27424389942720334, 0.2713432201712294, 0.2684708195893304, 0.26552668496659193, 0.26261585059551684, 0.25961451039052924, 0.2565945882535283, 0.25356939954204893, 0.2504723231296335, 0.24744315091700853, 0.2442845363330184, 0.24118897020352137, 0.2380350881506232, 0.23486546127618912, 0.2316659968628691, 0.22848520924525678, 0.2252615604090089, 0.22204536194920513, 0.2188431227003289, 0.2155482044514092, 0.21230879830160448, 0.20907748498948633, 0.20577353401759937, 0.2025014450125146, 0.19920307478018737, 0.19591489307614107, 0.19260751171750964, 0.18928811234059598, 0.18600537210673432, 0.18269090868046273, 0.17936421930552393, 0.17604847186943612, 0.1727331310438337, 0.1694700685846128, 0.16613864458184527, 0.1628523397605542, 0.15959792845136775, 0.1563091799213826, 0.153050765204508, 0.1498251153707072, 0.14656834255679305, 0.14333902145426755, 0.14014671027741835, 0.13696468727618155, 0.13380990655106487, 0.13066150360652085, 0.1274768590877974, 0.1243683596137906, 0.1213240870109165, 0.11822149724822682, 0.11520254654809912, 0.11220181304582652, 0.10918316117445755, 0.10621218091964651, 0.10328918038193094, 0.10039817622500925, 0.09753135567554808, 0.09466604111260044, 0.09189915345146765, 0.08914468174127137, 0.08645854097105354, 0.08375602633918679, 0.08111805937807627, 0.07851262853160756, 0.07597704263383513, 0.07342772905667747, 0.07099277526167114, 0.06853754187992407, 0.06623536461331044, 0.06386234874114462, 0.061609900119302424, 0.05933217675576602, 0.057179270515894685, 0.055034072371490945, 0.053004936687395615, 0.05096453765217807, 0.04902809143877445, 0.047142198915548536, 0.045265660315293846, 0.04349626128011473, 0.0417525432924964, 0.040124012301139655, 0.0385252642867534, 0.03703110423834257, 0.03556132309687078, 0.03415915159732001, 0.032834269100206606, 0.03158010644911324, 0.030351272747371243, 0.02925111267728151, 0.028143426926729522, 0.027172047848240656, 0.026234842094149172, 0.025394921235518095, 0.024663244159654218, 0.023943291155582566, 0.02334142959363515, 0.0227449106890504, 0.02232370515796245, 0.021933657769241558, 0.021600768072356738, 0.021376582668881216, 0.02122150419717578, 0.02114674857761135, 0.02121002789593633, 0.021253065859915696, 0.021403193120784675, 0.021684897834201283, 0.02204898800135708, 0.02247582930704742, 0.022927907053005413, 0.023542160989870328, 0.0241654878068379, 0.024961416955236966, 0.025818261592343374, 0.026736297062564397, 0.027740850181372873, 0.02880134075847903, 0.030024816360162184, 0.03131344726413986, 0.03266139440027185, 0.03410572965175841, 0.035664413974899514, 0.03729901496727782, 0.03901630026165522, 0.04083075977987023, 0.04274239683303531, 0.044735526929619254, 0.046782568329041346, 0.04890648835282962, 0.051162523602067966, 0.053509037951909935, 0.05595223653517877, 0.0584093057234993, 0.061025952429366204, 0.06366774244851935, 0.06644997966025241, 0.06931567529288431, 0.07229723425674539, 0.07533632070364651, 0.0784313450263827, 0.08164680720066655, 0.08494767066391905, 0.08830987676563626, 0.09181588972254308, 0.09533510659138578, 0.09896175817641838, 0.10268796919711297, 0.1064771950776911, 0.1103818916933538, 0.11434529685656894, 0.11836358783118507, 0.12246280272535236, 0.12665999658155405, 0.13098317685391236, 0.1353002536535642, 0.13973671302469684, 0.1442703828599687, 0.1488725319479672, 0.15349381447611446, 0.15826482059005553, 0.16311888135449507, 0.16796657786603544, 0.17291139592779967, 0.17793625092858223, 0.18306438777748113, 0.1882413721227073, 0.19346550030855098, 0.19876574294750118, 0.20412810182934163, 0.20951016245147674, 0.21499678644079107, 0.22054410730749063, 0.22614629136680495, 0.2318355086757243, 0.23754846326627851, 0.24332537821929193, 0.24919194192912045, 0.2550502157809977, 0.26100501271724397, 0.26698566888406383, 0.27304164265549435, 0.27912759380015845, 0.2852752131222665, 0.2914524696327414, 0.2976790736147037, 0.3039384698513215, 0.3103205913363808, 0.316625041345522, 0.32296800258271, 0.3294490566084757, 0.3358433201732853, 0.3423595015992938, 0.3488449661519019, 0.3554004858406388, 0.3619642977098298, 0.3686077100024587, 0.375198454171871, 0.38185933160505947, 0.38851072158634675, 0.39519612024778533, 0.4019334361423703, 0.40862621065390303, 0.4153939231882404, 0.42211543416597763, 0.4289029550256589, 0.4356477999533418, 0.44245231572165694, 0.44919944803995276, 0.4559778730812842, 0.46273485801505865, 0.46953925206169583, 0.4762644361466938, 0.48309759475510394, 0.48983857697325695, 0.49656282865349993, 0.5033230684649046, 0.5100646929432092, 0.5168048247374857, 0.5234973563089999, 0.5301656856026081, 0.5368386602988294, 0.5435248637773095, 0.5501021955611549, 0.5567105835764196, 0.5633144372476206, 0.5698559134453302, 0.5763253857709052, 0.5828192026211034, 0.5892741642645326, 0.5956708032358098, 0.6020542491365747, 0.6083620304072687, 0.6146723312980382, 0.620887670108247, 0.6270777916474002, 0.6332434439203656, 0.6393188045014969, 0.6453907065011716, 0.6513967173119193, 0.6573383202117031, 0.6632117565882254, 0.6690586998440088, 0.674806018517024, 0.6804943432403826, 0.6861744233731424, 0.6917761919509099, 0.697236832059173, 0.7026936719451478, 0.7080708580664609, 0.7133354900400286, 0.7185662958330173, 0.7237106788363892, 0.7288256486690996, 0.733820344705294, 0.7387108049286942, 0.743555788860558, 0.7482769606417969, 0.7529426474873827, 0.7575072828737868, 0.7620104438348426, 0.7664502830198485, 0.7707502072393196, 0.7749790215851525, 0.7791145889538863, 0.7831649485728166, 0.7870638393981899, 0.790956160074543, 0.7946458299265214, 0.7983458142744854, 0.8018713239064881, 0.8053058080646769, 0.8086434704230735, 0.811885642354411, 0.8150112223654855, 0.818011778336064, 0.8209775241602689, 0.8237597263345038, 0.8264836578629607, 0.8290337031298635, 0.8315774538176782, 0.833925974915874, 0.8361804828563189, 0.838331725276343, 0.8403819943385002, 0.8423318442212043, 0.8441287349886722, 0.8458076812018251, 0.8473657057419332, 0.8487919522919993, 0.8501408565945601, 0.8513700077190862, 0.8524536040903062, 0.853455626729372, 0.8542899301667842, 0.8550057934074855, 0.8556256794494005, 0.85615931422262, 0.856512586001717, 0.8568224411393113, 0.8569244000288323, 0.8569633480917145, 0.8568342608160835, 0.8566403192946538, 0.8562593773200405, 0.8558189178296267, 0.8552387211001141, 0.8545072823418569, 0.8536639654047107, 0.8526947249462268, 0.8516330828053197, 0.8504340524693835, 0.8491433306765478, 0.8477083927640792, 0.8461479002993187, 0.8444523774134247, 0.8426704526895926, 0.8407476283968975, 0.8387089464134285, 0.836549649615932, 0.8343263813983953, 0.8319279706652287, 0.8294656281937522, 0.8268515747936046, 0.8241593595171285, 0.8213324872925527, 0.818335633196171, 0.8153122139309854, 0.8121685008354275, 0.8088571158754965, 0.805500755736136, 0.8020064028757601, 0.7983782631770661, 0.7946886399316676, 0.7908417589301773, 0.7869323669039965, 0.7829378292011141, 0.7788346443595556, 0.774616582510164, 0.7702907000122551, 0.7658753078768793, 0.761367478601294, 0.7568177683725718, 0.7521029594786991, 0.7473319184293354, 0.7424759917448839, 0.7375295135999381, 0.7324451975231983, 0.72731755782948, 0.722097980765751, 0.7167920823621818, 0.7114385768961277, 0.7059312218210434, 0.7004133662460293, 0.6947737829743292, 0.6890848099857598, 0.6833822460754241, 0.677535185747036, 0.6715817988842901, 0.6656877174734955, 0.6596215110514402, 0.653531385356627, 0.6474066291715521, 0.6412199097303344, 0.6349469393095609, 0.6286381908611383, 0.6222566519374514, 0.6157914901891426, 0.6093594379184736, 0.6028311389714933, 0.5962602204543945, 0.5896090292638408, 0.5829725396971552, 0.5763075047437122, 0.5695659395424494, 0.5627709413311707, 0.5559967978896427, 0.5491463418125205, 0.5423314856837954, 0.5354496071727437, 0.5285458901786863, 0.5216024824099217, 0.5147049990266939, 0.5077547296940601, 0.5007700305936148, 0.4937571348389011, 0.48674333178495327, 0.4797609734884209, 0.47275855751716495, 0.46567596280615264, 0.45865860091040583, 0.4516344492574066, 0.4446128385659178, 0.4375885918064237, 0.43060924657608146, 0.42358786705501805, 0.41656274784880376, 0.40957467523265034, 0.40260980185699846, 0.3957080050917439, 0.3887450375259206, 0.3818286946074801, 0.3749282153018888, 0.36811779446922466, 0.36128644063951615, 0.3544399638747873, 0.34768284691855283, 0.34095847124005924, 0.33424916667176424, 0.3276102753117107, 0.3209129390171213, 0.31433337819258494, 0.30782649613480073, 0.30131564596941, 0.29485308946403804, 0.2884043633263411, 0.28208317076165534, 0.2757475478910357, 0.26956387324723735, 0.26333437027645035, 0.2572025585330158, 0.25115375988164046, 0.24517231810712556, 0.23919846470909337, 0.23331709766129088, 0.22753089436211735, 0.22178714202043273, 0.21610449123069503, 0.21050475589388576, 0.20493183537874177, 0.19948984583596452, 0.19408867816792938, 0.18878385737786244, 0.1835531010184339, 0.1783947008310919, 0.17330623381955856, 0.16831841413492546, 0.16341845489703088, 0.15863523898815335, 0.15391582395522502, 0.14922347063494923, 0.14472538413023564, 0.14024685703584147, 0.1358392833174709, 0.1315978058516282, 0.12739419752193487, 0.12329961235617626, 0.11930560598691399, 0.11539738274118462, 0.11156321800946578, 0.10780951103845979, 0.10423822647905437, 0.1006708993939656, 0.09724220399677304, 0.09392441456225413, 0.0907348672831808, 0.0875991002155031, 0.08455324382827333, 0.08166021956765576, 0.07882908064344914, 0.07609837277303333, 0.07350927415721036, 0.07100129260195469, 0.06857755485302366, 0.06627041026729726, 0.0640440236224197, 0.0619487335160067, 0.05999011148732965, 0.058108876455965346, 0.05629474552627786, 0.05456459630009368, 0.05301821776076753, 0.05151514288369478, 0.05011228021800261, 0.04889096858263934, 0.04768016239789913, 0.046564529843650344, 0.04565826284137066, 0.04477504171986037, 0.0439979769928594, 0.043336130405517974, 0.04275821230851009, 0.042314989840217296, 0.04196357410796724, 0.041690986036448094, 0.041487419164945236, 0.04139255156605269, 0.04146738525296466, 0.04158961007633551, 0.0417693304689801, 0.042029628661231895, 0.042430938505008356, 0.04291007130645936, 0.04352225104242182, 0.04414285794200999, 0.0449563276951733, 0.04578951577308582, 0.04667343138724026, 0.047708418425795526, 0.04882699029022432, 0.049970667543696036, 0.051284603168960205, 0.05259787149825539, 0.05400705522576081, 0.055515721327489866, 0.05714515397253571, 0.058749512249893866, 0.06049570032049841, 0.06226410535603779, 0.06412737578844184, 0.06608438372680252, 0.06805889671052194, 0.070141217357277, 0.07230280869751339, 0.0744736519235265, 0.07672061922868043, 0.0790070758318639, 0.0814404309143422, 0.08384219103579248, 0.08631931179110036, 0.08886096689388304, 0.09148850220545698, 0.09411194579605824, 0.09679847097867106, 0.0995144634152378, 0.1023218678505303, 0.10513828040913797, 0.10802803606518555, 0.11088887511935108, 0.11385288841049819, 0.116771175449628, 0.11979243540004504, 0.12279066739613383, 0.125878453477111, 0.12898763048831882, 0.13208207614561696, 0.1351762978832739, 0.13837667323957648, 0.1415151842606393, 0.14476032979938208, 0.14796875379930002, 0.1511709957928493, 0.15444969032196262, 0.15769754112932888, 0.16093462991714527, 0.1641875620578615, 0.16747054502235922, 0.1707210953538164, 0.17395677572711385, 0.17722350173142773, 0.1805363501032813, 0.1837202737571477, 0.18702478730853597, 0.19024892159005266, 0.19346347577911951, 0.19663115362031458, 0.1998431457307413, 0.2030454163635324, 0.2062061193258405, 0.20930834953394126, 0.2124166582467239, 0.21559642559588973, 0.21863252977250558, 0.22170475906421186, 0.22470962230368416, 0.22762224213185822, 0.23058703307657016, 0.2335079142761174, 0.23641446361139148, 0.23921607533332837, 0.24203063255019153, 0.2448102467155989, 0.24746483201789166, 0.2501924250698206, 0.25277805062378306, 0.25537540534401265, 0.2578848003796044, 0.2603737162757979, 0.2627683064978527, 0.2651763185687209, 0.26747237148024655, 0.2697884586849601, 0.2719744329179615, 0.2741116350694194, 0.2762183662461268, 0.2782625714511096, 0.28024044517818814, 0.2821155523203299, 0.2839637886701896, 0.28577837516611804, 0.2874689420618249, 0.28908978226378723, 0.2906512469235521, 0.2921869988255365, 0.29357130960457367, 0.2949377328458938, 0.2962293064343447, 0.2975140712262748, 0.2986479068313717, 0.2996913549868321, 0.30068376594350726, 0.3016114314952128, 0.3024622534717406, 0.3032804886088095, 0.3039816664649598, 0.30460085912176826, 0.3051200179005116, 0.3056097076920434, 0.30597000831577026, 0.3062903049428913, 0.3065039531547357, 0.3066469054988454, 0.3066700754597028, 0.3066851783028949, 0.3065998800209747, 0.30640669103450746, 0.30616000232254326, 0.30588397914509435, 0.3054062497949432, 0.30496919795890376, 0.30436422392672213, 0.30375898691202435, 0.3030460489275016, 0.30223815250236, 0.3013768212481644, 0.30037288777515664, 0.29931901818355944, 0.2982615834415185, 0.2970269969643584, 0.29575924374250967, 0.29444836721065815, 0.29303726824124565, 0.29153456612896544, 0.28993987409044075, 0.28829507191641807, 0.2866003235858102, 0.28482452284402987, 0.28300217341311007, 0.28106689665755874, 0.2791108549825893, 0.2770203780966211, 0.27491408028710823, 0.27278255801754686, 0.2705259249560785, 0.26817657091434527, 0.26587139561244433, 0.26339695355686127, 0.26093147137728695, 0.258372458246344, 0.2557436717476282, 0.25312270275942755, 0.2504055775321913, 0.24760844781361496, 0.24476461380852507, 0.2419334240755128, 0.23897599115047188, 0.23606269066572796, 0.23305681289212973, 0.2300059221509511, 0.2268493623651724, 0.22380290859685373, 0.2205834243089147, 0.21738144735896295, 0.21412944998611388, 0.21085452787691927, 0.20753012277050803, 0.20421669593614414, 0.20084531891099414, 0.19745847597333085, 0.19403450774326314, 0.19055785126770244, 0.18708785381271364, 0.18357989180298115, 0.18005237921774792, 0.1765217767090762, 0.17301324617762678, 0.1694334667619853, 0.165916777172997, 0.16234840108651677, 0.15876233242443466, 0.1551468869697017, 0.15161122519048387, 0.1480098991218307, 0.14446464206674922, 0.1408744856690172, 0.1372856440109853, 0.1337503546994007, 0.13017505055928555, 0.12668699910430198, 0.12312362228079239, 0.11957000237462448, 0.11610627429587499, 0.11262553278811162, 0.10920773040836869, 0.1057244450939367, 0.1023223093683681, 0.09896560931203613, 0.09562621471205056, 0.09230908999700797, 0.08903716524944331, 0.08580092490004392, 0.08264182126785533, 0.0794232539738393, 0.07634092907045646, 0.07321516740790547, 0.07019252916151938, 0.06724092052774842, 0.0643024702338842, 0.06144206636674029, 0.05860110053884734, 0.05583578573907979, 0.05309778048857103, 0.05045105298995094, 0.0478434100738275, 0.045301094938052316, 0.04283478518818062, 0.040450467160015414, 0.03807725551761799, 0.035828964212033, 0.033670079716251244, 0.03151471895582595, 0.02947806186413757, 0.027558377842361256, 0.02563460265504221, 0.023824152597956335, 0.02210894508694886, 0.020456681347434988, 0.01888271394211291, 0.017425762166693868, 0.016016023603099082, 0.014708966993801581, 0.013494572018107727, 0.012385199271549885, 0.011338332094648027, 0.01038085883314894, 0.00954416979886024, 0.008823425788051288, 0.00815480676535874, 0.0076191653338676954, 0.007140143696828302, 0.006845181458433593, 0.0066094256799969844, 0.006441364989934259, 0.006401525318732245, 0.006441556182437269, 0.006644162204220741, 0.00691648729048835, 0.007297432167610599, 0.00779028187460352, 0.008389936111071826, 0.009075149752273956, 0.00990760697210727, 0.0108447654447238, 0.011856204690186806, 0.013017808667283056, 0.014267726233283757, 0.015663981607473922, 0.017159131065762136, 0.018755879792372827, 0.020470434122051857, 0.022315629276313264, 0.02427427263843229, 0.02632309762789767, 0.028516771965103042, 0.03081557191666446, 0.03322161087978739, 0.03571141213143109, 0.0383711976099071, 0.0411107732894593, 0.04395682884449898, 0.04694915750324645, 0.05000783012898842, 0.053228294674664785, 0.05656618154779881, 0.06000939025546413, 0.06355643549667818, 0.06718785935221941, 0.07098527917643281, 0.07482958984159327, 0.07885690178455276, 0.08294710396615979, 0.08720309372993887, 0.09151395543688143, 0.0959758065813937, 0.10046082715651557, 0.10514524733257088, 0.10987175481309559, 0.11474531075848297, 0.11972210980633682, 0.12480807946284014, 0.12997792044583562, 0.13524532585920748, 0.14056338660573622, 0.14604151654169978, 0.15165169113533747, 0.15728842643875793, 0.16306425160719418, 0.16890602689876477, 0.17488331523569436, 0.18089948868488634, 0.18706074613276974, 0.19323730292512833, 0.19959247631879673, 0.20596167123012793, 0.21246042700730222, 0.2190333568983558, 0.22567012479420656, 0.23237550285446348, 0.23920361477192928, 0.24605466444284207, 0.25301601571204835, 0.25998682165275067, 0.26708165228274366, 0.2742630894256383, 0.2814670489473831, 0.2887647461292364, 0.2961459814344013, 0.3035669525220301, 0.31102035899897573, 0.31855327744209894, 0.32611718031301157, 0.3337674591970615, 0.34153969200305484, 0.34922950520504953, 0.3570625569685384, 0.36486944947543803, 0.37270803128800156, 0.3806446198288257, 0.38862825999943934, 0.39658859116009426, 0.40459813730793837, 0.41263736715197985, 0.4207883765500322, 0.4288957870733468, 0.43699098175225143, 0.4451440521347027, 0.45331709477319343, 0.4615314144355722, 0.4697678210017091, 0.4779994838648346, 0.48623784260826447, 0.4944875316061196, 0.5027334064105905, 0.5110137859576819, 0.5192847054967864, 0.5275362984906908, 0.5357726782407473, 0.5440499351143102, 0.5522877072100825, 0.5604841422169695, 0.5686887914615345, 0.5769558077550349, 0.585095500938739, 0.5932759535546722, 0.6014165383119784, 0.6095156338978457, 0.6176119553866642, 0.6256723275171575, 0.6337210359628993, 0.6417065535030185, 0.6497084632671059, 0.6576200970798636, 0.6654652045135285, 0.6733257615781512, 0.6811363963533849, 0.6888829712175961, 0.6965572904949272, 0.7041995337167246, 0.7118204164407261, 0.7192985538423496, 0.7267975229214949, 0.7341648540360075, 0.741523393931408, 0.7488150959096778, 0.7560061341602631, 0.7631461447199068, 0.7702118413850417, 0.7772475422217436, 0.7841239102107563, 0.7909695338074865, 0.797731895, 0.8044121066248346, 0.811044778823925, 0.8175350750216233, 0.8239647446984273, 0.830299436483024, 0.8365242124905042, 0.8427077404782389, 0.8487341906654042, 0.8546505156639002, 0.8605299991106724, 0.8662706968574821, 0.8718829088038046, 0.8774819948400705, 0.8828899281059627, 0.8882087858068543, 0.8934414357872856, 0.8985827578919691, 0.9035674347950855, 0.9084292298159624, 0.9132324374063527, 0.917912174918888, 0.922428075369063, 0.9268436858446536, 0.9311671427620709, 0.9353730420014046, 0.9393893280262724, 0.9433280866529183, 0.9471346177968855, 0.950858111512712, 0.9543519937874095, 0.9578092414224713, 0.9611079581968225, 0.9642537475581638, 0.9673306743124704, 0.9702166325408058, 0.9729562516137108, 0.975656736304385, 0.9781468858973918, 0.9805082438444996, 0.9827449957745759, 0.9848733797419537, 0.9868650973146992, 0.9886777844884166, 0.9903878547858667, 0.9919881760588692, 0.9933756297253552, 0.9946834695125532, 0.9957745108768085, 0.9968352802674945, 0.9977115609783057, 0.9984323922093328, 0.9989778303350808, 0.9994466475201628, 0.9997932971820622, 0.9999213817294862, 1.0, 0.9999293878662815, 0.9996579237236918, 0.999301873183546, 0.9987633016444462, 0.9981309050759116, 0.9973467163693527, 0.9964287433878731, 0.9953771672033783, 0.9941781123500426, 0.9928866203671789, 0.9913684277439963, 0.9897730451361941, 0.9880393894152228, 0.9861929382357143, 0.9842148580587694, 0.9820503671404903, 0.9797812214750269, 0.9773902731398567, 0.9749027739838521, 0.9722145071914984, 0.9694964297027108, 0.9665508633543878, 0.9635792725010668, 0.9604283513241828, 0.9571518924913648, 0.9537879580041495, 0.9502332946441818, 0.9466525908006714, 0.9428873687068364, 0.9390277131706828, 0.93506439384312, 0.9310036729091371, 0.926762439455483, 0.9224741957725212, 0.9180461082523086, 0.9134914992739165, 0.9088817468793062, 0.9041251212095683, 0.8992890559860494, 0.8943838211911085, 0.8893356068045527, 0.8842046403083825, 0.8789583440039266, 0.8736395423606194, 0.8682075164450362, 0.8627553438237408, 0.8571505519201322, 0.8514499759522148, 0.8457003284861148, 0.8398485298520164, 0.833899746544097, 0.827889257235659, 0.821807284592816, 0.8156693146833451, 0.8094518622871525, 0.8031274133509216, 0.7967567811506615, 0.790324116208333, 0.7837701972140582, 0.7772114670530623, 0.7706227280541682, 0.7639120454018576, 0.7571898525774101, 0.7504345681518506, 0.7436007561098962, 0.7366812043050379, 0.7297832206794687, 0.7227995288090879, 0.7157437006536146, 0.7087227767484421, 0.7016196194372732, 0.6944920483326823, 0.6872946726142304, 0.6800562996697039, 0.6728624384777383, 0.6655911663157594, 0.6582808645989062, 0.6509991626814203, 0.6437181896070847, 0.6363363817001529, 0.6289750562775334, 0.6216606041153098, 0.6142873244295829, 0.6068931752468014, 0.5994724743414371, 0.5920878462761205, 0.5847202270012185, 0.5773047381429955, 0.5699481909969537, 0.5625594424682774, 0.5551638854889652, 0.5477772637495486, 0.5404727342901068, 0.5330921373051465, 0.5258161363346544, 0.5184987185541438, 0.5111970127449402, 0.503910776466009, 0.4966861020262799, 0.48948008166816065, 0.4823308599486928, 0.47515751324621597, 0.4680531005819701, 0.46098552885577465, 0.4539416661679406, 0.4469799780573006, 0.4400085045647871, 0.43312995768872753, 0.42625751247971755, 0.4194066401514005, 0.412636005031234, 0.4059388185112096, 0.39932466757849205, 0.39267808469691684, 0.3860924051408176, 0.3796353155642394, 0.3731982853091774, 0.36679192090081597, 0.360499168534924, 0.35429677610126536, 0.34808078558670413, 0.3420355869273225, 0.33596249089658364, 0.33004444148815115, 0.32413441821892597, 0.31834106271698204, 0.3126062391980555, 0.3069156614524084, 0.30137949259401026, 0.29585986034559536, 0.29043471420469796, 0.2851217271787655, 0.279839577743618, 0.27466746662462516, 0.2696387281589253, 0.26463975467770573, 0.2597084025646254, 0.2548953860853093, 0.25015316422395817, 0.24552605193894392, 0.24098692682120335, 0.2365549912212518, 0.23219702109308904, 0.22794266884426315, 0.22384129830074323, 0.21975264672607375, 0.21581267003663135, 0.21193457020883372, 0.20815332377052514, 0.20444908591502975, 0.20089537662261003, 0.197411791558964, 0.19405934029166844, 0.19078135314639874, 0.18759819397092087, 0.18451061224685444, 0.18161352345992784, 0.17870579291845323, 0.17594890149107248, 0.17325397965246048, 0.17073603115923155, 0.16828334268154835, 0.16590911770977218, 0.1636584003486272, 0.1615276241155408, 0.15948048796630035, 0.15757431077746484, 0.15568002820441468, 0.15393979908460634, 0.15231458245422183, 0.15077827275161812, 0.14936030665437974, 0.14800203353902713, 0.146781322169567, 0.1455950114819802, 0.1445585832769388, 0.14362214118276, 0.14280356674112912, 0.14205691289246408, 0.14138204276251032, 0.14079835621411496, 0.14034665251166503, 0.13998808496941526, 0.13972120348591122, 0.13952415066187138, 0.1394794370260636, 0.1394966666504092, 0.1395544526497932, 0.13974726112385383, 0.1399860044508264, 0.1403728121136145, 0.14084699185563343, 0.14131127030521878, 0.14193946965432, 0.1426225987009389, 0.14338145803095823, 0.14421517063221817, 0.1451858536661642, 0.14614744500511673, 0.147229617932691, 0.14841282459878513, 0.14963051511179587, 0.15089863533230868, 0.1523330322854117, 0.153721529004028, 0.1552856196777611, 0.15684137832249403, 0.1585104255326051, 0.16015521472056632, 0.1619213461844218, 0.16377985001420362, 0.1656466432355505, 0.16757789030353296, 0.16954565300582697, 0.17156120792729462, 0.17365837322831917, 0.17583132559823259, 0.17797859561503482, 0.18021496600770806, 0.18249671838976933, 0.18482266249725066, 0.18717289990944008, 0.18961472154072231, 0.19200534295880523, 0.19450922266488385, 0.19703539705483383, 0.19954546771199586, 0.20214459641470678, 0.204730757644547, 0.20737028704726077, 0.21000339631816026, 0.21267587227804025, 0.21531741257869141, 0.218025725496616, 0.22078833616396842, 0.22351813831348982, 0.22626433597442072, 0.22899119536026877, 0.23178776574065835, 0.2345741813679148, 0.2373612208606172, 0.24019053415422928, 0.24297321769282273, 0.2457284293082522, 0.24851642868738433, 0.25133313434423127, 0.25409923835519266, 0.2569169886866076, 0.2597043212381094, 0.26243802957963713, 0.26519155259714383, 0.267901346635543, 0.27059400542285694, 0.27332436837459395, 0.27594363944716105, 0.2786021109093745, 0.28127743707092223, 0.28382800810184305, 0.286416204970502, 0.2889648608648164, 0.29149612646952944, 0.2940145335082348, 0.29645480836596383, 0.29888105855210867, 0.3012421860920681, 0.3036163799742151, 0.30594395614545905, 0.30821828196591045, 0.3104743090386402, 0.312666149429961, 0.3147714639452072, 0.316861731932626, 0.31888686708681874, 0.3209021053339187, 0.32280398015120415, 0.3247514311428481, 0.32659605936563524, 0.3283741521681085, 0.3300941138427113, 0.3317938581667222, 0.3334178556659309, 0.33492957326264955, 0.3364766024164487, 0.3378929654241764, 0.3392994887106821, 0.3406268856415579, 0.3419048674897555, 0.3430892219125212, 0.34421236658288346, 0.34527560340881847, 0.3462676108912636, 0.347178641974046, 0.3480052846972636, 0.3488072726722427, 0.3495262448331663, 0.350167237310861, 0.3507493353082369, 0.351207691145119, 0.3516484831825222, 0.35201070746667273, 0.3523376390321287, 0.352493854961235, 0.35268207367216897, 0.35272506064948267, 0.3527129084101416, 0.3526173675535405, 0.35245192548193405, 0.3522226881639729, 0.35190841304361353, 0.351550802206982, 0.3510887143221319, 0.3504985983316105, 0.3498623722000072, 0.34918879605351655, 0.34841864834824143, 0.3475409505990487, 0.34668372987623924, 0.34568634920553654, 0.34455323611751987, 0.3434662808293291, 0.3422304223077649, 0.3409440057530515, 0.3395627622334037, 0.3381007190416201, 0.3365988600172714, 0.33502759113385655, 0.33338651337368147, 0.33163724627048735, 0.32985719696483534, 0.3280270486591246, 0.32604856751016653, 0.3240154059561087, 0.32193955157878645, 0.31982208889594294, 0.3176016158902167, 0.31533540486100065, 0.31296341308170605, 0.3105875123530428, 0.30810426968216326, 0.30555777259245565, 0.30301270519333867, 0.30032840647689324, 0.2976460348700242, 0.2948942849031424, 0.29207933698566424, 0.28922161144399056, 0.28627913601487315, 0.2832855342994415, 0.28027274948872133, 0.2772277853668675, 0.2740728800635572, 0.27087224805058113, 0.2676503930835609, 0.2644002273659687, 0.2610862573389796, 0.2577702197591158, 0.25430383059290285, 0.2509179836319308, 0.24740877966270425, 0.2439622850106763, 0.24041236300080931, 0.23685698570729838, 0.23321887076832964, 0.22961732763392723, 0.22595849063662182, 0.22227369517545878, 0.21860290114830597, 0.21485276238406778, 0.21115496995181746, 0.2073291359711935, 0.2035758361267972, 0.1997683425569592, 0.19592169459800882, 0.19214242363885714, 0.18827022104534963, 0.18439849337520997, 0.18056313625492607, 0.1767057760321869, 0.17283348566153414, 0.16896638963575872, 0.16511293551223652, 0.16127295374453596, 0.15739980542661597, 0.15355435747578383, 0.14973868822206635, 0.14589231594448282, 0.1420742215874879, 0.13826954912640924, 0.13448042547289807, 0.1307196577363066, 0.12692372623451756, 0.12324838325301558, 0.1194949609089955, 0.11581423064036783, 0.11212197768544213, 0.10849463704037281, 0.10491113157690414, 0.1013144257220334, 0.09776971989062773, 0.09429232835140358, 0.09079564286815624, 0.08740358739862353, 0.08402444227634541, 0.08070127120800757, 0.07739872747551971, 0.07415007410064564, 0.07093999006197063, 0.0678251554288962, 0.06469875612926378, 0.061632735362781424, 0.05866365803317164, 0.055738105717290216, 0.05281742039459139, 0.05001302063575898, 0.047248073495606224, 0.04455224403768768, 0.0419276119316133, 0.03937191417797292, 0.036843467911091964, 0.034448947713898725, 0.032132920488225664, 0.029835330035926925, 0.02761682196670026, 0.025452728759365623, 0.023435094299647286, 0.0214303461548094, 0.019563754026254158, 0.01771854680292836, 0.015987828716156928, 0.014325050716633465, 0.012755093076234103, 0.011323334124874733, 0.009873541958550171, 0.008557887136741204, 0.007379624960760604, 0.00617997982680094, 0.005159539532316043, 0.00421363609687665, 0.0033174670699559535, 0.0025952127649843857, 0.0019395930384093038, 0.0013778109968257328, 0.0008757264717143324, 0.0004892444184525768, 0.0002221161643726227, 6.847302709207303e-05, 0.0, 4.444739072850367e-05, 0.00010163757126673246, 0.0003273249141541624, 0.0006961893622469171, 0.0011081633355254654, 0.0016265264597236817, 0.002253513469622742, 0.0030142831518438287, 0.0038372400832529167, 0.0047743019833160275, 0.005866538469944202, 0.007018025273762295, 0.008279872351103085, 0.009684349768960732, 0.011161616280089317, 0.012752026621413734, 0.014434294553582075, 0.01623999001980671, 0.01816928954173524, 0.020180076261315936, 0.022309369103885767, 0.024534985337348155, 0.026882514587288717, 0.029331001161301808, 0.03189653471438964, 0.03453935710317971, 0.037295555023313165, 0.04019542926168772, 0.04311117875105556, 0.04621091254567736, 0.04941038723887248, 0.052682499783306413, 0.05608549590408909, 0.059617226938212614, 0.06321250082047039, 0.06690192190420609, 0.07073214171395957, 0.07464708175349699, 0.07861342710849785, 0.08276470853569937, 0.08696299351032954, 0.09129252531920784, 0.0956598266848234, 0.10019046219213812, 0.10480606858420147, 0.10946102472023198, 0.1142149407399077, 0.11910860300705349, 0.12407393657769152, 0.12913065020543588, 0.13425224209701367, 0.13950462363813348, 0.14485854784663582, 0.15026491167062703, 0.15571703921699717, 0.16136924014125617, 0.16698069859244985, 0.1727540182979331, 0.17859912717523937, 0.1844624569862824, 0.1904762123855798, 0.19648924896651856, 0.20266472571069621, 0.20885653738101131, 0.21511860897628532, 0.22140922862723275, 0.22782007681347646, 0.23432041339014986, 0.24083859850063966, 0.247451092631356, 0.25407906930180973, 0.26083305209053803, 0.2675916707203283, 0.274468912941417, 0.28134983776400696, 0.28827543966432834, 0.29526700128450767, 0.3023246662453393, 0.3093971085550515, 0.3165291803103335, 0.32373898018013325, 0.3309747633068969, 0.33820941815085304, 0.34548545707446976, 0.3528452947283511, 0.3602025683089638, 0.36759044748802316, 0.3750059573964707, 0.3824389584825826, 0.3899212013411116, 0.3974823454923066, 0.4049579425562133, 0.4124936360833195, 0.4200990498104939, 0.42766413069698656, 0.4352908583181346, 0.44287778117275217, 0.45046011591490803, 0.45808876777263, 0.46572071709868507, 0.4734043005528907, 0.4810030188481722, 0.48865989766635126, 0.4962858346993121, 0.5038941175961226, 0.5115120066790952, 0.51909108954501, 0.5267053463482491, 0.5342537438516125, 0.5418163181046021, 0.549400031497376, 0.5568841489492424, 0.5644134633991816, 0.5719131226451071, 0.5793503285518694, 0.5867755307489908, 0.5941687448866882, 0.601584224761924, 0.6088808112997763, 0.6161968062829815, 0.6234471029603483, 0.6306430380042392, 0.6378236099085913, 0.6449238801067178, 0.6520573815202849, 0.6590521841837765, 0.6660562565639658, 0.672986456069302, 0.6798291979742757, 0.6866697571385061, 0.6933775995926653, 0.7001313392988389, 0.70672700159017, 0.7133444267939144, 0.7198692713303293, 0.7262751804720918, 0.7326772835896938, 0.7389767656617828, 0.7451885975872827, 0.7513584529535989, 0.7574379732852188, 0.7634501835784084, 0.7693565211960823, 0.7751913389635943, 0.7809825442421552, 0.7866109707315648, 0.792207646085644, 0.7976884428447902, 0.8030878049707308, 0.8084283217215319, 0.8136334274456314, 0.8187970513616317, 0.8237808929110968, 0.8287827537027184, 0.8335990990057414, 0.8383543696009796, 0.8429639089956021, 0.8475352708392628, 0.8519865510101038, 0.8563207649458353, 0.8605060171807087, 0.8646218325869488, 0.8686572784257612, 0.8725593613890327, 0.8763622015579223, 0.8800286262599226, 0.8835844830012629, 0.8870432432334246, 0.8903897884371674, 0.8935792865510342, 0.8967135709916441, 0.8996907122369425, 0.9025586133534835, 0.9053219102328605, 0.9079732886650849, 0.9104604820517973, 0.9128925224567783, 0.9151595085309523, 0.9172785545517229, 0.9193558216409399, 0.9212589794758959, 0.9230137975455398, 0.9246828917599526, 0.9262074676801528, 0.9276124727519742, 0.928931412487595, 0.9300545041648689, 0.9310533412527151, 0.931969936907695, 0.9327498371593724, 0.9334327485483981, 0.9339656074960004, 0.9343211463878462, 0.934580970534573, 0.9347528179107668, 0.9347508377832932, 0.9346461735057406, 0.9344074121166225, 0.9340669621085376, 0.9336217407400509, 0.9330005571714687, 0.9322449075098084, 0.9313875201679099, 0.9303308120586739, 0.9292527620934518, 0.9280293433951181, 0.9266185697323082, 0.9251500654544295, 0.9235000114990991, 0.9217902713258902, 0.919901217161091, 0.9179181932297633, 0.9158414656359182, 0.9136143875239326, 0.9112806535164119, 0.9088097281026118, 0.906247879841913, 0.9035600590120092, 0.9006927747121701, 0.8978062081919322, 0.8947551050323164, 0.8916197824930685, 0.8883474522866124, 0.8849147171109236, 0.881417297033556, 0.8778441683166086, 0.8740964413270673, 0.8702998402075396, 0.8663620091875752, 0.8622938542648201, 0.8582082074174573, 0.8539413287550244, 0.8495776558700546, 0.8451507992054089, 0.8406386248584691, 0.8359475758146995, 0.8312368120966461, 0.8264069154865785, 0.821499890665834, 0.8165009765931093, 0.8114106614455924, 0.8061663269266138, 0.8008866007646134, 0.7955335413086628, 0.7900920814339817, 0.7845462170665921, 0.7789373958109018, 0.7732021465887842, 0.7674803855565108, 0.7615777089387622, 0.7556652431486068, 0.7497102911977156, 0.7436065385722577, 0.7374937390853161, 0.7313110569347759, 0.7250488592881404, 0.7187204154214673, 0.7123174556086797, 0.7059051657010236, 0.6993635366962107, 0.6928058541886275, 0.6861769319256286, 0.6795203219079692, 0.6728076163146999, 0.6660347941294227, 0.6592225048230528, 0.65235110194512, 0.6455002671102398, 0.6385099530102576, 0.6315678384583214, 0.6245666945668512, 0.6174546748390113, 0.6104385126427507, 0.6033007432719717, 0.5961509238903909, 0.589014758082152, 0.5818030282469027, 0.574616278220365, 0.5674059516042229, 0.5601798500230027, 0.5528674045610004, 0.5456054666185854, 0.5383665175563529, 0.5310443094132349, 0.5237279772378357, 0.5164464788720186, 0.5090990072502444, 0.5018071653197202, 0.49447693353940514, 0.48717037416114994, 0.47982180312472195, 0.47251669493776727, 0.4652495892131131, 0.4580083407287434, 0.4507267168264137, 0.44348264356752265, 0.43625331529352035, 0.429016347969562, 0.42182736207469035, 0.4146592168780627, 0.40749301873753263, 0.4004159821426715, 0.3932895113419152, 0.3861986351865456, 0.37920066519263296, 0.37216299370878203, 0.3652435518362839, 0.35828328467639076, 0.3513776620504893, 0.3445448934994613, 0.3376997963551509, 0.3309888544751337, 0.32424099040183846, 0.3175807466697114, 0.31099182678729403, 0.30444647773870176, 0.2978796690528684, 0.2914755470219365, 0.2850612391004563, 0.2787139471564394, 0.2724480454103276, 0.26620873495254477, 0.2600312509875452, 0.25393719023031436, 0.24790617922507008, 0.24195516981535672, 0.23605175447735458, 0.2301531347021942, 0.22441223836544383, 0.21873886981623875, 0.21311019403116568, 0.2075483216689041, 0.20213592376021053, 0.1967353530112378, 0.19136506158468466, 0.18620764689203936, 0.18099162324391038, 0.1759553162475477, 0.17095838001354235, 0.16604974616323132, 0.16126006913984364, 0.15650131906501452, 0.1518140883634583, 0.14723725052803685, 0.14272649316237593, 0.13837867306639842, 0.13405183147900163, 0.12978194045198038, 0.12566134858243463, 0.1216265973482367, 0.11770475804431214, 0.11381237581623957, 0.11008276498986586, 0.10637937548098678, 0.10278641613099262, 0.09933666775580699, 0.09591036887150421