0.038710046460048955, 0.03838601010747983, 0.03801135158728497, 0.03767286952354941, 0.03736431485675065, 0.03712014546194288, 0.03683091458995384, 0.03655905201906271, 0.0362476824410248, 0.03600225149652966, 0.035757594289992006, 0.035524645117368324, 0.035303614793164906, 0.0351054860490298, 0.0348276011751761, 0.03462907510469129, 0.03434703343354405, 0.03416869587052984, 0.03395721528505291, 0.03373419239955568, 0.03348723153657064, 0.03327500769386096, 0.03305191414211244, 0.03287991912484091, 0.0326173068001012, 0.03241795324021068, 0.03224419845075097, 0.0320844606565703, 0.0318978855358327, 0.03165487686124988, 0.03151294831670881, 0.0313326232650294, 0.031179547142787617, 0.03098539479910478, 0.030862650680090625, 0.030726179199354976, 0.030518915329288358, 0.030396159311846006, 0.030253633510629725, 0.030125647366728348, 0.030046162820496332, 0.029879355860749256, 0.029779654514461518, 0.029663335841666284, 0.029580312615260226, 0.029497229272946877, 0.029429155657750013, 0.029403256862847286, 0.029288748052024804, 0.029249130490914203, 0.02921453216541732, 0.029229169706182796, 0.029205221340116463, 0.029174889691985718, 0.029138344187389722, 0.029224166080436247, 0.029219455701662223, 0.029230930425903585, 0.02928795212824633, 0.029337980769102233, 0.02935117684944565, 0.029443625903087994, 0.029548447198077178, 0.029604250842913262, 0.02970368668039631, 0.02988490370502181, 0.02994435559169273, 0.030111445821206544, 0.03029487437849548, 0.03046440026167198, 0.03059236547000712, 0.030822291042846037, 0.030992369688439658, 0.031207040647756114, 0.03147828821651291, 0.03170065793409523, 0.03198356014603736, 0.03221843426348363, 0.03245998426509919, 0.032782110368501205, 0.033072725276871856, 0.033426838302255325, 0.033734297489285435, 0.03407972272467753, 0.0344565248666254, 0.03484334840609703, 0.035191585702149406, 0.03559765450898679, 0.03606435225824431, 0.03645887097026862, 0.03692425174582982, 0.03740000649783588, 0.0379026516200613, 0.038394013531601365, 0.038906395886046635, 0.03944461786869466, 0.040011422386161254, 0.04054448512159283, 0.0411496643634262, 0.041755540258206686, 0.04236306379164337, 0.04296432451285234, 0.04360925225491397, 0.044276433802300744, 0.044971590232230886, 0.04570812564946725, 0.04638823002752214, 0.047136510181587, 0.04787407372661456, 0.048688669997513555, 0.049431549874617446, 0.05028586356384643, 0.05108813506537272, 0.05195952001684152, 0.05279809563246213, 0.053732864149338935, 0.05461688065015755, 0.05551845940071001, 0.056499105836825284, 0.057473933952113566, 0.058432371794041885, 0.05940812870977952, 0.06039147324017227, 0.061480894926061444, 0.06249152188053181, 0.0636109843519172, 0.06469640276018523, 0.06575984488635098, 0.06691335884829754, 0.0680862348556705, 0.0692740517619339, 0.07043920294025457, 0.07164729708178326, 0.07291630629034729, 0.07418452873551408, 0.07541070625223821, 0.07672835655275309, 0.07801478415585462, 0.07929458000621224, 0.08064749572159517, 0.08199974734179025, 0.08341520305709303, 0.0848066712095042, 0.08617633392296538, 0.0876755669148798, 0.08908638580890628, 0.09052846136828392, 0.0920635212237831, 0.09356741332846721, 0.09508778750229409, 0.09659780460061385, 0.09819267688161541, 0.09973228620902544, 0.1013845963636695, 0.10298392600845907, 0.1045954800328029, 0.10624140899043444, 0.10788823682150553, 0.10953192702711832, 0.11123668837617236, 0.11294118216613078, 0.11466459183109558, 0.1163705735671062, 0.1181226987700108, 0.11989365981865538, 0.1217017444918172, 0.12346136003599553, 0.12527378624120677, 0.12710638728637808, 0.12891671825725035, 0.13074241085889715, 0.13262808942524648, 0.13451147991215842, 0.1363394457859903, 0.13823199841657, 0.1401304291515324, 0.14205532148420325, 0.14396864054895175, 0.1459171053278674, 0.14788433569824838, 0.14980552830469016, 0.15177604262004007, 0.15369152457016572, 0.15566519531118386, 0.15765823997550293, 0.15965760131031484, 0.16161183666510762, 0.1636494543083722, 0.16567163629665235, 0.16764746098559838, 0.16966085083792876, 0.17173491225074247, 0.17370379069174505, 0.17576405794385772, 0.1777812278940135, 0.17981390196678124, 0.18189730371128995, 0.18386998715929134, 0.18591835850771243, 0.18799515184427604, 0.190021710454681, 0.19204478782665854, 0.19405405619914576, 0.19613375240218525, 0.19815706058384414, 0.20014227333839038, 0.20222370685524166, 0.20424901603228718, 0.20625898997187497, 0.2082496169836496, 0.21030713883758587, 0.2122845773522061, 0.2143101361127862, 0.21628179756457694, 0.218283671698542, 0.22023967274593065, 0.2222088650310057, 0.22417840719328846, 0.22612409408936462, 0.2280759889394515, 0.2300340510100374, 0.23192385180109398, 0.23384299105956177, 0.23569281973917677, 0.23761453102688157, 0.23947033953491398, 0.24127594625856147, 0.24316237443439753, 0.24496836016171053, 0.2467617645966569, 0.24855404150883598, 0.25034369437238607, 0.2521611180830364, 0.2538479482367431, 0.2555598907243838, 0.25731977785121796, 0.25899027468848834, 0.26062580748221725, 0.26224669110293997, 0.26388683970520793, 0.2654921597675203, 0.2670195777800551, 0.2685808859991666, 0.27010730722806087, 0.27166056534254734, 0.2731332812587523, 0.2745562232685422, 0.275982116277903, 0.2773968142481902, 0.2787467632539358, 0.28010830371294765, 0.2814798770278363, 0.2827324102319607, 0.2839971176164975, 0.2852604298122086, 0.28643253432243465, 0.28761990038281227, 0.2887911316723018, 0.28988537985668056, 0.29094911812451413, 0.2919976240265337, 0.292986644672876, 0.2940142784091422, 0.2949691990561261, 0.29582197323745896, 0.2967731066966573, 0.29755231675775157, 0.29842145661033187, 0.2992035677674655, 0.2998915279253255, 0.30061465381860036, 0.3012887549411102, 0.30193369389833546, 0.30255165232826436, 0.3031043835069066, 0.303584652874484, 0.3040956208425283, 0.30451745991023416, 0.30495046889270094, 0.3053101839579019, 0.30560401725538794, 0.30587929648652235, 0.3061866011783992, 0.30635737552009246, 0.306539932167296, 0.3066709165220978, 0.3067017702397771, 0.30675327558542653, 0.3067742404127556, 0.3067571595046311, 0.3066538484443202, 0.3065401015148244, 0.30642955594061605, 0.3061744026585295, 0.30597020159859206, 0.30570758632900935, 0.3053393320410282, 0.30495667038930285, 0.3045766084522744, 0.3040999528572988, 0.30365351332589524, 0.3030456252967991, 0.3024793004604537, 0.3019013164515842, 0.301187183362611, 0.30052656803777655, 0.29974016704290285, 0.2989687534787774, 0.2981828054770183, 0.2972979098335888, 0.2963624761283476, 0.29544900491979464, 0.2944551507984992, 0.2933935402752787, 0.2923203525331326, 0.2912348827516607, 0.29006807935431284, 0.2889134614939056, 0.2876340306026475, 0.2863561906826471, 0.28509194092304724, 0.2837388350294165, 0.2822899553492344, 0.28089016781055753, 0.27945961629868754, 0.2779372642236946, 0.2763436121443051, 0.27484123623240114, 0.27316528160204073, 0.2715347288949995, 0.26985294846256985, 0.26815675416793283, 0.266425920498627, 0.26462951998998646, 0.2628244709186936, 0.2609822690943149, 0.2590363503207005, 0.2571189360923203, 0.25520815176516737, 0.2531754560394018, 0.25122043011628464, 0.24910641067158784, 0.24708386036691166, 0.24495420148668207, 0.2428095346812334, 0.24064600169709846, 0.2384705640157505, 0.23622843278025527, 0.23404319080881608, 0.2317472627692896, 0.22949799148784505, 0.22716773146762814, 0.22480812689449503, 0.2224322291637434, 0.22008567793132375, 0.2177139462815136, 0.2152277549890418, 0.21279219373737773, 0.21036135558107058, 0.2078840601828416, 0.20536377252257398, 0.20284531643945805, 0.2002716982833936, 0.19775032000493775, 0.19518418751597721, 0.1926039038781121, 0.18997123714909303, 0.18740060426404886, 0.1847956971490273, 0.18220335200602453, 0.17952438257918113, 0.1769266009581211, 0.1742725610379624, 0.17159016237907274, 0.16892681250692965, 0.16625475142782417, 0.16364264921473878, 0.16089715549900116, 0.15827665095254445, 0.15557797693688133, 0.15286707748784242, 0.1501633018818019, 0.14748962035054344, 0.1448619429077844, 0.14211753203121302, 0.13947511072037783, 0.13683132292872252, 0.13415213588271035, 0.13147901784510918, 0.12885773371993814, 0.1261947726812719, 0.12360288521189179, 0.12097857587344892, 0.11835595226185225, 0.11581375280615858, 0.11323989482563492, 0.11064594018680607, 0.10805311882005232, 0.1055569091289316, 0.103034329480323, 0.10053973752866527, 0.09804256463025827, 0.09555759285019437, 0.09316919412433215, 0.0907313615552921, 0.08830124756509397, 0.08598428590615023, 0.08364216804949108, 0.08131028756227718, 0.0790179710542943, 0.07672248975106265, 0.07448776040773523, 0.07230066044054452, 0.07013952521969377, 0.06800767923689612, 0.06590701126074097, 0.06380974706227796, 0.06171691332819786, 0.059708224132996646, 0.0577809702822502, 0.055778148070713476, 0.053935556626236045, 0.05200142901291713, 0.05017692703725735, 0.0484288804787236, 0.04665047310292626, 0.045000076289584814, 0.04329123493810493, 0.041702093743111596, 0.04008476394322253, 0.03861173365190675, 0.0370890710469998, 0.03569377651788474, 0.03428266580589714, 0.03291928151923627, 0.031636094601903655, 0.03044608586686042, 0.02919166628035585, 0.02806480253624479, 0.02697117720130459, 0.02593953291375176, 0.024985076456410175, 0.024039443167585488, 0.023107432508567456, 0.022352468058423784, 0.021569808780091723, 0.020814540291238737, 0.020195297271868525, 0.019603859930038114, 0.019112861245408227, 0.018640919247571542, 0.018172898306607812, 0.017878637209519033, 0.01752676712641187, 0.017310735264324462, 0.017188853134819316, 0.017050849454905, 0.016974749683728245, 0.016995188329271674, 0.017089161764126663, 0.01722904583598277, 0.01747325398262576, 0.017714618778640497, 0.01808601520245369, 0.018429053234831672, 0.01894704569310825, 0.019471475663922377, 0.020062219173358445, 0.0207513981522611, 0.021511202111631173, 0.02231857113010166, 0.0231859023850819, 0.0241080115495444, 0.025128189702081888, 0.02623332988852597, 0.027379700948001906, 0.028608607131396093, 0.029912458897748753, 0.03122384311607091, 0.03270680255201375, 0.034151996835087135, 0.03574587525896081, 0.03740648586628473, 0.039082608205679444, 0.040869551804384986, 0.04273464045880674, 0.04460917824644982, 0.046597643394128196, 0.048703011077318184, 0.050826543096974056, 0.05302669886932191, 0.05535050561318394, 0.057662521189757766, 0.06010043640582223, 0.06256860878167735, 0.06511025134551746, 0.06775281001757794, 0.07042831628362688, 0.07318137708048371, 0.07603582261377025, 0.07897322904336533, 0.08193819351133887, 0.08491520119767527, 0.08804176233530019, 0.0912571933462719, 0.09447195540005887, 0.0977788832212339, 0.10122088092376676, 0.10462773008168692, 0.10816745452202634, 0.11171924200040274, 0.11537853757615035, 0.11911004991267175, 0.12288440445269595, 0.1267593837315387, 0.13065108331010078, 0.134673573325108, 0.13864614039751502, 0.14280461272994766, 0.146920488664911, 0.15117178722570943, 0.15544458828897284, 0.1597792795279504, 0.16418054522525877, 0.16864958168116176, 0.17318368642534712, 0.17781463109574316, 0.1824155053264747, 0.1871171525071474, 0.19193362070008343, 0.19669914906476194, 0.20159074529142149, 0.2065438995168706, 0.21155015358984844, 0.2165159612201673, 0.22162986777251262, 0.2268070999475909, 0.23198953388268845, 0.2371597026680823, 0.24251500880187565, 0.24785253677230865, 0.2531794457038639, 0.2586559987499011, 0.2641329550469105, 0.2696472332420124, 0.2751965234412369, 0.28085931788175866, 0.28651103907707953, 0.29218336476851525, 0.29795612459910087, 0.3036939635646874, 0.30954233313599605, 0.3153791277033159, 0.32132292964734893, 0.3272576239412401, 0.3332195249634385, 0.3391910530155119, 0.34518810398642524, 0.35125236376291924, 0.357364360273923, 0.3635163908408875, 0.36963006980406893, 0.3758080059782843, 0.382044650779089, 0.38824873291768264, 0.39452059602318684, 0.4008142583532322, 0.40706091797992006, 0.41343891395388516, 0.4197449795411764, 0.42610103777344627, 0.4325307253992021, 0.43891500657125804, 0.44532600613143053, 0.4517619811404878, 0.4582013870538014, 0.4646207369513438, 0.4711346859997293, 0.4776006211780868, 0.4840261206080022, 0.49050583836749034, 0.4970239414209184, 0.5035488782952298, 0.5099863723885096, 0.516500900914084, 0.5230289126415198, 0.5295021087846571, 0.5360626337763814, 0.542538646176293, 0.5490476023434593, 0.5555144380454333, 0.5620394692396574, 0.568464174260773, 0.5749549672968021, 0.5814494461874974, 0.5878973251997588, 0.5943006152491512, 0.6007515696575533, 0.6071005633379857, 0.61353196519503, 0.6198525664384915, 0.6262248256235586, 0.6325440252604445, 0.6388710263830639, 0.6451345370674798, 0.6514062199487128, 0.6576928311098073, 0.6639022963757848, 0.6700345302380655, 0.676193673700854, 0.6823311885710623, 0.6884776488556253, 0.694525976104393, 0.7005188015439904, 0.7065471912523181, 0.7125051701025353, 0.718393477922144, 0.7242589938463856, 0.7301335147748947, 0.7359012121785373, 0.7416645378064275, 0.7473752124547888, 0.7530557339920438, 0.7586497767800008, 0.7642661521227682, 0.7697498013717919, 0.7752375405719321, 0.780691827350221, 0.7860718305189357, 0.7913879453626459, 0.7966910472644608, 0.8018504796899609, 0.8070725665619018, 0.8121772553224349, 0.8171576973352161, 0.8221922367584749, 0.8271219538370236, 0.831936303149828, 0.8367830650667067, 0.8415351321528822, 0.846142881874227, 0.8507593224786606, 0.8553331486043348, 0.8597925120179769, 0.8641751527038203, 0.868527535334077, 0.8728443264477275, 0.8770007904545285, 0.8811563957778465, 0.8851597739127915, 0.8891854734270611, 0.8930786418212994, 0.8969351624196196, 0.9006653776153234, 0.9043105516478126, 0.9078992695257122, 0.9114685255263573, 0.9148996944342817, 0.9182697953437141, 0.9215366765076797, 0.924702966388298, 0.9278197832213638, 0.930812652882114, 0.9338036261328347, 0.9366410193479681, 0.9394372395237859, 0.9421461944302744, 0.9447396274891083, 0.9472131163702727, 0.9496716492498282, 0.9520473853976011, 0.9542870362569018, 0.9564204744419793, 0.9585562868022032, 0.9605308174056597, 0.9623764269728622, 0.9642150841007564, 0.9658879275203103, 0.9675268195022797, 0.9690794089879694, 0.9705058874586818, 0.9717909436498977, 0.9730928278431367, 0.9742358518302094, 0.9752627140809347, 0.9762296951433826, 0.9771532393897175, 0.977880405050762, 0.9786314958985385, 0.9792094016396256, 0.9797134701566548, 0.9800580732560177, 0.9804427421033705, 0.9805878101625413, 0.9807575046796143, 0.980787115992857, 0.980703558737497, 0.980488316331871, 0.9802229667926844, 0.979897868505641, 0.9794115119863162, 0.9788709120974589, 0.9782565634397317, 0.9774921966673816, 0.9766910502294175, 0.9757596001835855, 0.9747037323485773, 0.9736214548305435, 0.9724215373172682, 0.9711472557763062, 0.9697120300429121, 0.9682320316666576, 0.9666633676195145, 0.965019238832634, 0.9632413900552076, 0.9614153978950263, 0.9594738767641403, 0.9574668792025203, 0.9553612375237123, 0.9531158543051795, 0.9508368474419543, 0.9484524278644617, 0.9459374663896518, 0.9434499799392806, 0.9408100403343592, 0.938032881047952, 0.9352751037354474, 0.932386952827193, 0.9294292890103122, 0.9263706103673819, 0.9232256261997677, 0.9199847052433647, 0.9167547456724037, 0.9133631955933406, 0.9098987883889605, 0.9063956609047499, 0.9027700169380536, 0.899078811458617, 0.8953734425382526, 0.8915394229335992, 0.8876477499838566, 0.8836770498738415, 0.879631721784751, 0.8755159723042897, 0.8713022028847272, 0.867074124910372, 0.8627549363671259, 0.858445443612606, 0.8539916945211001, 0.8494812275092293, 0.844902981489258, 0.8403367859659624, 0.8356645714694174, 0.8308967367748178, 0.8261126010767981, 0.8212673806584306, 0.8163651343583195, 0.8113683352636175, 0.8063667980202855, 0.8013674051939953, 0.79623356053527, 0.7910939388547433, 0.7858675474217558, 0.7806023957275068, 0.7753565191207334, 0.7699811778025372, 0.7646554639756404, 0.7591984184304731, 0.753777293526994, 0.7482701189395015, 0.742768080843967, 0.7372118872252148, 0.7316384816343499, 0.7260687042229504, 0.7204154342050515, 0.7147404688930539, 0.7090205091256083, 0.7032519482029548, 0.6975475423299307, 0.6917258222940814, 0.6859758957292015, 0.6801569580373737, 0.6742847910354521, 0.6684219175845363, 0.6625685836444677, 0.6566926488817855, 0.6508224554798929, 0.6449575409196386, 0.6390021861813422, 0.6331506170835292, 0.6271953725860194, 0.6212972719361647, 0.615354851328425, 0.6094094460625744, 0.6034372745920968, 0.5975199068045094, 0.5915930217267873, 0.585720760239737, 0.5797690867559678, 0.5738633497629668, 0.5679355144343453, 0.5620595456656524, 0.5561709799132682, 0.5502371187315764, 0.5444289529362084, 0.5385653653882081, 0.5327742985867104, 0.5269030600813932, 0.5211467005852503, 0.5153869650938255, 0.5096818587566478, 0.5039042063583644, 0.4982027172815325, 0.49258343353886824, 0.48692883072187343, 0.4813159535361852, 0.47566938536305775, 0.4701487038043884, 0.46462276741900704, 0.459152457389975, 0.45363437910389914, 0.4482582481772473, 0.44285510527691646, 0.4374707402645873, 0.4322135241289917, 0.42692294506409173, 0.4216740337739112, 0.41650297134341663, 0.41138066020240605, 0.40628206657235116, 0.4012306444712171, 0.39623863396060716, 0.39128682629419803, 0.38638371099694463, 0.3815437022449378, 0.37674887929645756, 0.37193608913500176, 0.3672541824591004, 0.3625935713492329, 0.3580184716888765, 0.3534361471049623, 0.3489441337549921, 0.3444956223575132, 0.34016204293539076, 0.33579086375944345, 0.3315871384452474, 0.3273626140949632, 0.32321476377982494, 0.3191832372794909, 0.31514190521436203, 0.31121215900673044, 0.3072950702192244, 0.3034330991944531, 0.29967082325719013, 0.2960095839158696, 0.2923424949656674, 0.28877530756213504, 0.2852375200394475, 0.2817700547249975, 0.27842150684818456, 0.2750598647948399, 0.2717858167203219, 0.2686203191870691, 0.26551394569008346, 0.262451983421664, 0.2594291173169213, 0.2565132383759705, 0.25365255489129507, 0.2509034440818483, 0.24820480991085286, 0.24551769699035772, 0.24295701295884636, 0.24042675547186493, 0.23798531478790064, 0.23555154697886754, 0.2332659728347022, 0.23099615492435385, 0.22879952287764257, 0.22668326570277525, 0.22463898561315063, 0.22259686592601272, 0.22070073722391328, 0.21883236202884382, 0.21705550975120227, 0.21535445596655528, 0.2136540694778308, 0.21205335463750002, 0.2104956898591358, 0.20908162221138077, 0.20761797940989377, 0.20633251556827883, 0.20498822149399237, 0.2037642893079093, 0.20260582486094955, 0.20150352645162697, 0.20050795713683303, 0.19950496653852295, 0.1985542413570976, 0.19769333566177108, 0.19687084404641042, 0.19610143223440957, 0.1953894065425594, 0.1947600900150039, 0.19415395552524234, 0.1936162526898248, 0.1930998841134495, 0.19265988095519396, 0.19227731023115224, 0.19194843459128766, 0.1917117664586608, 0.191455525217203, 0.191241354919882, 0.19109974177961078, 0.19105250714175645, 0.19099205287412238, 0.19091818471508593, 0.19099868500654424, 0.19105369209970144, 0.19115443311825958, 0.19132715263511668, 0.19145792471871592, 0.19173172699286595, 0.19200810479239488, 0.19226555375223853, 0.19258197396131996, 0.19300015010669072, 0.19336495389491953, 0.1937814586543589, 0.19423858719422157, 0.1947381466784816, 0.19528801849833352, 0.19585616392750813, 0.1963777364119436, 0.1969555823244859, 0.19757922154199112, 0.1982316336486942, 0.198912889887956, 0.19957946973153692, 0.20020782776140808, 0.20093789768301795, 0.2016475367047274, 0.20238997178321141, 0.20315384479526735, 0.2039592883572703, 0.2046758210021766, 0.2055226795110104, 0.20625788939089182, 0.20707223629976507, 0.2078929822325726, 0.20871264136808487, 0.2095585601699403, 0.21035911968988855, 0.21120247300824216, 0.2120591751659536, 0.2128310284226053, 0.21369588537311907, 0.21454086858281576, 0.21528932838242926, 0.21611056698675302, 0.21691720913964585, 0.21773509373405495, 0.21854969696780044, 0.2192728816044432, 0.22005049330541646, 0.22081618163804995, 0.22157489389013116, 0.22233088199434, 0.22304261848012147, 0.22378804103586378, 0.22444364023969648, 0.22516434057023593, 0.22580739129385088, 0.22644753093761597, 0.2270224694590164, 0.22765768446959495, 0.22818726068958753, 0.22879966352083278, 0.2292661221057662, 0.22982622273282355, 0.23024571573629068, 0.23068704605277338, 0.231144311966011, 0.23154057335315828, 0.2319207756303197, 0.23221681935059377, 0.23252394849113014, 0.23281482138410972, 0.23311182154066978, 0.2333092394675026, 0.23351000041402023, 0.23360344828019977, 0.2337880277683495, 0.2338702852222206, 0.23388125212727387, 0.23388718015381496, 0.2338650361177184, 0.23379783731246356, 0.23367918466147744, 0.23357477626867684, 0.23337993199299814, 0.23319884506929847, 0.23291318300462568, 0.232641480765457, 0.23226699428306705, 0.23195995782977433, 0.2315262918764955, 0.23107795680196405, 0.23056241958847573, 0.23004575407404815, 0.22948394839250916, 0.2288685037372084, 0.2282576036776402, 0.22754954703384478, 0.22685650697247592, 0.22606652682421205, 0.22521966733060889, 0.22434119207353248, 0.22348468267383836, 0.2224853975261969, 0.22151373894902712, 0.22053303906685623, 0.21945410684503147, 0.21831040190843032, 0.2171591873460661, 0.21598271269675612, 0.21476941119707554, 0.21354817686195088, 0.21222254761500198, 0.21086019423586513, 0.20946924018966528, 0.20805630074118478, 0.20658599237502348, 0.20510365719820414, 0.20355856413127935, 0.2019764378455329, 0.20038329635410804, 0.19872367358534798, 0.1970486870250509, 0.1952886859660935, 0.19357570319231804, 0.1917643886481262, 0.18995909940770628, 0.18808895086280664, 0.1861750997073381, 0.18426063168265636, 0.1822853471996288, 0.18034343979265455, 0.17831810219478117, 0.1762450478784517, 0.17419252439629457, 0.17210566539252853, 0.16997791471012857, 0.1678336433102828, 0.1656522137437723, 0.16346481855513645, 0.1612343939235259, 0.1590136802648023, 0.15668949069827265, 0.15444283497006392, 0.15213715147038465, 0.14978879298457756, 0.14739165765541773, 0.14503148252195808, 0.14269765787502955, 0.1402647936825444, 0.13785287963328136, 0.13548277391517904, 0.13300883059493213, 0.1305578862490383, 0.12811873677677754, 0.12568235577929637, 0.12323093629869697, 0.12073541355296936, 0.1182508074852871, 0.11572647629436626, 0.11326218954681509, 0.11080206083362018, 0.10826418946541258, 0.10580133672160445, 0.1033143226206394, 0.1008217141235955, 0.09829739763373284, 0.0957993377014205, 0.09338777916650966, 0.09087541498194411, 0.0884122000942634, 0.08600053638172588, 0.08359212685973501, 0.08110945745188643, 0.07875464436679647, 0.07632683317313947, 0.07395215435733507, 0.07158891060808037, 0.0692125690661045, 0.06690234779076629, 0.064631146283573, 0.062294019411300215, 0.06002243309269516, 0.057791774805927676, 0.05562425710335305, 0.05339017027373285, 0.05121266548028749, 0.04911442026771662, 0.04700850708624325, 0.04494529970303491, 0.04289484321670858, 0.04089993846522372, 0.03888190423350736, 0.03695680348718842, 0.035064663991325275, 0.03321221563860195, 0.03139611767629445, 0.02962521995887182, 0.027931424691601533, 0.026206741024915582, 0.024551053158422254, 0.022924236941380016, 0.02139669245044592, 0.01986520743832248, 0.018374179492904694, 0.01693817437898985, 0.01558875012144266, 0.014282565801385571, 0.01297616068375232, 0.01180821812633533, 0.01061618110412808, 0.00955468734954134, 0.008467159261539948, 0.007490658640881881, 0.006552105710610141, 0.005682776551343048, 0.004893543155080451, 0.004156130395539061, 0.0034490031476941906, 0.0028199778083492773, 0.0022309249332432587, 0.0017098751595921744, 0.0013066990940862212, 0.0008675486463060166, 0.0005665577006109119, 0.0003189268035688133, 0.00018399392271616606, 3.0469192460481582e-05, 0.0, 2.9844700575263066e-05, 0.00014438943106102146, 0.00032370413284401076, 0.0005811773049994295, 0.0008403533815704048, 0.001282154292397645, 0.0017309143143783914, 0.0022693945451594073, 0.0028811345866267156, 0.0035496375290291235, 0.0042577659667734635, 0.0050976421400842475, 0.006016931231420644, 0.007046929218188992, 0.00807734315466459, 0.009211385635082916, 0.010411094061376653, 0.011651866733320792, 0.013087912423816697, 0.014475429196239169, 0.016001553392088034, 0.017662560459616124, 0.019284467936664735, 0.021101750602999344, 0.022915968311460398, 0.02484872520838053, 0.026811770784051246, 0.0289023678602786, 0.031058590919136507, 0.033334805894814044, 0.03563139737183233, 0.037993187865044104, 0.04045656607840223, 0.04303014154156571, 0.045679433612114954, 0.04833663740225997, 0.05117170207718466, 0.054006879220055995, 0.05694059391626386, 0.05995024837016762, 0.06307686512125309, 0.06628551215025001, 0.06954278105311502, 0.07283508897727212, 0.0762550991756154, 0.0797637980308218, 0.08334419953892404, 0.08697923055656455, 0.09073318223737642, 0.09448298789323957, 0.0983826530673431, 0.10233925505387619, 0.10633995209554467, 0.11038271250265173, 0.11459086369606307, 0.11878283459640795, 0.12308898228777335, 0.12749827330042104, 0.13196688046403246, 0.13647633078412272, 0.1410757619710186, 0.1457095132896864, 0.15046694808875516, 0.15522387356314607, 0.16009594319741052, 0.16506933903857202, 0.17004993219805392, 0.17506631928598304, 0.1802151224777839, 0.18541851903807247, 0.19064051098026824, 0.19598395039730102, 0.20135414435394156, 0.20673727726614574, 0.21220640259814977, 0.2177609127671979, 0.2233479209533982, 0.22904853659459773, 0.234731244400343, 0.24046278387614323, 0.2462855111959694, 0.25215880774492766, 0.25808131225773906, 0.26410099771668044, 0.27005831275834924, 0.2761456529774784, 0.28228382031617205, 0.2884212787245288, 0.2945854025646114, 0.3008846724139463, 0.30716336512484316, 0.31349125021038016, 0.3198480751609086, 0.32619269626503183, 0.3326630580063011, 0.33911307838385274, 0.34564036322786423, 0.3521675936320634, 0.35880100184256797, 0.3653824856192456, 0.3720283740118314, 0.3786926387249345, 0.3853996223883515, 0.39208087661899343, 0.3988171230697189, 0.4055946217731873, 0.41241756160000004, 0.4192075449119235, 0.4260348419668925, 0.43287990971607687, 0.4397611455619225, 0.4466287858112338, 0.4535258742450399, 0.4604488199772722, 0.46734726090253903, 0.47427714807422183, 0.4811555775804018, 0.48811805602153274, 0.495075178574377, 0.5019968999598637, 0.5089522509913117, 0.5159391024622533, 0.5229144136453718, 0.5298197998020008, 0.5367865599041125, 0.5437126208450425, 0.5506680139830031, 0.5576171811182483, 0.5645411597705232, 0.5714900998671022, 0.5783844829490788, 0.585240854393702, 0.5921047018443852, 0.5989641055704419, 0.6058222517862457, 0.6126252119280902, 0.6194882801216224, 0.6262413892644061, 0.6329905902067636, 0.6397019472940296, 0.6464244409540334, 0.653133315253481, 0.6598196355258731, 0.6664618386890129, 0.6730484116954312, 0.6795763455146714, 0.6861441993639769, 0.6926239043006455, 0.6991053370207774, 0.7055160593424779, 0.7119275530376601, 0.7182405375452383, 0.7245666017501678, 0.7308350379667147, 0.7370099989811383, 0.7432066956846591, 0.7493616772514571, 0.7553665766032515, 0.7614552004257115, 0.7673784544333542, 0.773302202081115, 0.7792323032705546, 0.7849944745199962, 0.7907747191607007, 0.7965062570062759, 0.8021650478096178, 0.8077386265796647, 0.8132472559597677, 0.8187704152702849, 0.8241369203322361, 0.829491136106332, 0.8347738638076687, 0.839981045528685, 0.8451202634696143, 0.8501729879278646, 0.8551572682289101, 0.8601300706842449, 0.864950522267442, 0.86980685000263, 0.8745145123514342, 0.8791390278091253, 0.88369762706181, 0.8882398397021551, 0.8926055692627131, 0.8969455895826559, 0.901240593883353, 0.9054043521779076, 0.9095105983502357, 0.9135616061373706, 0.9174474209360536, 0.9213433006034139, 0.9250653169922579, 0.9288058236488294, 0.932332684401475, 0.935844710606179, 0.939267679261603, 0.9425971702850049, 0.9458423412791753, 0.9490503235449472, 0.9521048273603288, 0.9550781410372654, 0.9579342194469376, 0.960709652288011, 0.9634188547640915, 0.9660423939424833, 0.9685834002543854, 0.9709749160267463, 0.9733072380149791, 0.9755744910547133, 0.9777213420603912, 0.9797066788109304, 0.9816857518719941, 0.9835244877364767, 0.9852988909644441, 0.9869374798070003, 0.9884911682713279, 0.9899339811029995, 0.9913075932375766, 0.9925679281419615, 0.9937098083615564, 0.9947533227393237, 0.9957283245729986, 0.9966356440281363, 0.9974377896455537, 0.9981001230201495, 0.998655879710159, 0.9991452312239445, 0.9994716194305417, 0.9997467383463147, 0.9999540854669842, 1.0, 0.9999681554473174, 0.9998505738086181, 0.9996388567523204, 0.9993021647051796, 0.9988620049988447, 0.9983422493405233, 0.9977153950970827, 0.99701561469966, 0.9961652647636308, 0.9953120748432307, 0.9942324391428852, 0.9931292544726948, 0.9919413305305079, 0.9906233768328966, 0.9892426142484375, 0.9877482766749055, 0.9861613927446146, 0.9845014399883643, 0.9826854900167041, 0.9808187830416774, 0.9789006600625043, 0.9767844033332276, 0.9746264998423515, 0.9724425926010591, 0.9700839740890781, 0.9676389995080708, 0.9651150831073468, 0.9625072761157738, 0.9598537857780627, 0.957102898645023, 0.9541964907242947, 0.9512587944080628, 0.9482207116508878, 0.9451328598758388, 0.9419137544458835, 0.9386655376898886, 0.9353105689598865, 0.9318351931324754, 0.9283679360003574, 0.9247307199051332, 0.9210718465641816, 0.9172916012341411, 0.9134746390295331, 0.9095587056385298, 0.9055899844082128, 0.9015002293322625, 0.8973532762024198, 0.8932009211687262, 0.8889061929085695, 0.8845835810689384, 0.8802052830933053, 0.8757235137758017, 0.8712170932104494, 0.866656844266024, 0.8619741568022369, 0.857258093582558, 0.85252418847004, 0.8476284711057117, 0.8427720411493466, 0.8378460844138789, 0.832786617849205, 0.8277777411088276, 0.8226364607077336, 0.8175122570604387, 0.8122729709507959, 0.8070175938817383, 0.8016847348234929, 0.7963506141960642, 0.7909653077060605, 0.7855691013954788, 0.7801030883653114, 0.7745846381086092, 0.7690418380105555, 0.7634398272345188, 0.7578095814156961, 0.752131499913428, 0.7464763801267866, 0.7407633916201356, 0.7349811478599293, 0.7292218509809445, 0.7234486514439273, 0.717631423789393, 0.7117709078030445, 0.7058295444995997, 0.6999730721596846, 0.6940890162324973, 0.6880957835038433, 0.6821530513165962, 0.6761917586221069, 0.6702515236695817, 0.6642450495115051, 0.6582437893484334, 0.6522990671592979, 0.6462851915447222, 0.6402133741945811, 0.6342238175398476, 0.6281782190168771, 0.6221506311011885, 0.616167830306706, 0.6101079527252741, 0.6041307764563578, 0.5980666706251518, 0.5921114747431454, 0.586042270198844, 0.5801066060759309, 0.5741272258772281, 0.5681494190707868, 0.5621896714834225, 0.556188773792537, 0.5502966198661726, 0.5444045580436557, 0.5385153937226869, 0.5326433017097777, 0.5268178010227187, 0.5209804715434003, 0.5151886950421034, 0.5094559195111009, 0.5036919832323712, 0.49795919639519826, 0.4922684072481962, 0.48663031894374026, 0.4810367745460447, 0.47538206683674344, 0.46986619828585596, 0.46429810778843006, 0.4588174299386302, 0.4533667455636348, 0.4480088750236332, 0.442639868979593, 0.4372735254434263, 0.432011027468944, 0.4267559856109994, 0.4215584327648391, 0.4164745375753044, 0.4113657145072404, 0.4062965080122705, 0.4012694131392337, 0.39635030944234273, 0.3914213725359591, 0.3866205447325799, 0.38176138784995256, 0.37707635246129495, 0.37232826787260215, 0.3677402264172639, 0.36313725620346665, 0.3586276405518983, 0.3541020675265925, 0.34971921905785197, 0.3454020357549472, 0.34112030345924954, 0.33684923655392945, 0.33270542741949577, 0.328573792775401, 0.3245762840358881, 0.3206185031640407, 0.31666188288021174, 0.3128493952736723, 0.3090650174762418, 0.3052782921069487, 0.3016211414967204, 0.29808080350044724, 0.29454335015357097, 0.2910525337264857, 0.28763336364596714, 0.28433197542017713, 0.2810809215426348, 0.27788505732057184, 0.2747158259159716, 0.27167477622152747, 0.268702861913941, 0.2657726222491181, 0.2629056633134913, 0.2601379670948513, 0.257445475680055, 0.25474873433132245, 0.25217896904883175, 0.24970135765584098, 0.24721535081603513, 0.2448699445058141, 0.24253245129444753, 0.24035114614024625, 0.23813261444653602, 0.2360324086985629, 0.23398104888679155, 0.23199832440000198, 0.23010564134648526, 0.2282975365524567, 0.22647539144793682, 0.2247699021465908, 0.2231361367143158, 0.22156993219445212, 0.22009687110388393, 0.21861683977037843, 0.21729576423040547, 0.21598749189806682, 0.2146893810246785, 0.21354337633601303, 0.2124069622458765, 0.21133615118093318, 0.21030398064455202, 0.20933936945703074, 0.20845445456716963, 0.20762756639793875, 0.20692408896819503, 0.20614385866220036, 0.2055046717606631, 0.20494482841265366, 0.2043444021238529, 0.20390815481050417, 0.2034484264835242, 0.20310678080788316, 0.20272873581390496, 0.2025045385160047, 0.20226314246769272, 0.20209689346947038, 0.2019120851796201, 0.20187715671806727, 0.20181308079504684, 0.2018226755722711, 0.20189433101535162, 0.201989190849946, 0.20218002662273094, 0.20233036920373207, 0.20256809785942256, 0.20280799210108086, 0.20311882499374115, 0.20344797610196516, 0.20383036020540488, 0.20422554803406537, 0.204669813050284, 0.20520038407738392, 0.2057089972543746, 0.20619938902623794, 0.20678329042641824, 0.2074335746512695, 0.2080707071682911, 0.2087032817976832, 0.20938268617634404, 0.21012615379066685, 0.21085957464874006, 0.21157873215875417, 0.21232895161691684, 0.21312191016648732, 0.21393010608416924, 0.21480677941615509, 0.21558698473314064, 0.2164497305321982, 0.21735108361872985, 0.21820349094331368, 0.2191141481820755, 0.22003802455963387, 0.22094341767608688, 0.2219028671891014, 0.222833615591887, 0.2237378205859492, 0.22467944502488035, 0.22560127338716462, 0.22660205251804116, 0.22750926892254636, 0.2284442609381788, 0.2293949895848527, 0.23035332821690271, 0.23127710354509734, 0.2321844918431998, 0.23311687182490637, 0.23405717590944114, 0.23499586833742678, 0.23587864532632852, 0.23673109587464308, 0.23762950004359196, 0.23854205045947277, 0.23934338547912892, 0.24021013924780893, 0.24102468747811, 0.24189338384556133, 0.2426417924622246, 0.24339762510962473, 0.24418148601537845, 0.2449436530246013, 0.24562106533225994, 0.24633698922716857, 0.24701652838938204, 0.2475908907913117, 0.24826643737111165, 0.24881407865819447, 0.2493993987122614, 0.24997216630407587, 0.2504858255584355, 0.25092221083223587, 0.25140051749031406, 0.2518110738175223, 0.2522641816293541, 0.25257354141450955, 0.2529163032545143, 0.2532153405066019, 0.2535084542609536, 0.2537215766962263, 0.2539251420151352, 0.2540875552618929, 0.25425594223161313, 0.25428463780703303, 0.25433417289330773, 0.25434541078027995, 0.2543660047850326, 0.254259117282597, 0.2542014202613764, 0.25401006134345017, 0.25387051904967506, 0.2536708934866933, 0.25341583501484194, 0.25307320468694683, 0.2527910789686841, 0.25239921760687356, 0.25197540804999935, 0.2515101354282785, 0.2510418479335775, 0.2504913628749864, 0.24988786171815563, 0.24928051568537032, 0.24866031644465258, 0.24793819379421653, 0.2471453857570909, 0.24635730155662625, 0.24551815804914387, 0.24464215472769232, 0.243785698549132, 0.2427816146815135, 0.24178130405719545, 0.2407270726238013, 0.23970966095969845, 0.23853268524617227, 0.23735713312751386, 0.2361852063319663, 0.2349841932524362, 0.2336441735882251, 0.23238334846703934, 0.23096402035386615, 0.2295704633216227, 0.22816880935669626, 0.2266398974086178, 0.22514523790103735, 0.22360206806315508, 0.22195937365391388, 0.22038844116444972, 0.2187076475410098, 0.21700707629495225, 0.21526652290173806, 0.21344595958495258, 0.2117132808377519, 0.2098429622405064, 0.2079918505700968, 0.20611106322693293, 0.2041768926780895, 0.20220232676402944, 0.20016904081055872, 0.1981657781692186, 0.1961053613051103, 0.1940896016840477, 0.19192477649131992, 0.18979157944684494, 0.18767597069491393, 0.1854726276504354, 0.18319812182770723, 0.18102121628038445, 0.17869567432468564, 0.17648270472137884, 0.17412819405159854, 0.17179727161291866, 0.1694645943526141, 0.16714795653437906, 0.1647663639592576, 0.16238857254622752, 0.15993468971471655, 0.15749890061029992, 0.15511528912028436, 0.15263758037280528, 0.15020721930360534, 0.1477293368322145, 0.14525527500887084, 0.14270994276118396, 0.1402346180248885, 0.13770957386952096, 0.1351945866661202, 0.13266160921972203, 0.1301546562424737, 0.12764338788000187, 0.12509602059390948, 0.122623949224015, 0.12005577047039098, 0.11753758791224886, 0.11503052309858601, 0.11252218219379173, 0.1100367466728874, 0.107512196991579, 0.10498936843972204, 0.10250345351447707, 0.10005597942205452, 0.097596361986235, 0.09508447933031496, 0.09263347749089808, 0.09021993564075163, 0.08781149163637436, 0.08538259896785845, 0.08299396050010308, 0.08062673814753853, 0.07826979825159122, 0.07594051603316829, 0.0736248965933404, 0.07139925272067084, 0.06908337457129693, 0.06684334865479091, 0.0646773550638297, 0.062448962446616636, 0.0602791243839036, 0.05819042450462151, 0.056094872442244606, 0.05401904343170834, 0.051959858150108784, 0.04993837083461586, 0.04797186508299011, 0.04602528122677772, 0.044101703500865126, 0.042230183426012084, 0.04044003598733038, 0.03859720325153874, 0.03688137815839145, 0.03513103788938153, 0.03344812699010645, 0.03181834747882331, 0.03027563021324282, 0.02867947477252083, 0.02719307771234555, 0.025778194833787058, 0.02431965795032149, 0.023013602775413818, 0.02169923449838004, 0.020434419988581618, 0.019195053521412153, 0.01800938756449284, 0.016906630057657024, 0.015865286755415264, 0.014790665480763238, 0.013844577353068375, 0.012939092638426459, 0.012109044596391614, 0.01128928492493891, 0.010546393348549609, 0.00988602778612342, 0.00923515202774081, 0.008679932027694327, 0.008175211603862278, 0.007773326730014024, 0.007329999691991651, 0.007032955084277652, 0.006734376124638411, 0.0065294246698492635, 0.006434934383175341, 0.006313058028543235, 0.006287789536194346, 0.006356865691322704, 0.0064373873054200306, 0.0065862039939953475, 0.006863035087931926, 0.007109962799394156, 0.007463972752570454, 0.007903252151376623, 0.008392115233268318, 0.00895763865744468, 0.009620748510529251, 0.010288018682258782, 0.01108436300108376, 0.011877507590048254, 0.01279613598253747, 0.013786983817047916, 0.014807883696113496, 0.015878677595676436, 0.017051407862697127, 0.018337883660899935, 0.01959750596740641, 0.020993814947829436, 0.022388643097653812, 0.023941694474681457, 0.0254800487936605, 0.027131745345417638, 0.028844067760104255, 0.030681961991861913, 0.032524046185180525, 0.034398428679439236, 0.03639297743062279, 0.038454847235128146, 0.040598243753211805, 0.04284652162490783, 0.04508769448590946, 0.04741043371230056, 0.049817170434460274, 0.05226004196370157, 0.05484441264417173, 0.05741262090358762, 0.06008634418466743, 0.06284175410777591, 0.06566752116649541, 0.06850231455536453, 0.07146780196058142, 0.0744337772326009, 0.07751423035261717, 0.08067703328471586, 0.08382577943982658, 0.08711166599208019, 0.0904732554479713, 0.09383048175067778, 0.09731310669191252, 0.10079493191080778, 0.10444099285517412, 0.10809204463302115, 0.11177369088992692, 0.11552048637542689, 0.11939082507078863, 0.12329611501012994, 0.12724337416754664, 0.13119898049631487, 0.13526519360718461, 0.13940985105065049, 0.14362023614614383, 0.1478170372784614, 0.15211789230091236, 0.1564991001340969, 0.16087699261358676, 0.165373117300214, 0.16990150635905532, 0.17442331421343785, 0.179099159115617, 0.18374845204748427, 0.18847488851705488, 0.19324734458951112, 0.19812204852492954, 0.2030028472493524, 0.2079089548511059, 0.2128905531357778, 0.21792036082570104, 0.22293983113073423, 0.2280487605531414, 0.23320553421716678, 0.23841512512826618, 0.24368243619847005, 0.24894581642070962, 0.25433579808314577, 0.2596466727299535, 0.2650849476826325, 0.2705473463431596, 0.2760189681331986, 0.2815447831836727, 0.2870692818444095, 0.29271952303831, 0.29836357065455865, 0.3040076930613485, 0.30973248194278613, 0.315411550154281, 0.3212031475199882, 0.32701529048089095, 0.3328033176999143, 0.3386465791953418, 0.34453941331948623, 0.3504770875572747, 0.35634951478933213, 0.36231510262339783, 0.36828591355962453, 0.37427938827045204, 0.3803466519701907, 0.3863702905020255, 0.3924111323488817, 0.39851931334035673, 0.40459496011449975, 0.41070030926050816, 0.4168800870032462, 0.42304125439130336, 0.42914743665414407, 0.4353237697432823, 0.44155140962983536, 0.4477047038141951, 0.45389641990729185, 0.4601445565834445, 0.46630967288795, 0.4725321226061829, 0.47879028216821373, 0.48499247628378994, 0.4912616239501513, 0.49752105505062905, 0.5037547805230586, 0.5099631839406857, 0.5161783091025196, 0.5224258459689807, 0.5287151303307948, 0.5349477165146831, 0.54116196120271, 0.5473347140977304, 0.5535813187601409, 0.5597574269230657, 0.5659488634141664, 0.5721652510772697, 0.5783002894028098, 0.5844730862949175, 0.5906114845290722, 0.596754293406485, 0.6028349603717147, 0.6088944486012194, 0.6150180457480905, 0.621023730934288, 0.6271068093815367, 0.6330839003204086, 0.6390840007046357, 0.6450655374738801, 0.6510145305138043, 0.656938632497048, 0.6628233917262616, 0.668675278529701, 0.6744829243232371, 0.6803202834689507, 0.6860645739038668, 0.6917868715444143, 0.6975003120494551, 0.7032148613595709, 0.70883331863426, 0.7144034485945956, 0.7199618764366034, 0.7254610745162727, 0.7309335972771004, 0.7364359273800839, 0.7417638456978949, 0.7471307003991835, 0.7525054533702779, 0.7577609634653693, 0.7629272310013265, 0.7681152348205527, 0.7733001518175917, 0.7783751357893852, 0.7833668338461719, 0.7883618952027726, 0.7932922194056852, 0.7981833209835103, 0.8029863299395903, 0.8077486889408113, 0.81244525528971, 0.8170609227163571, 0.8216957086341471, 0.826257966159161, 0.8306879304541239, 0.8351134889208576, 0.8394710693646523, 0.8437765194498208, 0.8480072699370116, 0.8522249237290012, 0.8562650475627107, 0.8603224601458868, 0.8643326126500994, 0.8681993568183399, 0.8720693122518672, 0.8758366953933717, 0.8795074157614323, 0.8831520970268287, 0.8866900500321682, 0.8902044280938516, 0.8935902444101875, 0.896916757527409, 0.9002285920633165, 0.9033702785560955, 0.9064933288749717, 0.9095201444532738, 0.9124883107165097, 0.9153609151764788, 0.9182179717146511, 0.9209240303773781, 0.9235749571172609, 0.9261133816568684, 0.9286245861704593, 0.931050407286098, 0.9333934252278268, 0.9356049247145362, 0.9377353482679595, 0.9398081648702225, 0.9418321979950944, 0.9437273476331988, 0.9455519430152102, 0.9472928874106755, 0.9489276994499322, 0.9504509904393117, 0.9519261408362788, 0.9533707198439165, 0.9546777700184529, 0.9558355044017227, 0.9570168452058728, 0.95799777280061, 0.9589999118856386, 0.9598707022494483, 0.9606249323995101, 0.9613189855808312, 0.961851134818986, 0.9624148227018556, 0.9628117745256274, 0.9631020835832537, 0.9633081291132788, 0.9634979423434751, 0.9634831887821799, 0.9634945603080799, 0.9633501128549221, 0.9630906549198777, 0.9627922212481141, 0.9623620986005079, 0.9618870443095932, 0.9612837842606307, 0.9605689207767641, 0.9597994198086404, 0.9589448704465355, 0.958010729111527, 0.9569703935364589, 0.9558406210093353, 0.9546104386474302, 0.9532484939602844, 0.951907616398182, 0.9503410156183275, 0.9487855017718777, 0.947083912152183, 0.9453543594508744, 0.943494410051328, 0.941497930132879, 0.9395003634681435