0.024784499704431816, 0.024509992666219588, 0.024352320327562637, 0.024256283218933413, 0.024126531518067075, 0.02412140726628859, 0.02413951208070025, 0.024102233226543375, 0.024155171300686423, 0.02423480961221799, 0.024336189830621868, 0.024396306328257133, 0.02450125978892696, 0.024689685635367775, 0.024714162711819077, 0.02490766744974332, 0.025041024691671628, 0.025207106939986894, 0.025363125178611362, 0.02552644373060464, 0.02568722214627622, 0.025821378880290836, 0.026012570532243283, 0.026194138364604685, 0.026368951778768315, 0.026614944925879704, 0.026874656892405174, 0.027020068031240033, 0.02726255705392318, 0.02750853978926071, 0.027843568428254705, 0.028035202479159232, 0.0283201893962868, 0.02862821368805842, 0.028987818762819105, 0.029298252194467682, 0.02961939945686235, 0.030010198409389663, 0.03035548364999764, 0.03073534639071471, 0.03118837494561962, 0.03162375508373662, 0.03209719800702692, 0.03255787779754555, 0.033028030458767496, 0.03358837630810856, 0.03413248596450453, 0.03463257732010601, 0.03526294583771709, 0.03586502824427171, 0.03648746059109291, 0.03720220410908811, 0.03784867825731915, 0.03857071059707593, 0.03931076011400483, 0.040068428452661224, 0.04084093404617047, 0.041636727666404125, 0.04246608524305322, 0.04331324507111253, 0.04428972612243749, 0.04517215029074803, 0.046122305338444844, 0.04709510436481779, 0.04812403385957904, 0.04908073096877505, 0.05015676676258693, 0.05124313348497741, 0.05244218015152307, 0.0535289828296494, 0.05470237859724397, 0.05595885068080333, 0.05719905100305632, 0.05845335810466723, 0.05981704419563925, 0.061068962085718576, 0.06252589657321314, 0.06386063688174534, 0.06532869122394688, 0.06675000766747534, 0.06833274478441044, 0.06980909928507102, 0.07144580166663077, 0.07304635260546123, 0.07462250145306136, 0.07634723982412032, 0.07807445709595126, 0.07985045893939312, 0.08161190973081024, 0.08342463895379319, 0.0853084713463999, 0.08721862217997067, 0.08915747620018655, 0.09116586378176321, 0.0932076692662369, 0.09527715788393125, 0.09733797859947435, 0.09944619136149013, 0.101638767309747, 0.10388107639409977, 0.10615120110964082, 0.10843047208479077, 0.11085292572401685, 0.11316261160406497, 0.11561223052172923, 0.11810072726365073, 0.12063380181267234, 0.12317736234485757, 0.12576545408392828, 0.12841544002897284, 0.13113688411301808, 0.13386514523571966, 0.13660298655177372, 0.13947096819792618, 0.14230500741169946, 0.14521960101162013, 0.14819127436125118, 0.15114273869461659, 0.15425153000452482, 0.15731179633448897, 0.1604450037355264, 0.16361761496189148, 0.16686604123829515, 0.17012582849047767, 0.17347808781414067, 0.1767702312276464, 0.18015103519158737, 0.18367491197836724, 0.18709600235897908, 0.1907225763853028, 0.1942154352118885, 0.1978593641027646, 0.2015659003467155, 0.20523923745151812, 0.2090019718511968, 0.21281087318623876, 0.2166342450851394, 0.22052938448658765, 0.22445030460264756, 0.2284237485913129, 0.23242107156985573, 0.23650469083707826, 0.2405653798170166, 0.24474500740488025, 0.24890264755572594, 0.25310568518668725, 0.2573492205529696, 0.2616781252206765, 0.2659774012152519, 0.27037608752840514, 0.2748067103073442, 0.2791946462449469, 0.2836620859438027, 0.2882176168457428, 0.2927684404885369, 0.29740738436278147, 0.30202086837165437, 0.3066311576127054, 0.3113804605687521, 0.31610992874009647, 0.32083653256648703, 0.3255865516110824, 0.33045173791777815, 0.33531064759701124, 0.34019987284547804, 0.3450920102963209, 0.3499820717564663, 0.35500304007499434, 0.35992020434881933, 0.3649968794721299, 0.36998020126325537, 0.37505060880122965, 0.3801770194290767, 0.38523288057708643, 0.39034234137990775, 0.3954997379864272, 0.40069663558534, 0.40582729196478085, 0.4110279436888534, 0.41623452518528065, 0.42149668500839327, 0.4267155293764837, 0.431951330773841, 0.43721094807544597, 0.44250585973660916, 0.4477213016561673, 0.45306713492235134, 0.45837246568133616, 0.4636643829365003, 0.46892123395419333, 0.47428618678519563, 0.47954637359274027, 0.48489366688575086, 0.4902570132994926, 0.49552377228950345, 0.5008228669134804, 0.5061994820566222, 0.5115153912664134, 0.516802491485873, 0.5220954701076385, 0.5273732582845955, 0.5326131806031769, 0.5378886892519477, 0.5431408304716733, 0.5484133756734944, 0.5535943740033067, 0.5588730477493575, 0.5640531803689021, 0.5691997811098672, 0.574424606101347, 0.5795742988275646, 0.5846167692168316, 0.5897408028196578, 0.5947548926145703, 0.5998605075506259, 0.6048494814770375, 0.6098368170059286, 0.6148280148267734, 0.6196846367267057, 0.6246241604974979, 0.6294338144887359, 0.6343181970537101, 0.6390391688147022, 0.6438326566454748, 0.6484911755415147, 0.6532282267534861, 0.6577732548766965, 0.6624146211993148, 0.6669450822644682, 0.6714488066385994, 0.675874000641066, 0.6802306838532536, 0.6846222438446168, 0.6888643554107771, 0.6931183878983289, 0.6973506076272349, 0.7014477495644424, 0.7055421070014684, 0.7095172075146535, 0.7135310316973884, 0.7173941347027862, 0.721225961224975, 0.7250436082114772, 0.7287233184332088, 0.7324155824206333, 0.7359653546441126, 0.7394398573814118, 0.742905981705357, 0.7462573855089717, 0.7496321685188473, 0.7528142114341869, 0.7560169013883772, 0.7590669677853841, 0.7621312851087965, 0.7650700777918731, 0.7678906891562257, 0.7707048605362948, 0.7733895437315973, 0.7759871579747866, 0.778524932465326, 0.7809814619152085, 0.7833375359706916, 0.7856689670742132, 0.7878748249546812, 0.7899730079475005, 0.7920870761334242, 0.7939756375741088, 0.7958593951713264, 0.797587587724812, 0.7993385034736555, 0.8009280573604676, 0.8024162859698217, 0.8038284917659453, 0.8051761806756599, 0.8063392220999815, 0.8075531312907982, 0.8085421141320159, 0.8094993955262043, 0.8104046006147068, 0.8111081118802178, 0.8118092097576384, 0.8123741795559182, 0.812874950267015, 0.8132076327735352, 0.8134758393789667, 0.8136645529339547, 0.8137404666286807, 0.8138135859529568, 0.8136299605277324, 0.8134840336782112, 0.8131715015309419, 0.8127489579632281, 0.8122220842454503, 0.8117225799851866, 0.8109475565590658, 0.8101934096392052, 0.8093037754599759, 0.8083239600301393, 0.807191772844174, 0.8060675842098594, 0.8047800619544531, 0.8033856809936888, 0.8019526799332144, 0.8003281111192609, 0.7987167326651877, 0.7969633349474362, 0.7951062146892806, 0.7931080787636754, 0.7910789928049515, 0.7889591944310218, 0.7867971211352588, 0.7844322005016328, 0.7820569069958707, 0.7795617996441566, 0.7769191402755721, 0.7742690449795333, 0.7714469778684601, 0.7686428308056935, 0.7656811009290067, 0.7626392617415777, 0.7595234031459951, 0.7563536531260233, 0.753028688142422, 0.7497036934404425, 0.746258217596736, 0.7427410567824481, 0.7391434189640925, 0.7354168279012687, 0.7316352093346516, 0.7277730749274972, 0.7239117150440787, 0.7199311421637027, 0.7158357754480683, 0.7117375577252759, 0.7075150706681519, 0.7032726959178595, 0.6988731496479098, 0.694496668299074, 0.6899836711165748, 0.6855153302291976, 0.6808577308679847, 0.6762039231339605, 0.6715013854699161, 0.6667603325685295, 0.6618899042644947, 0.6569904724582245, 0.6521226020266814, 0.6471202946657709, 0.6420140784143966, 0.6369986916757111, 0.6317754721289298, 0.626621583474837, 0.6214014464846371, 0.6161997453163532, 0.6108431923885085, 0.6055202935795968, 0.6000856982759762, 0.59474351628186, 0.5892618099670136, 0.5838059155163594, 0.5782474926292637, 0.5727491817115942, 0.5671713120937231, 0.5615896541068804, 0.5560128475593457, 0.5503433334019583, 0.5447317129992427, 0.5390490974483827, 0.5333903130619448, 0.5276935121244284, 0.5219420793617231, 0.5162581546319126, 0.5105447852959197, 0.5047806721983753, 0.4991186972970657, 0.49334923084487214, 0.4876306876548807, 0.4819258679352802, 0.4761172796155812, 0.47042352950964117, 0.4646765562459847, 0.4589570939401925, 0.4532901315405121, 0.4475956560128265, 0.441970957354787, 0.4362709828161814, 0.43067183043445323, 0.42503495473076286, 0.4194157250047761, 0.41385280159766563, 0.4082403346354655, 0.4027094782220133, 0.39722246423269775, 0.3917529034484388, 0.3863355692201969, 0.3809336783888035, 0.3755552689686279, 0.37027845416883653, 0.36495017215429415, 0.35970188544733533, 0.35447445511920955, 0.34927698000576485, 0.3441301613753339, 0.33908847890312677, 0.33407363496970416, 0.32902751895929233, 0.32408760950826376, 0.3192314368314187, 0.31435325608434167, 0.3096100264879896, 0.30493853931505943, 0.3002622058447041, 0.29560780611581744, 0.291123913164418, 0.2866150857972862, 0.2821717352110591, 0.27776933023064404, 0.2734780889102479, 0.26930709431881594, 0.2651041965757212, 0.2609956858109477, 0.25699009788087884, 0.25304451153657714, 0.24910502042497648, 0.2452885130840144, 0.2415461611765416, 0.23788188942505986, 0.2343093895068474, 0.23080858240214694, 0.2272868690081499, 0.22394703854388343, 0.22063759081216652, 0.21743889404005737, 0.21428329867784157, 0.21126598158235899, 0.20828234275810512, 0.20532149447224277, 0.20252079798261918, 0.19981142802777477, 0.1971473203309723, 0.19454125146011314, 0.19208010741116674, 0.1896255071521248, 0.18733582655366282, 0.18510199691253884, 0.18288541257465493, 0.1808870439876154, 0.17889684986236845, 0.17691401094417378, 0.17515176942129387, 0.17335670314330706, 0.17169884333500318, 0.17009566749608393, 0.16864552000206656, 0.16720536888233972, 0.16592089835812387, 0.16464196601124884, 0.1634980731725847, 0.16241183764083894, 0.16144817540429113, 0.1605523095279936, 0.15961986054681662, 0.15891310717112714, 0.1582510819105174, 0.15762719344048468, 0.15710476708115576, 0.15665253302903534, 0.15634206315733007, 0.15603332380177604, 0.15579397504803616, 0.15571818832215534, 0.1556866991407584, 0.15563319993544975, 0.15572981585811244, 0.15592200467791315, 0.15618924987804897, 0.15645083087436212, 0.15685410331983182, 0.1573214882074571, 0.15780109708935136, 0.15838024715655974, 0.15902457895516756, 0.15968715429676522, 0.16049871130621818, 0.16134810554633774, 0.16224179442244868, 0.16321130100004028, 0.1642219845480543, 0.1652875809487535, 0.1664069869479679, 0.1676738289355416, 0.16882903635250746, 0.1701377177642991, 0.17145431929390628, 0.17290855833747953, 0.17429929855012943, 0.1758024274212789, 0.17731711174163473, 0.17894054882906651, 0.18053845131152194, 0.18217336187885846, 0.18391618417189293, 0.18561062572727496, 0.18743408397566763, 0.18920309253553452, 0.1910487273747857, 0.1929356564349627, 0.19484436609225908, 0.19680601446097862, 0.19871334641022115, 0.20068334843330132, 0.20272998373818105, 0.2047949919257649, 0.2067858050464076, 0.2089653043060798, 0.21102667200528774, 0.2131279982734802, 0.2152325250777782, 0.21735779192734273, 0.21952730687773922, 0.2216856667008937, 0.22376655113452054, 0.22600585109704532, 0.22814372843176706, 0.23031601383065237, 0.23254128026911858, 0.23468034797100817, 0.23690943632044312, 0.23902181854949492, 0.24121651210714734, 0.24332013911098022, 0.24549467918650558, 0.24763817966100685, 0.24981843461377215, 0.25184707959288855, 0.25397004690756597, 0.2560382864300401, 0.2581509216528671, 0.2601875578030768, 0.2622340170787053, 0.2641933643265, 0.2661337617716022, 0.2680885994610963, 0.2700577908383197, 0.27197217952115915, 0.27380304590727533, 0.2756549358282487, 0.27741257003703185, 0.27924269754950093, 0.280989172767508, 0.28262890274782854, 0.28431967588994744, 0.28588596040535924, 0.28750243412788357, 0.2890703983905453, 0.2905426104671937, 0.29205514413379297, 0.29341212660057553, 0.29480287940679173, 0.2961517961291688, 0.29735655608903877, 0.29862277616264576, 0.29978903145559005, 0.30094160913640716, 0.30196308322891013, 0.3030123785152591, 0.30397506090495074, 0.3048545287942614, 0.3057451587670189, 0.30651820635191146, 0.307319321541069, 0.3079986965241571, 0.3085760431077441, 0.30914881740737427, 0.30968410594493045, 0.31018402864690975, 0.3105273656234355, 0.31087168130757864, 0.3111175592955969, 0.3113366358345049, 0.31153978379868674, 0.31161718003931177, 0.3116333484784814, 0.3115887646273114, 0.31145588539922836, 0.3113345925077064, 0.3110866509148004, 0.31076499944452124, 0.31043367693963947, 0.31004540388262986, 0.3095162894308101, 0.3090146836424427, 0.3084011430955103, 0.3077147708038317, 0.3069221953871742, 0.3061625040708012, 0.30530089426769313, 0.3044064113249562, 0.3034041590558476, 0.30227468647342565, 0.3012361285515393, 0.2999884982757173, 0.2988070896762194, 0.2975216778132159, 0.2960733103212536, 0.2946514701799921, 0.2931899455504281, 0.2916910107357214, 0.29008172857584386, 0.28836988713849043, 0.28669901062477454, 0.2848957463442263, 0.2830480781478926, 0.2812022910841281, 0.27925746986625444, 0.2772618196673639, 0.2752080025277356, 0.27306749132462405, 0.2709481358032192, 0.2686838131246043, 0.266480625537452, 0.26411319021872914, 0.2617685657841531, 0.25940833629031507, 0.2569469494384639, 0.25446417725079035, 0.25195420751769726, 0.24935161540871448, 0.2467464238372304, 0.2440179393667769, 0.24138725063402364, 0.23863799013701179, 0.23579754827282884, 0.2330379109387114, 0.2302001983843821, 0.22725067815485647, 0.22434061428740754, 0.22140939827236575, 0.21847381723916615, 0.2154922603389928, 0.21243305629404938, 0.2093675983772299, 0.20628613077056862, 0.203170857838021, 0.19999775249953045, 0.1968694904821627, 0.1937158821153519, 0.19052510783481943, 0.18727464247343037, 0.18410397426900582, 0.1808888728956088, 0.17767536200423137, 0.1743811925807595, 0.17114191088435762, 0.16785682008612648, 0.16453428362294523, 0.16126858055227813, 0.15796338286269843, 0.15473351301088992, 0.15140905782214553, 0.14809381933264476, 0.14482606581089208, 0.14152455918055293, 0.13828436572716962, 0.13503661304300096, 0.13170677231844835, 0.1285098110285496, 0.12520141067591925, 0.12200503633806328, 0.11878653010873998, 0.11560895913441635, 0.11241245493997791, 0.10923411699004111, 0.10608062629382206, 0.10298469101692863, 0.09985348178175235, 0.09683081066460503, 0.09376449824290037, 0.09068579059300975, 0.08774243799843257, 0.08477501166497355, 0.08178352551588201, 0.07894266981882153, 0.07603560768170778, 0.07321920977673747, 0.07042376249060782, 0.06764079879074404, 0.06498648894560563, 0.0623080079150597, 0.059609488155822954, 0.05704649764466875, 0.0545057895696498, 0.052013677223166174, 0.04950548420223938, 0.04709471720711302, 0.04478215100143343, 0.04244192623308525, 0.04020852546349333, 0.037972253527383086, 0.03576118509612845, 0.033713990851834956, 0.0316547586955882, 0.029657411306534025, 0.027739597462003936, 0.02590809589927896, 0.024004584837398864, 0.022306335457802633, 0.020600629070200403, 0.018980693559730203, 0.01738383526821015, 0.015854531443897663, 0.01445139583752873, 0.013052670303399825, 0.01170408382831071, 0.010482509634992133, 0.009345009246357778, 0.008176029648938746, 0.007110004553111649, 0.006152329284474297, 0.0052653146379212125, 0.004415369336512874, 0.0037040128119218145, 0.0029496733717556045, 0.0023704862542770324, 0.0018177426804540258, 0.0013663741661864373, 0.0009317326984880303, 0.0005571094211393286, 0.0003518308781062202, 0.0001784156807693277, 2.9805568720676896e-05, 0.0, 6.416491972508996e-05, 0.00017312198908045243, 0.0004309696376995877, 0.0006271834924721815, 0.0009737772208986642, 0.0014631407074953884, 0.0019661595611299653, 0.0025067343649060507, 0.003157135903449398, 0.003911885734189227, 0.004708126260798392, 0.005559017340207715, 0.006610946584175898, 0.007620115864065215, 0.008696581088337468, 0.009909755313921489, 0.011199061754352214, 0.012512630865206095, 0.01393137118658852, 0.01544127612802779, 0.017028817089217867, 0.018672684761175912, 0.020414649784333695, 0.022218977239639184, 0.02407983046095155, 0.026009469286461216, 0.02803900513048679, 0.030181823425838496, 0.03233324787372306, 0.03458204438454517, 0.03687600151362833, 0.03930872500961413, 0.04177210781431013, 0.04429811867965901, 0.046859557345568015, 0.04960748681737049, 0.05234625558431617, 0.0550924263698687, 0.05804067009378565, 0.06096646858396536, 0.06395439425506183, 0.06710954055451313, 0.07022960502391305, 0.07344536940145949, 0.07679245796168438, 0.08013320541604153, 0.08353637733139785, 0.08700132985989899, 0.0905931072246934, 0.09419296775604244, 0.09781680213538382, 0.10155011557951839, 0.10536316940813202, 0.10915900790067233, 0.11305015315401339, 0.11702910210916703, 0.12108706463632671, 0.1251672047494138, 0.12929560436461834, 0.13350384233774876, 0.1377119379077037, 0.14202173431230702, 0.1463536436207235, 0.15076150977549016, 0.15523976589432184, 0.15968609306547557, 0.16421170328327303, 0.16886246029496313, 0.17351289474634973, 0.178144524545706, 0.1829337571171803, 0.1876668656081463, 0.19252524399000132, 0.19735195951008364, 0.20226853854431717, 0.20728889845040202, 0.21226269032816777, 0.21724416926822737, 0.22233440270444993, 0.22740911086614257, 0.23254862573731971, 0.23775175005167123, 0.2429535360976199, 0.24822108287640235, 0.2534798230122142, 0.258775146011498, 0.26417291748240085, 0.26950731841106723, 0.2749666755204568, 0.28037469983354185, 0.28586784807941545, 0.29132107678855157, 0.2968125097387682, 0.3023920649495798, 0.3079092130846076, 0.31351834812469476, 0.3191789847760378, 0.32475320274884206, 0.33046336068501464, 0.33609528656188015, 0.34186245998184733, 0.3475478644030293, 0.353274409056856, 0.3590150273756655, 0.36480476534452194, 0.3705790517899307, 0.3763674960432004, 0.38217908819723423, 0.3879801829622804, 0.39379185330922284, 0.39971744040689805, 0.40556112907830044, 0.41140257922298834, 0.4172599754126714, 0.42317420875952283, 0.4290571221135681, 0.43489156845496735, 0.44088552701044464, 0.4467226058040217, 0.45265367327061246, 0.4585467792952472, 0.46452655233887624, 0.47040215781806455, 0.476294846557041, 0.4822685685411853, 0.48812607190868884, 0.4940330709704223, 0.4999958958444142, 0.5058788169061311, 0.5118089189959784, 0.5177391043737072, 0.5235362500162323, 0.529456070187306, 0.5353226670194785, 0.5412303544437593, 0.5470844588789421, 0.5529291411599729, 0.5588727098332832, 0.5646188238854261, 0.570421980390248, 0.5763231528942847, 0.5821358484367298, 0.587875576959598, 0.5936313313668776, 0.5994068722485025, 0.6051873111970161, 0.6108938436393044, 0.616618100510143, 0.6222770832749766, 0.627971382933151, 0.6337065105518946, 0.6393082836519749, 0.6449261963938261, 0.650510112110178, 0.6561647291248168, 0.6617017132826665, 0.667236966494301, 0.6727051244889749, 0.6782137787619407, 0.6836830528925517, 0.6891503741142132, 0.6945507179717978, 0.6999922770500072, 0.7053714310105673, 0.71067053846334, 0.7159588730990312, 0.7212835808016433, 0.7264829925670496, 0.7316762112039326, 0.7368853814502992, 0.7420768541814163, 0.7472296413561885, 0.7523338599400531, 0.7573371863858741, 0.7624233258521197, 0.7673938012206315, 0.7723464026910875, 0.7772418128784816, 0.7821433006637063, 0.7869789968675835, 0.7918316689053094, 0.7965782219296449, 0.8012963222099962, 0.8059786593765007, 0.8106469687347808, 0.8153291928843117, 0.8198173467564432, 0.8243517977692981, 0.8288720166605725, 0.8333281578145447, 0.8376610544668577, 0.8420270715233432, 0.8463329080363238, 0.8506181190340308, 0.8548340520234057, 0.8590496952112928, 0.8630989079550695, 0.8671945274921058, 0.87124427179216, 0.8751820279754169, 0.8791690518688228, 0.8829629876104313, 0.8868370621844059, 0.8905733579723581, 0.8943447000492037, 0.8979325766929571, 0.9015569055721419, 0.9051892493884826, 0.9086549691251607, 0.9120876665887855, 0.9154926825740518, 0.9187446645019676, 0.9220734271035773, 0.9253275105633559, 0.9284744808138541, 0.9315738236913436, 0.9345294195393974, 0.9375535125140141, 0.9405042705024759, 0.943290454315162, 0.9461246473515489, 0.9487988727438912, 0.9515262964844508, 0.9540696159719407, 0.9566033293634155, 0.959052040362422, 0.9615114472489081, 0.9638142538304127, 0.9660763449273367, 0.9682750140006827, 0.970368939080392, 0.9724203869379495, 0.9744632628240517, 0.9763884754236921, 0.9782036223893961, 0.9799248230837487, 0.981666116977582, 0.9832836756461381, 0.9848562281929932, 0.9863736280031321, 0.9877643980314689, 0.9891298949948107, 0.9903791147752423, 0.99156275607911, 0.992626361765817, 0.9936342368429242, 0.9946027067158044, 0.9955108374189875, 0.9963383684977988, 0.9970605483725907, 0.9976423838035526, 0.9982510446538488, 0.9987263150640695, 0.9991610458153338, 0.9994512856419353, 0.9997433164099044, 0.9998821962132942, 0.9999254780718565, 1.0, 0.9999109804139853, 0.9996991428638788, 0.9995087657856271, 0.9991805220773605, 0.9987175638727064, 0.9982691606954199, 0.9977000437276735, 0.9970430580844616, 0.9963244875327764, 0.9954777832396098, 0.9945405676134844, 0.9935529180522438, 0.9924790792254932, 0.9913906257553343, 0.9901423764989633, 0.9887778285557847, 0.9874405933586904, 0.9858561471010374, 0.9843204136875745, 0.9826256611868054, 0.9808900436580114, 0.97910569275172, 0.9772103810619215, 0.9752115550706542, 0.9730780239234574, 0.9709805455473981, 0.9687446175949356, 0.96641549777816, 0.9639370496435948, 0.9615065862110651, 0.9589498594027797, 0.9562926394656653, 0.9535604916031806, 0.9507527563894793, 0.9478155184779448, 0.9448526661652943, 0.9417866900593812, 0.9386970810038118, 0.935493961383928, 0.9322060719929312, 0.9288328906060048, 0.9254128983012135, 0.9218689502492411, 0.9182700230903215, 0.9145641194697683, 0.9108372453933429, 0.906992512427352, 0.9031305101037433, 0.8991879810455243, 0.8951644346846268, 0.8910371149451574, 0.8867882480150548, 0.8825775691074313, 0.8782857529140715, 0.873883038107759, 0.8694616588525994, 0.8648885860078604, 0.8602985838035957, 0.8556577144783228, 0.8509638119782998, 0.8461665478803103, 0.8413666269676158, 0.8364183909227301, 0.8315498361175244, 0.8264399794791145, 0.8213732966383646, 0.8162766549366137, 0.8110842774506164, 0.8058884899454344, 0.8005531597975556, 0.7951937540231073, 0.789873388040141, 0.7843701952780248, 0.7789283852729761, 0.7734192365425454, 0.7678093311545046, 0.7621695250953877, 0.756470398205607, 0.7507783292768112, 0.7450691959802002, 0.7393049196380997, 0.733486951534593, 0.727611809877006, 0.7217061923696286, 0.7157971812270393, 0.7098773846857535, 0.7038478475649419, 0.6978733196405595, 0.6918492063889069, 0.6857767524582014, 0.6796743682455024, 0.6735161202861596, 0.6674801868954752, 0.6613022616356957, 0.655087679715106, 0.6489242003977337, 0.6427481679728096, 0.6365390341108369, 0.6302982577959035, 0.6240690672020478, 0.6179109611992553, 0.6115877248941727, 0.6053620461688279, 0.5991539220625056, 0.5928326084230303, 0.586593233035806, 0.580367687712971, 0.5741308713677233, 0.5678649881945416, 0.5616044729051862, 0.5553503419370662, 0.5492363518986604, 0.5429338547370067, 0.5367941774013401, 0.5305988275721322, 0.5244417804335265, 0.5182821932758822, 0.5122171163387844, 0.5060370696458419, 0.5000199674354504, 0.4939424459652168, 0.48788053527302033, 0.4819591573704578, 0.4759409400679964, 0.470004950251128, 0.4641054909728397, 0.45823922744077655, 0.45237234560742007, 0.4465737386239197, 0.4408085396631399, 0.43511456355416117, 0.42942658786132, 0.42376834553522374, 0.418230920014316, 0.41264559735953016, 0.40715285492181197, 0.40171463860133894, 0.39631062879283857, 0.391011701762954, 0.38563592605375285, 0.3804754803191195, 0.3752157582193892, 0.3701407914304401, 0.3650262784443221, 0.36005518229866584, 0.35508679703443335, 0.3502080326782484, 0.34538338283078257, 0.3406242720901254, 0.3359739809986015, 0.3312639241857158, 0.3267852627458088, 0.322287366640197, 0.31782107303414264, 0.3134713252838831, 0.30919804391311634, 0.3050717594134115, 0.30086968782927986, 0.2968346811288463, 0.29283502812431533, 0.2889042268571375, 0.2850913319747084, 0.28134173994998846, 0.2777344195472976, 0.27405212547344143, 0.2705409542457186, 0.2671164029436146, 0.2637525737400892, 0.2605410913814405, 0.25734582159719716, 0.2541779973436715, 0.25115454166004475, 0.24823799649113887, 0.2454101001967313, 0.24259337999030023, 0.2399080873204249, 0.23732360040021425, 0.23478355688067523, 0.23240687057320533, 0.2300279032960919, 0.22776623904760712, 0.22561474367748982, 0.22353025585107, 0.22146482262341027, 0.21962035331601337, 0.21777631713343498, 0.2159862790925036, 0.21434301299036415, 0.21281332394886474, 0.2113424480878011, 0.20991272865710883, 0.20860270487137034, 0.2073340111386488, 0.2062090292080632, 0.20521377286768774, 0.20418740868681445, 0.20330841948320874, 0.20245923791467427, 0.20176377985972704, 0.20113161973450067, 0.20059688833057676, 0.20015747670984566, 0.1997038386141408, 0.1994132929277616, 0.199126551595164, 0.19893511955528223, 0.19891363720154503, 0.19892213833915073, 0.19899029896184547, 0.19909321054736337, 0.19936576744035095, 0.1996548798011398, 0.19998656729484232, 0.2004137353228759, 0.2009286780275666, 0.20151744789648474, 0.20219738224698697, 0.20292005346479797, 0.20369422355735464, 0.20453548154398166, 0.20551809642281305, 0.2064376956602618, 0.20746698684597414, 0.2086190258369521, 0.2097223771181249, 0.21097900679476594, 0.21221491012751276, 0.21355718112659638, 0.21494734854211628, 0.21638510057919333, 0.21790886793673886, 0.21940893084061427, 0.22101617893246064, 0.2226577171756507, 0.22430530392942533, 0.22605646891020884, 0.22779142340608094, 0.22962080582838454, 0.2315394724827939, 0.23336607900263978, 0.23530142970014586, 0.2373014480788502, 0.23923618512255465, 0.24126447304442517, 0.24334239773477578, 0.24543911990939932, 0.2475059612598616, 0.24969305678654738, 0.25186223690265036, 0.25401563566264845, 0.2561880830254375, 0.25844398397497426, 0.26065937817108764, 0.26296827180171434, 0.265200665783502, 0.2674978183589811, 0.2697964395936929, 0.27211551636488296, 0.2743762355842906, 0.2767355648561504, 0.2790073954589008, 0.28138302575264884, 0.28366080680036976, 0.2860512013662496, 0.2883344584073571, 0.290621978317675, 0.29292326122538664, 0.2952409366762514, 0.2975509576146841, 0.299786177390403, 0.3020844225832386, 0.3043222464824865, 0.30654182187658396, 0.3088160816144236, 0.3109984763952608, 0.31319253472015024, 0.315298288456429, 0.3175007258537343, 0.3196102953265043, 0.32168130232470177, 0.32373182958338337, 0.3257323002608175, 0.3277920002224207, 0.3296938294719467, 0.33159869902644035, 0.33350157570458777, 0.3353767095322402, 0.33720046564375483, 0.33898823229017266, 0.34075624731112025, 0.3424171300780031, 0.3441052126946032, 0.34575322304551587, 0.34728591427072397, 0.34878402407827863, 0.3502583340939129, 0.3517027603797574, 0.3530512909256725, 0.35445905608560707, 0.355686778034903, 0.35690700238065404, 0.35801770892185003, 0.35919134895255805, 0.3602490502127661, 0.3612711589491856, 0.36214702840609386, 0.3630810811022838, 0.36389548077375505, 0.3646602041002383, 0.36534927461042427, 0.3660173104949349, 0.36660416188280215, 0.36711348992090587, 0.36758241863971974, 0.3680148405637434, 0.3683457583347999, 0.3686300560672267, 0.36881494432936485, 0.368947624632625, 0.3689562930267182, 0.36905548181027925, 0.3689199151581329, 0.36883303569918247, 0.36863084021641507, 0.36837751139092745, 0.36806598567210586, 0.367651620404595, 0.36721530552551873, 0.36664883903329554, 0.3660291615669187, 0.3653842747680118, 0.3646888233950677, 0.36390447307335066, 0.36303211666186613, 0.362094252982911, 0.3610818938652467, 0.3600051072347535, 0.3589215174063874, 0.3576169163924038, 0.3564425272661499, 0.3551074676996307, 0.3536955598946716, 0.3522309862530794, 0.35068082518884364, 0.3491596957282209, 0.3474263830451986, 0.3457819051596061, 0.3439320923947924, 0.34215833693610026, 0.34024450724659655, 0.33831971658262666, 0.3362394679353137, 0.3341620302959908, 0.33205571202905243, 0.32983928588151323, 0.3275972209759916, 0.3253277957513397, 0.3229258267142335, 0.3205006316908189, 0.3180444107630064, 0.315582774756149, 0.31299953707693473, 0.31031478197992796, 0.3076631089081871, 0.3050003923665366, 0.3021728553653998, 0.2993616705848645, 0.2965678105713604, 0.293663810166989, 0.29065600270151537, 0.2876950852896185, 0.2847238515012979, 0.28163651769642856, 0.27853087446890085, 0.27540591295687034, 0.2722280331670995, 0.2690457360919975, 0.2657557391305761, 0.26249131769951456, 0.25919978180698244, 0.25591323140542216, 0.25254283812616657, 0.24919015173711234, 0.2457790002485155, 0.24236751556138122, 0.238937318523278, 0.23539188377162734, 0.23194200281235278, 0.2284098049344851, 0.2248977378947077, 0.2214015229512008, 0.2177871824492504, 0.21424062570835833, 0.2107306068592813, 0.20711789311684586, 0.20353092215205185, 0.19994128108835132, 0.19630091208278982, 0.19273227988598107, 0.18917210723810038, 0.1855145210782812, 0.18194025152979182, 0.17829100873392545, 0.17469519811676779, 0.1711817937023188, 0.16753797263483258, 0.16394177926232356, 0.16043436532847768, 0.15685882995785305, 0.15332926475333544, 0.14975840001605328, 0.14629358000301224, 0.1427756834617695, 0.13932388233452, 0.13583891123546063, 0.1324314146560644, 0.1290019269548006, 0.12556185969229525, 0.12220343064838973, 0.11890203769901826, 0.11561941500130583, 0.11228230920107153, 0.10898864400417017, 0.10576505768687604, 0.10261623942217543, 0.09943507444952183, 0.09632084734021147, 0.09324081176426678, 0.09020120687676347, 0.08717748938218882, 0.08423117065585253, 0.08129133736196928, 0.07838695522757992, 0.0754696166958841, 0.07271342886984988, 0.0699824259754323, 0.06725166142525535, 0.06457934076412664, 0.061954419862876045, 0.05941683373038599, 0.056819513873290504, 0.054381722675684696, 0.051915677043657966, 0.04961313249658986, 0.047260184805763265, 0.0450048425708732, 0.04280074674183103, 0.040661540002474364, 0.03856565504246407, 0.03650368534991587, 0.034532925901222256, 0.03259427271161073, 0.03074013526981489, 0.028928298089838645, 0.02719884534549765, 0.02549021417471825, 0.02385674605421248, 0.0223142993288701, 0.020850423357509987, 0.01935383461336313, 0.018039644174142142, 0.016676763934239627, 0.015412834524907434, 0.014214072689075638, 0.013145885077493947, 0.012083396453005381, 0.011138989236956002, 0.010122905839549931, 0.009292386712466535, 0.008576518722788501, 0.007812738037387204, 0.007152584661154159, 0.00654331933016828, 0.005995929638537695, 0.005566230008220768, 0.005147473113014394, 0.004837044478701409, 0.004564956267438283, 0.004437969806550056, 0.004299303873967101, 0.0042049000281766105, 0.004236498975788016, 0.004279112677339834, 0.004417561083969372, 0.004686942470738721, 0.004896713329557763, 0.005292768056196669, 0.005673116253236332, 0.006140431884659079, 0.0066473809901264995, 0.0072548733543796136, 0.007979277986689527, 0.008653025253781288, 0.00950588201367316, 0.010300949331647324, 0.01126652404998731, 0.012221094986094931, 0.01325452674871209, 0.014422404468278208, 0.015523603238714878, 0.016799450153161487, 0.018129785337794788, 0.01947629535592612, 0.0208456147162383, 0.022371348930278322, 0.023887169679513865, 0.025470182625569444, 0.027113669406047283, 0.028788441700659237, 0.030589531811277385, 0.03244023038633156, 0.034316289279329525, 0.03627007869217421, 0.038251269429963194, 0.04025910210607714, 0.04239227671773378, 0.04445771402458773, 0.04669465114495158, 0.04896676617192671, 0.05127539701402766, 0.05366810558415554, 0.05604186651546144, 0.05846765128086139, 0.06095677473148461, 0.06354130271798085, 0.06614245042021534, 0.06873787068046232, 0.07141524760628822, 0.0741775671025905, 0.07694709610265217, 0.07975572681057994, 0.08259422422394312, 0.085507852079736, 0.08843169537975981, 0.09148329763598964, 0.09446712376891223, 0.09755293514718834, 0.10060137643499636, 0.10378546717964059, 0.10692059422940062, 0.11009582448743259, 0.11337002038260502, 0.11664818963529056, 0.11999035777032427, 0.12331607229731546, 0.12663992023683396, 0.13006871827934924, 0.13357806594936056, 0.13704430699820525, 0.14052226245943253, 0.14399571655415774, 0.14759699756091046, 0.1511152041460726, 0.1547940364181722, 0.15846025027775607, 0.16212383007791228, 0.16574870643274472, 0.16949321101181988, 0.17318146470391402, 0.17698705753745125, 0.1807347392129191, 0.18457751667868622, 0.1883535007487967, 0.1922009140392782, 0.19604843559060153, 0.19996951480712966, 0.20380869135556565, 0.20776275997049853, 0.21169049026757375, 0.21564961357427045, 0.21965549533618886, 0.22355460206748662, 0.2276104129040333, 0.23157822450333185, 0.23564585288829454, 0.23965528123896107, 0.24371950467172362, 0.24776701399224987, 0.25184732677975086, 0.2559880013686281, 0.26007534205391347, 0.2641224867125899, 0.2682724701858481, 0.27241241513736686, 0.27658549560527207, 0.28068247071977065, 0.2848444395594322, 0.28903835358912655, 0.29322611128138115, 0.29744237134538115, 0.3015595166437275, 0.3057795435418645, 0.3100201452308745, 0.3142485842335434, 0.3184681936499118, 0.32266341677133226, 0.3268558016166861, 0.3311611323278849, 0.3353405790062586, 0.3396128056905947, 0.3438334044854389, 0.34807705768534974, 0.35237563103064695, 0.35663365104867595, 0.3608948140383854, 0.36514550450288824, 0.36942180904680233, 0.37368210874390734, 0.37796457297605657, 0.38228062267607515, 0.38650140896767415, 0.39074903769506186, 0.39510856751148166, 0.3993457100010917, 0.403612931309539, 0.4078914588353343, 0.4121602129006656, 0.41650384614173025, 0.42079713983171796, 0.42499171366510463, 0.42931823390305857, 0.4335767265169711, 0.4378407511823213, 0.4421363571591, 0.4464138536645375, 0.45072933434438445, 0.45501510453304395, 0.4592616262460946, 0.4635355305189823, 0.46781534154430143, 0.4720240973712469, 0.47629024215250126, 0.4805869883979196, 0.4848829719958538, 0.4891231306689129, 0.49337797411357204, 0.4976367619985324, 0.5018270297212145, 0.5060654714784681, 0.5103397324755553, 0.5145447646433663, 0.5188483152556723, 0.5230159806681495, 0.5272857766041757, 0.5314375166532549, 0.5356769464359212, 0.539856779931468, 0.544117467797028, 0.5482670391910911, 0.552481684330559, 0.5566199498833945, 0.560821011823589, 0.5649558648335131, 0.5691488338662023, 0.5732684379821785, 0.5773831456980855, 0.5815726026671708, 0.5856629116138019, 0.5898045997334304, 0.5939091836967032, 0.5979897899108162, 0.6020378849158631, 0.6061581438911661, 0.6101998032947298, 0.6142319027600648, 0.6182675736461766, 0.6223036829752675, 0.6263379876884033, 0.6303466774256682, 0.6342960189780497, 0.6382498872345261, 0.6422164284358536, 0.646157477060931, 0.6500786316868036, 0.6540044867337855, 0.6579105389220066, 0.6617839759084405, 0.6656358397965849, 0.6694874221262166, 0.673266615699533, 0.6771365589497295, 0.6808601660612462, 0.6845772197250736, 0.6883949240355466, 0.6921346290464264, 0.6957922704356558, 0.6994874017889866, 0.7031121032636306, 0.706733852122149, 0.7103560938941421, 0.7138819490549013, 0.7174632740318585, 0.7210099201582821, 0.7244516713846445, 0.7279592190555491, 0.7313626127808812, 0.7347981991436953, 0.7381801222322634, 0.7415562232215132, 0.7448245305721862, 0.7481369818158505, 0.7513140128216321, 0.7545576862848131, 0.7577077480586409, 0.760905847649011, 0.7639820657460161, 0.7670423706959688, 0.7700678147673312, 0.773002270173568, 0.776016684930734, 0.7789143205996946, 0.7817600560097561, 0.7846122586473595, 0.7873170242061855, 0.790102325664244, 0.7927690353918242, 0.7954313627985312, 0.7980020861981252, 0.8005214803058195, 0.8030430278018417, 0.8055226399597358, 0.8078410125059122, 0.810182348204586, 0.8124642132910068, 0.8147265216717074, 0.8168821066301678, 0.8190626691922274, 0.8211400688702353, 0.8230779869003929, 0.8251020452905444, 0.8269838857908385, 0.8288330472625036, 0.8305389209049826, 0.8322815461142885, 0.8339635773318886, 0.8355135159042488, 0.837078951976439, 0.8385147610492962, 0.8398522505425219, 0.8412133932006016, 0.8424776365204223, 0.843671342642537, 0.8447573024452695, 0.8458212213158876, 0.8468604241942019, 0.8477302301553383, 0.8485327838714872, 0.8493312572771545, 0.8500311164720213, 0.8506461161296822, 0.8511940988453887, 0.8516578215002174, 0.8519844915719358, 0.8523073550907667, 0.8525727899759719, 0.8526929938890179, 0.8528221434930356, 0.8527875508467168, 0.8526683487912418, 0.8525751722805004, 0.8522782459022958, 0.8519829020092432, 0.8515635669286998, 0.8510654327767174, 0.8504527330863558, 0.8497702007240859, 0.849036596775723, 0.8481882771379481, 0.8473361425856303, 0.8463124625070644, 0.8452151093810638, 0.8440817963739073, 0.8427627112964293, 0.841467260040516, 0.8399580892349588, 0.8384618431561064, 0.836860152498983, 0.835148171922084, 0.8334193753796209, 0.8315111652779686, 0.8295310632666291, 0.8274635302193099, 0.8253334046258588, 0.8231232593629058, 0.8208121625235915, 0.8184213428036261, 0.8158919256094183, 0.813347056662691, 0.8106779973043157, 0.8078896681005183, 0.8050465471177478, 0.8021523563826156, 0.7991244690137074, 0.7960597348924452, 0.7928490942708436, 0.7895433170880617, 0.7861767815433285, 0.7827880074694041, 0.7792083525637542, 0.7756023857003405, 0.7719101065324749, 0.7681013523658687, 0.7643217720066287, 0.7603646707553822, 0.756310772905394, 0.7521680952581112, 0.7479720259679592, 0.7437798781549121, 0.7394216534868595, 0.7349800811571704, 0.73045183197758, 0.7258650448867869, 0.7212260544811521, 0.7165545037790588, 0.711779290210083, 0.7068581053014735, 0.7019217981705884, 0.6968988229944141, 0.6918650252972761, 0.6867265295205982, 0.6814875343764348, 0.6761617920362042, 0.6708851832250865, 0.6654729904048213, 0.6599470233197873, 0.6544356058837766, 0.6488389638832415, 0.6431666578703343, 0.637533514408072, 0.6317166510405089, 0.625936242191453, 0.6200372811648989, 0.614155895892441, 0.6081363243249102, 0.6021546140144848, 0.5960409679677793, 0.5899285138579132, 0.5837999154276765, 0.5775637443230726, 0.571360364726992, 0.5651013804312653, 0.5587885316756473, 0.5523952158766308, 0.54606757366579, 0.539596731135827, 0.5331704743332338, 0.5266452008458863, 0.5201262003587164, 0.5136761775569545, 0.507059844792025, 0.5005345798453767, 0.4938936241695106, 0.4872354854259293, 0.4806819482871848, 0.4739765757388265, 0.4673681276964132, 0.46068944446376614, 0.45394290349515876, 0.4472716340819768, 0.440579650651559, 0.433902482640474, 0.42723633998821925, 0.4204896377935896, 0.41382778768262174, 0.40712894206097294, 0.40043736571552874, 0.3936922429033297, 0.38703607921945543, 0.3803666660308182, 0.3737340550128538, 0.36708086044079924, 0.3605479535592022, 0.3539078428146057, 0.3472943933227644, 0.34080114830736674, 0.33420075634457735, 0.327782053026885, 0.3212198128760854, 0.31477309629030814, 0.3084185431098331, 0.30205186354932034, 0.29564717142335495, 0.28937035206503214, 0.28312131102781507, 0.27682730862015453, 0.27069157141793254, 0.26452446578113825, 0.25842947565792124, 0.25237272760710594, 0.24644075335100057, 0.24045887985714648, 0.2345389960563765, 0.2287127733990631, 0.2229803111855426, 0.2172406152516842, 0.21150996594722568, 0.2059287849575724, 0.20039892472488582, 0.19491063011757248, 0.1895490497640195, 0.1841746519076547, 0.17886910935341654, 0.17365071638459229, 0.16855330773194727, 0.16349102786823422, 0.1584825588225753, 0.15356316715052654, 0.1486825903504066, 0.14394489453420475, 0.13930895754263292, 0.13469007542477998, 0.1301025634471413, 0.12571753449991538, 0.12132071465345193, 0.11702879467508083, 0.11289788276452851, 0.10875332035801677, 0.10475715487242124, 0.10086199973500218, 0.09696628235357037, 0.09320865404660303, 0.08954942761235768, 0.08602599325573544, 0.0825530377456715, 0.0791226820770544, 0.07580481400495793, 0.07261606785198929, 0.06952464389640181, 0.06654096445045454, 0.06356942405404681, 0.06074598334926499, 0.05807233197015471, 0.05545353989952708, 0.0528602476011959, 0.05044406303386469, 0.048167099087505265, 0.04582945207833019, 0.04374399373235267, 0.04171012116425021, 0.03977713622538651, 0.03787712600705218, 0.03612060309544111, 0.03446862090236068, 0.03297241260239885, 0.03146816226052752, 0.03007188639891062, 0.0288083386081657, 0.027679143943077487, 0.02656188275094408, 0.025598978520432455, 0.02477314143082297, 0.023979766993119933, 0.02320062360886011, 0.022641861180125514, 0.022122848806445064, 0.021786214913714533, 0.021441899144068133, 0.02117517891113825, 0.021061237955135703, 0.021037591606050773, 0.02103281508315798, 0.021156440216695955, 0.02142644438037816, 0.02176370506305573, 0.022106879762994077, 0.022579222629014586, 0.023157836078362803, 0.023755920917789764, 0.024492624650633982, 0.02530190357362837, 0.026184896906285598, 0.02717569443596612, 0.02824119315715382, 0.029381421625882993, 0.030569487645057517, 0.03183089989089952, 0.03314653784716733, 0.03452843620766293, 0.036039692762797074, 0.03757856797086182, 0.039186649983184114, 0.04086510527911765, 0.04266057242006017, 0.044412788740316525, 0.04632758661317481, 0.04825118482708428, 0.050223663399534615, 0.05220879594397577, 0.05432392122048302, 0.05646627475433414, 0.05865359590920889, 0.060965046950119395, 0.06324937380060272, 0.06551232837167897, 0.06794920321800614, 0.07034461057772769, 0.07287007837671232, 0.07530816964738028, 0.07789645892798035, 0.08048242065133274, 0.08307189384237645, 0.08562717199421446, 0.08834724846232121, 0.09105570254664572, 0.0938209534740069, 0.09655501296668687, 0.09924798324167138, 0.10205755663670567, 0.10490199329450071, 0.10768524751972106, 0.11057746703024866, 0.11335345033931048, 0.11626534327243943, 0.11906826426251119, 0.12195245035138554, 0.1248873639964505, 0.12778068094737483, 0.13064280321791932, 0.13349002779888855, 0.13639760759512087, 0.13929635563148884, 0.14212795962096045, 0.14495287899107848, 0.1478392092347999, 0.1506495485886857, 0.15355108514626306, 0.1563344626536986, 0.1590998146307306, 0.1618491460243836, 0.16458713444888934, 0.16732433088174023, 0.1700655704754689, 0.17269292171818076, 0.1753545186909361, 0.17795407077412356, 0.18061499196256797, 0.1831366768392968, 0.18560084049672138, 0.18808708346077163, 0.19060336328714889, 0.19299219504674844, 0.1952872496179038, 0.1976686906279444, 0.19996993237972494, 0.2021774242179655, 0.20431711781847017, 0.20642417408940752, 0.20850357390179697, 0.21061574428483518, 0.21255731795184868, 0.21451679660321607, 0.21634399154888714, 0.21818714900161826, 0.21997060883486508, 0.22158394236584714, 0.22324661323663117, 0.22480530668975765, 0.22640909380008944, 0.22781586645632235, 0.2292191450912798, 0.23049601850377946, 0.23174218633609922, 0.23296842987508118, 0.23406135559465022, 0.23516155018937376, 0.23610351437277208, 0.23702467931495044, 0.23788652450172854, 0.23858678082560034, 0.23928892611859595, 0.2398876837180984, 0.24046788635166755, 0.24092718904288118, 0.24139717516757736, 0.2416427672143603, 0.2419220204630174, 0.24208849604538457, 0.2422091906303993, 0.2421794408036933, 0.24210665064747894, 0.24197572361665745, 0.24180250555374852, 0.24147764628883686, 0.24108352807467495, 0.2406703863749926, 0.24015947232259954, 0.23952336873642324, 0.23886818574111846, 0.23812960657211754, 0.2372882839750088, 0.2363026928837454, 0.2353366302112695, 0.23425021579072092, 0.23313809876999741, 0.2319173212025452, 0.23062913950657285, 0.2292840124133357, 0.22778433318905972, 0.22628578077638165, 0.2246712656387531, 0.22302784087701696, 0.22127714792815248, 0.21945193409461966, 0.21754060553702798, 0.2155810306925138, 0.21361137266380595, 0.21144819713854437, 0.20929003495976653, 0.20705232199367973