0.03755647942846037, 0.037377514679533735, 0.037259296436993626, 0.03713261837199124, 0.037011856416414995, 0.03695236265449268, 0.0368967523162131, 0.03681425231782208, 0.03678197407703594, 0.0367343479144555, 0.03671327331466448, 0.036658124116543206, 0.036596818864309426, 0.03660929910571786, 0.03657086172555783, 0.036572635965889964, 0.03655199995184247, 0.036569747157424455, 0.0365202810318477, 0.0364838463411778, 0.03652244720349937, 0.036474541624213375, 0.036528560916129646, 0.036510362943599, 0.03650625892982488, 0.036530860609293204, 0.03652384860027953, 0.0365124822189991, 0.03660259891200603, 0.036565056787061054, 0.03662560542877976, 0.03665752083250253, 0.03672349862756558, 0.03674232489634396, 0.03676262631935497, 0.036841346350790706, 0.03687773025715481, 0.03696115810354747, 0.0370111430419153, 0.037138709679446144, 0.03719050311720517, 0.03728528496219805, 0.03738670881429801, 0.037520215149480576, 0.03764665563358855, 0.03777013639211608, 0.037898183543841335, 0.03802820815812262, 0.03815230282345553, 0.038330141404403294, 0.03850577978124213, 0.0387011246997306, 0.038863746700396454, 0.03906125366052514, 0.03925902780111424, 0.039489132160558896, 0.03971345856202173, 0.03991715807873815, 0.040148123304000055, 0.040441489899883006, 0.04071450629639329, 0.04095179619655269, 0.0412178735235901, 0.041539886525818526, 0.041845650519796856, 0.04217037520115674, 0.0424693837105797, 0.04280815977913014, 0.043197555841053475, 0.04353627987296951, 0.043893162396823206, 0.044289885622420345, 0.04464359504357552, 0.045118696144501515, 0.045488344228156896, 0.04589736082380747, 0.04634840353504058, 0.046813943508094584, 0.04727655123715606, 0.047731055306444496, 0.04824367576188246, 0.048764006249153245, 0.0492793677166184, 0.04980166061574853, 0.05031435191248236, 0.05090908704581079, 0.05144023526769501, 0.05206277030423917, 0.052616483560102095, 0.053248312577459905, 0.05385658444804195, 0.05448861125517981, 0.05516571903130935, 0.05583122909334303, 0.05650814027936615, 0.0571882471928257, 0.057882896923059084, 0.05861249365783271, 0.05937177572371146, 0.06012841728247273, 0.060871292061598734, 0.06166245489361956, 0.06245850033076034, 0.06330823907895829, 0.06411802032329887, 0.06495777470948302, 0.06578458406980763, 0.06669406544189972, 0.06757233040314345, 0.06850003248184383, 0.06941108863352488, 0.07036526751969972, 0.07130723615874077, 0.07229711595119732, 0.07329097954710638, 0.07427138455636308, 0.07526433855594142, 0.07633411781649166, 0.07741050767872146, 0.07845640977892264, 0.07951266245850454, 0.08066029359515552, 0.08172523021173544, 0.08289375515202592, 0.08401899211798096, 0.08519404769173881, 0.0863917241391012, 0.0875840249669062, 0.08882027933583982, 0.09000796018672193, 0.09127891135396585, 0.0925320279199324, 0.09380096583096614, 0.09511170564741453, 0.0964200119208075, 0.09775511489556193, 0.0990618664784861, 0.10042954306129186, 0.10180501974961814, 0.10321149080102833, 0.10458455010685355, 0.10597161636981328, 0.10746045552976885, 0.10886659619206382, 0.11031617583922658, 0.11181378782962721, 0.11329092151654901, 0.11479098655213771, 0.11631554198399625, 0.11781909557059905, 0.11940702765983773, 0.1209244650347365, 0.12246795749162229, 0.12410553642030896, 0.1256678095976877, 0.1273037636478615, 0.12887608696278915, 0.13049841856181513, 0.13212458261325372, 0.1338141801327725, 0.1354588774620664, 0.13711736768026575, 0.1387961113799134, 0.14053255653807875, 0.14220625444124602, 0.14392107791950334, 0.1455994978324789, 0.14736999800551606, 0.14908752346968668, 0.15082361041468095, 0.15258584274817863, 0.1543350731238212, 0.15613862315961344, 0.15789443597218747, 0.15967193197865423, 0.1614661019779393, 0.1632258710876569, 0.16505825271791533, 0.1668281511352268, 0.1686699876395969, 0.1704519303741883, 0.1722520512350162, 0.17407031231086448, 0.1759377415826726, 0.17772845181817845, 0.17956782176117467, 0.18138148796124723, 0.18321246946823438, 0.1850292938217292, 0.1868773473133738, 0.18870684520016526, 0.1905390217869316, 0.1923478824267769, 0.19417546884508774, 0.19600384213021932, 0.1978541665800015, 0.1996364671556593, 0.20147700034409308, 0.20326095762520577, 0.20507552948010146, 0.2068840916174027, 0.20867776822936843, 0.2104618930246901, 0.21225824509599517, 0.21406368706558648, 0.21584104411909166, 0.2176067090738214, 0.21934789670395308, 0.22107949871602942, 0.22280497970269886, 0.2245578336350933, 0.22627079873833522, 0.22799610785441263, 0.22969055098928431, 0.23139065718797164, 0.23308699409685982, 0.23474999626652693, 0.236351964766708, 0.23801915826658954, 0.23964385585967046, 0.24124332987123032, 0.24283929032860757, 0.24439867407317512, 0.24599928253678527, 0.24753168113213306, 0.24905262278933282, 0.25057904896349664, 0.2520677384093918, 0.2535771404177398, 0.2549887100996652, 0.2563944190373046, 0.25784960168058224, 0.25927238104984573, 0.26061796618408856, 0.2619938263759551, 0.26330747230638946, 0.26462687101035676, 0.2659089662095429, 0.26718070226163315, 0.2684167896268937, 0.2696591555023557, 0.2707948305896615, 0.2719784144507694, 0.2731224576599984, 0.2742463468905431, 0.2753391108174363, 0.2763782243457354, 0.2774019264547647, 0.2784172988866944, 0.2794056391455711, 0.28034584297940807, 0.2812875265734306, 0.28215378036335376, 0.28304739950141594, 0.28388318952027625, 0.2846962978880205, 0.28542324866634233, 0.28615136813479575, 0.28690206473474184, 0.2875569183033457, 0.28818449620856906, 0.28882256098951714, 0.2893659967069536, 0.2899427533966346, 0.29045940739512743, 0.29092890416282924, 0.2913703917960837, 0.29179126891049667, 0.2921455364181389, 0.2925119197545471, 0.29280335211608344, 0.2931088826633538, 0.29334804127063263, 0.2935203899600467, 0.29367816164271066, 0.29384924350977126, 0.2939161501041968, 0.29397880571743085, 0.2940320514536682, 0.29396944357374016, 0.29391176799616947, 0.2938200483386051, 0.293707683607919, 0.29355468496525833, 0.2933563201131033, 0.2931062141677057, 0.29284128688890243, 0.2925175786196226, 0.2922170388629678, 0.2918219037106393, 0.29137750289128855, 0.29091699303521223, 0.290379982207577, 0.289872314997095, 0.28929084335159044, 0.2887233873971942, 0.28804147859460366, 0.28738928564712685, 0.2866519792823231, 0.28589401621265836, 0.2851118377844155, 0.28423602936356485, 0.2834016062108421, 0.2825159940289547, 0.28156484267675974, 0.2805516750630735, 0.27957167302391944, 0.2785446359935148, 0.2774579463097239, 0.2762959511587673, 0.27522500955452533, 0.27399415726139287, 0.27278809461922043, 0.2715180024838757, 0.2702114955300638, 0.26890913306809755, 0.2675837052909676, 0.26617784427476643, 0.2647593098606997, 0.2633154033543877, 0.26185659438658504, 0.2603309606603598, 0.2587563923557966, 0.25720424438209494, 0.25558808626766666, 0.25398792547034693, 0.2523146061394742, 0.2506104837318738, 0.24889785857139018, 0.24716541635755548, 0.24541283083827353, 0.24356130450011979, 0.24175728832858873, 0.23993300707964094, 0.23802324511179296, 0.23612821537888146, 0.23423127074016717, 0.2322601408833081, 0.2302908275092532, 0.22826839216171374, 0.2262707570014579, 0.2242552147011894, 0.2221797093406828, 0.2201382992983623, 0.218051708219973, 0.21591972689018066, 0.21377318365214737, 0.2116128123096406, 0.20949636077728306, 0.20724091153176466, 0.20509806832794847, 0.2028828602144176, 0.2006293212922106, 0.19840142791232207, 0.19618179313080913, 0.19385260621491568, 0.1916046707125546, 0.18933568694883463, 0.18702885061651803, 0.18468797334390477, 0.18238780597979604, 0.18009621997280045, 0.17776844274451345, 0.17544188366490773, 0.17302992016643318, 0.1707291564184379, 0.16834757102838005, 0.16602222656998156, 0.16363114863938322, 0.16128611660263578, 0.15897178619871802, 0.15659660418279323, 0.15421363510886146, 0.15185616046668546, 0.1494641085997864, 0.14713284750369027, 0.14475466391743244, 0.14242410938639863, 0.1400915449132286, 0.13771863712947013, 0.13540449283299602, 0.13308929396874303, 0.13077984535036044, 0.12844690572459072, 0.126113241832253, 0.12383266421772385, 0.1215859759002278, 0.11925724663813109, 0.11701821660488261, 0.11480495440025375, 0.11253276645980842, 0.11032905816941921, 0.10813804570531281, 0.10592295299744035, 0.10374165547000719, 0.10157859312698192, 0.09946140127667434, 0.09729923459691285, 0.09518607323548442, 0.09314906679738835, 0.0910584713164024, 0.08902147710325489, 0.08696247072522108, 0.08495809248158516, 0.08297172161620772, 0.08099124229168447, 0.07906081956600032, 0.07716033884244827, 0.07528976660998939, 0.07340124510172513, 0.07153668284320255, 0.06975745104461709, 0.06796357436389378, 0.06616107088131642, 0.06445905136292598, 0.06272120601945608, 0.0610494298437035, 0.05938899717850212, 0.05781741412098048, 0.056169392671235954, 0.054618697600678126, 0.05308073949087523, 0.051580552864698787, 0.050117489038934274, 0.048701148031258204, 0.04723386825309142, 0.045897414614386234, 0.0445513629503966, 0.043208282852285736, 0.04197307169328481, 0.04073882276887392, 0.03949833084641235, 0.038331932483919695, 0.037173384435773914, 0.03604958600853893, 0.034998378981631176, 0.033943132817887196, 0.032945557408393056, 0.03198359862392293, 0.031054198942748093, 0.03016354852564396, 0.029310431295187126, 0.028476417088561676, 0.027656491317589637, 0.02692896060643937, 0.026197957381546875, 0.025494783172981386, 0.024897963282944326, 0.024267401391086782, 0.0237158617518088, 0.023126603400614024, 0.022649179735656166, 0.022185497821272885, 0.021769921914402246, 0.02141743163565413, 0.02102975031876574, 0.02066793994718163, 0.020389169590158695, 0.02016597484151481, 0.01993982550069214, 0.01979305187407566, 0.01963496369131279, 0.01957545709745427, 0.019486212835224153, 0.019470216487655886, 0.019496580478175384, 0.01948813787632268, 0.01956524111993603, 0.019703064035841177, 0.019882731099031388, 0.01999777780589876, 0.020272403074558135, 0.020487445392836933, 0.02078277962963295, 0.02113784026773793, 0.021446378437123555, 0.021856713503019008, 0.022257401653281585, 0.02270702514982622, 0.023246339769864774, 0.02371850045939141, 0.024291316270083085, 0.0248269381278358, 0.02547489509311579, 0.026135076381927646, 0.026810719639215462, 0.027502955400054124, 0.02823739517707506, 0.02902811550134255, 0.029845016969236277, 0.03062334995064751, 0.03148736903835597, 0.03240367900424902, 0.03329136034216751, 0.03422868294622669, 0.035207283993088666, 0.03618106784832894, 0.037224266335118696, 0.038255728650288666, 0.03934644764849312, 0.040468170645633995, 0.04157439773590444, 0.04271465463654975, 0.04391963745384947, 0.045117686598221754, 0.0463288360956394, 0.04757599710283724, 0.04884576924533063, 0.050125716524574135, 0.05145093771744909, 0.052819737373560285, 0.054153610810713085, 0.05554930470899209, 0.0569323883175877, 0.05839166347122557, 0.05980824179854927, 0.061273308889968146, 0.06277422813755153, 0.06426145128627983, 0.06579647032240918, 0.06731770927565144, 0.06889081495455798, 0.07043592061674674, 0.0720861946045985, 0.07366674767993668, 0.07530002846646494, 0.07693627967824593, 0.07860671647994762, 0.08025363608700292, 0.0819654080112288, 0.08366198515142578, 0.0853706287027895, 0.08715129228661603, 0.08887308390841596, 0.09066727748747229, 0.09245395868798564, 0.09417753893777332, 0.09602002880917937, 0.09786105536646077, 0.09967279245559904, 0.1015259183148109, 0.10338737466090415, 0.10524903418049027, 0.10711899720585406, 0.10902467321212705, 0.11091743123030623, 0.11286091961401495, 0.11475412954385311, 0.11671204622560306, 0.11864310211836589, 0.12060959875724621, 0.12259876225789808, 0.12460471936849594, 0.12658669103358589, 0.1285839430128741, 0.1305615116380763, 0.1326501082422454, 0.13461074423891844, 0.13669238298318576, 0.13878277151035265, 0.14083945591732958, 0.1428858080062317, 0.14498887853754366, 0.1470638177356148, 0.14917854350235835, 0.15129775532513418, 0.15341692673572965, 0.15559333681370188, 0.15773413058944827, 0.15989053169572673, 0.16203877508973713, 0.16423500037338196, 0.1664353950741295, 0.16863269652503385, 0.17083684494232948, 0.17304724627265322, 0.17532239545186473, 0.177520221462692, 0.17982459748529092, 0.18206501497995078, 0.18438883261366124, 0.18664354723816554, 0.18897275761407317, 0.19125440019626336, 0.19361109390704684, 0.19593720136111575, 0.19829628652492814, 0.20068421349662974, 0.20309374904843924, 0.20543815425468184, 0.20790523618450074, 0.21029097466168487, 0.21274139958000524, 0.2151700666140347, 0.21769186098318677, 0.22014595215418797, 0.22265363210041542, 0.2251884606670492, 0.2277024212447358, 0.2302527601494775, 0.2328530266565236, 0.23542917311484904, 0.2379968154245267, 0.24066130091788815, 0.2432767662330493, 0.24592272751006336, 0.2486048018637175, 0.2513425232537871, 0.2540264632037699, 0.2567609997504527, 0.25956772250701315, 0.2622944589554126, 0.2651239337275721, 0.26794449085438105, 0.27078770132770785, 0.2736625683560397, 0.2765550749326294, 0.2794226758577476, 0.28237715952031806, 0.2853553206521959, 0.28830979840543164, 0.29135834438347946, 0.2943882669778556, 0.29741893944465075, 0.3004778525447711, 0.30364395644458164, 0.3067351845237585, 0.3099235090849619, 0.3131098791128507, 0.31629923127180454, 0.31956069510624724, 0.32284518704418774, 0.3261543064691028, 0.32939623162463494, 0.33279109800660833, 0.3361886781486528, 0.3395928246072684, 0.343012722431599, 0.3464939771834649, 0.35000023241798606, 0.3535075265256018, 0.35710008655297587, 0.3606563499367932, 0.3642959060253134, 0.36794532959711357, 0.3715775275915287, 0.3753336534032295, 0.3790500415220073, 0.38283609672172036, 0.3866664009174206, 0.3904543979209895, 0.3943355622821726, 0.3982313466883812, 0.4021444312896964, 0.4060930076440209, 0.4101252725031955, 0.4141255510707816, 0.4181472422517744, 0.4222960425366486, 0.42638748655586456, 0.43052614722282057, 0.43468172560097607, 0.4389049649247647, 0.4431606182910351, 0.4474620015791883, 0.45170138050161257, 0.4560571716040398, 0.460432737357572, 0.4647905971969251, 0.46923033082413906, 0.473687921136354, 0.4781915367433422, 0.482695202416825, 0.48719009322213763, 0.4917945317050838, 0.4963865932870418, 0.5009942917246621, 0.5056493657367839, 0.5103339991506182, 0.5150157360124269, 0.5197506959847332, 0.524497879472659, 0.529311182026815, 0.5340858319609635, 0.5389456362476607, 0.543771562974295, 0.5486504170407728, 0.5535889239783985, 0.5584612914746087, 0.5634243749935126, 0.5683629018543704, 0.5733441574627549, 0.5783692132020319, 0.5833476207380351, 0.588413951526115, 0.5934682906922488, 0.5985102863457837, 0.6035736018599436, 0.6087357099724636, 0.6138219974255884, 0.6189275987614699, 0.6240850855237982, 0.6292428588364817, 0.6343407813272808, 0.6395692364354502, 0.6447397086219417, 0.6499101275901727, 0.6550792870908818, 0.6602982621628597, 0.6654850665696483, 0.6706660993175897, 0.675916652808555, 0.6811166481077541, 0.686284246708527, 0.6914958060148962, 0.6967353863779567, 0.7019115924281296, 0.7070980848182347, 0.712295426362578, 0.717481383388113, 0.7226644025865097, 0.727821961124981, 0.7329728056098348, 0.7381281362760201, 0.7432581970246285, 0.7483725267223876, 0.7534876085803967, 0.7585441314733395, 0.7636266697603569, 0.7686571002464038, 0.7737220945798265, 0.7787336989712931, 0.7837080278266451, 0.7886798217552138, 0.793575622652323, 0.7985072888566044, 0.8033587840203522, 0.808236991925927, 0.8130533608345877, 0.8178289710881079, 0.8226116793480021, 0.8273112099981101, 0.8319904444823036, 0.8366190328707256, 0.8412629168655688, 0.8457816675235043, 0.8503132874132621, 0.8547896806976151, 0.8592638875786113, 0.8636216096378005, 0.8679520126902581, 0.8722534440369887, 0.8765150617591879, 0.8806545317120578, 0.8848107254202284, 0.8889408869233997, 0.8929168681165722, 0.896876679718535, 0.9007889805619996, 0.9046407474917728, 0.9084658003359626, 0.9121751284597226, 0.915841324850593, 0.9194456532659021, 0.9229679257536642, 0.9264573593030299, 0.9298355859861532, 0.933180039011835, 0.9364327305495109, 0.9396417674259663, 0.9427035612573631, 0.9457324959789054, 0.9487136540008094, 0.951645146493301, 0.954422160668564, 0.9571921242592042, 0.9597925190977921, 0.9623722858084742, 0.9648332501172245, 0.9672758652337601, 0.9695791585860883, 0.9718097597732114, 0.9739722325092182, 0.9760149614977439, 0.9779998093206013, 0.9798709470773632, 0.9816672385771893, 0.9833678971239342, 0.9849639929460654, 0.986495708117619, 0.9879273833895117, 0.9892551808625444, 0.9904842670601643, 0.9916307944025116, 0.9927075445242205, 0.9936274528109875, 0.9944799506845922, 0.9952476557969134, 0.9958933517209788, 0.9964496964614037, 0.9969574459582111, 0.9972792737083533, 0.9975109906276451, 0.9976880644665254, 0.9977341837138659, 0.9976983843681774, 0.9975982630672804, 0.9973402752288626, 0.9969823730413331, 0.9965325594423583, 0.995999989885968, 0.9953239266393812, 0.9945781535432247, 0.9937126318062744, 0.9927725463553331, 0.9917298641733586, 0.9905239274590673, 0.9892849448482426, 0.9879236956318606, 0.9864415791942988, 0.9848852404552737, 0.983210321845736, 0.9814504246452943, 0.9795554137854621, 0.9775841434895443, 0.9755034583577238, 0.9733302838367212, 0.9710396773843996, 0.968718749541884, 0.9662007137734988, 0.9636803338754177, 0.9610051386477639, 0.9582418853075128, 0.9553734877382609, 0.9524369324167304, 0.9493666849981617, 0.946234910090992, 0.9429673281058605, 0.9396505415043421, 0.9362446496662815, 0.9327461123171714, 0.9291214607777917, 0.9254676740889379, 0.9217103417286585, 0.9178241614528431, 0.9138831973876945, 0.9098585793939087, 0.9057570279068231, 0.9015692778576094, 0.8972383372463169, 0.8928865732074428, 0.8884924742216275, 0.8839737322333501, 0.8793873060508588, 0.8747551316662591, 0.8700014611011345, 0.8651875409519725, 0.8602983724019836, 0.8553849665526752, 0.8503504169336538, 0.8452939963615979, 0.8401482509714011, 0.8349317647132802, 0.8296568050880215, 0.8243438274758439, 0.8189704173678651, 0.8135125853784813, 0.8080022159892885, 0.8024564596561603, 0.7968894482954357, 0.7912420803915028, 0.7855223409779584, 0.7797780579116138, 0.7739932661913678, 0.7681484433725514, 0.7622806678465707, 0.7563714759169566, 0.7503990723885305, 0.7444114849952043, 0.7383764447439787, 0.7323906109733479, 0.7262629735374345, 0.7201480699209238, 0.7140355710255191, 0.7078369726350957, 0.7016429910739058, 0.6954452537905753, 0.6892639155099607, 0.6830133534972362, 0.6767641232981609, 0.670467685349831, 0.6641942788855529, 0.6578703860871544, 0.6515636977435123, 0.6453242835497941, 0.6390182563838859, 0.6326995521314259, 0.626371661004473, 0.6200878133304268, 0.6137594284780579, 0.6074622113983424, 0.6012025648395909, 0.5949488102601936, 0.5886374306437596, 0.582435698665244, 0.57614741305308, 0.5699382854157887, 0.5637795082794025, 0.5575727006212151, 0.5514582007759605, 0.5453139581783666, 0.5392192735090935, 0.5331078744972558, 0.5270544384597213, 0.5210897114160051, 0.5151177944270083, 0.5091297336535756, 0.5032546406184906, 0.4973962277170855, 0.49157644248649285, 0.48576459115065496, 0.48003266528474764, 0.4743612446130752, 0.4686888046706952, 0.4631049534037373, 0.45757778849521535, 0.4520734132905081, 0.4466504290905081, 0.441250583477539, 0.4359261649473148, 0.43064505923085133, 0.42540415123210407, 0.4202814148942925, 0.4151940890937568, 0.4102070439095802, 0.4051799451863654, 0.4002944027236669, 0.3954694472566901, 0.390729253688246, 0.3860016941790018, 0.38139559899091763, 0.37685268623743945, 0.37237226510684485, 0.3679601802529475, 0.3636432011130226, 0.35938428975442754, 0.35521775422833646, 0.3511291676513068, 0.3470748304331065, 0.34313182703276157, 0.33926387790747464, 0.3355051603331405, 0.3317812660331101, 0.32821147724535815, 0.32462203999016853, 0.32116438527802177, 0.3178277324235286, 0.3145331082033056, 0.3113369353203692, 0.30821245270323744, 0.3051883153527217, 0.30225833835014776, 0.2993650396912959, 0.2966251911695537, 0.29391959123603084, 0.2913329682515147, 0.2888277366621007, 0.2864029065941721, 0.28408810593142675, 0.2818234133352395, 0.27964065437013735, 0.2775880957461735, 0.27560228084647725, 0.27371704292447296, 0.2719085495963112, 0.27020469534746516, 0.2685504945851561, 0.26699392985927234, 0.2655491116741341, 0.2641727055765595, 0.2628847623157229, 0.2616768709533109, 0.26056799661223035, 0.2595206758436955, 0.2585497588593126, 0.25768805977926107, 0.2568859195452188, 0.2561775359556984, 0.25557096178604466, 0.2550417394279879, 0.2546119856580077, 0.2541824879585814, 0.2538778064296119, 0.25365998176720284, 0.2534984353743495, 0.25348182293304156, 0.25345537398195334, 0.25351340817907875, 0.2536637748639998, 0.25392108624969534, 0.25419228145118417, 0.25455407983464295, 0.2550010264691366, 0.2554565072588813, 0.2560250611988071, 0.25666283889250274, 0.2573592942918291, 0.2581271425017035, 0.25894643759414854, 0.259868993598009, 0.2607816645297413, 0.2617515838230318, 0.26284777178003754, 0.263940472253015, 0.26512052516254914, 0.2663333879043584, 0.2675719284605151, 0.26889916108641093, 0.27025815195833097, 0.27168261956613243, 0.27318588953980655, 0.2746639458652291, 0.2761970837318304, 0.27774305600095156, 0.2794087266413932, 0.28106460561296553, 0.28275172288008127, 0.28450075664957314, 0.2862218684119701, 0.2880599751904885, 0.2898683248850336, 0.2917037395789804, 0.2935970496271253, 0.29548605290727037, 0.29741277809456607, 0.2993556505117456, 0.3013038233791246, 0.3032868980351519, 0.30532337396111553, 0.30730595136850014, 0.3093384635883318, 0.31137840375602993, 0.3133974463429414, 0.3154889422606736, 0.31755543905593314, 0.3195897291812973, 0.32164455955056154, 0.3237106206322294, 0.3258184967584196, 0.3278591264541199, 0.32992074019975837, 0.3319802307484002, 0.3340114906564248, 0.3360815444935589, 0.33807469501535997, 0.3400910259315524, 0.342116576850543, 0.34412045177734774, 0.3460775015850229, 0.34803339534860844, 0.3499883189580195, 0.3518748712616087, 0.35376958903220046, 0.3556573084097366, 0.3574862267964325, 0.3593212579243381, 0.3610905263422047, 0.36284634167271806, 0.36460212169716494, 0.36626802276903553, 0.36794205272426245, 0.36954634506903106, 0.37114142528629473, 0.37270853434831336, 0.37421788597095523, 0.37568432864597934, 0.37712660982899426, 0.3785246741465666, 0.3798330423418736, 0.38114889367422766, 0.38239403717177806, 0.38362147693243864, 0.3847723696389701, 0.38589502728406416, 0.38697132415919255, 0.3879740683651443, 0.3889289539937639, 0.38983884701432686, 0.39066788601944313, 0.3914945567486, 0.39222289294399865, 0.392920042366833, 0.3934971810491611, 0.3941242101586374, 0.39462356966851375, 0.3950688900174815, 0.39544848532836446, 0.39580372945332326, 0.396086014182031, 0.396326579291187, 0.3964679036518918, 0.3965592074903559, 0.396581778512366, 0.3965711781944202, 0.396426634950463, 0.3963112090189863, 0.39605981779471544, 0.39579811985523794, 0.39547534402448753, 0.3949767919350653, 0.39453469434021293, 0.3939824838269154, 0.3933884915957272, 0.39270557738651185, 0.39199323911492573, 0.39116226613982946, 0.39028632634793725, 0.38934773584468685, 0.3883755807792065, 0.38730876411914217, 0.3861840053476472, 0.38500714551708265, 0.38372546634934407, 0.38244145956199704, 0.3810271589380022, 0.3795924182125627, 0.37812001373117043, 0.3765394954781383, 0.3748836381264217, 0.37321782536632664, 0.3714637671431429, 0.36966251715061077, 0.3677876546997468, 0.36585395920429353, 0.36387829249444054, 0.3618294057602131, 0.3597421234971949, 0.357553213492278, 0.35534420144093365, 0.3530969479476586, 0.35076081148248434, 0.34839762609566227, 0.3459922723987691, 0.3434975718809408, 0.34097268025235244, 0.33839672044468116, 0.335787388932389, 0.3330703404004121, 0.3303874867619545, 0.3275952898542428, 0.3247644825523111, 0.32191298040102173, 0.3190523090600849, 0.3161135171838526, 0.31313111986391723, 0.3100848269542105, 0.30701174909391066, 0.30392262108954865, 0.3008108676122052, 0.29763663397083173, 0.29441850363222727, 0.2912069707312253, 0.2879219943098757, 0.28465867807988215, 0.2813079542692936, 0.2779510187464955, 0.2745603098982292, 0.27115759108766657, 0.26775845048307384, 0.26432674114762206, 0.2608223340660186, 0.2573284963964911, 0.25379225404305017, 0.25028803237626784, 0.24676494024495713, 0.24318933420421388, 0.23957696834920472, 0.2360379162116079, 0.23241750597757738, 0.22881974354482393, 0.2252058954609612, 0.221631162820687, 0.2179562012257785, 0.21432002522808874, 0.21071127077474236, 0.20708215812921482, 0.20345479914503292, 0.19981295768347457, 0.19615585138703825, 0.1925963492649794, 0.1888914792832496, 0.1853403656005079, 0.18172842826479202, 0.1780909256348377, 0.17453860820529782, 0.1709597291126456, 0.16740543821624496, 0.16381397797310462, 0.16031616717997454, 0.15681829725650928, 0.15329421850050298, 0.14979531075040808, 0.14638244836348505, 0.1429062422961529, 0.13948885323438906, 0.1361133738589311, 0.13274450354802073, 0.12941587046244907, 0.12607302914927185, 0.12281930500123044, 0.11951655059777203, 0.11632826119618701, 0.11311265171797436, 0.10998484142882713, 0.10681861949544023, 0.10372522442002434, 0.10067423908694476, 0.09768439310220567, 0.09466501652753785, 0.09171783742241461, 0.08878127301771102, 0.08591241343498873, 0.08315130162466274, 0.08033666302698522, 0.07756832126898074, 0.0748500340060732, 0.07222788706546997, 0.06960751931559701, 0.06707963177092874, 0.06445888771626868, 0.06199640631130165, 0.05959047629658049, 0.057219888821867466, 0.0549072567279309, 0.05260956924801601, 0.05033252721424735, 0.04818514105424061, 0.0460060143173152, 0.04395431300235902, 0.04194897433018261, 0.039954996773095816, 0.03802844892474706, 0.036088580133884135, 0.03433727525771019, 0.03250535583214494, 0.030805744761341423, 0.029130036519502637, 0.027515761505119744, 0.025950781501913794, 0.02449053932234238, 0.023028710860535363, 0.02159064263810115, 0.020264412223669655, 0.019001748201717565, 0.017742834112877012, 0.01655645890239669, 0.015419647879263339, 0.014351265218338826, 0.013344524316232006, 0.012362210804244586, 0.011459833747260433, 0.010620053859002835, 0.009814413683614602, 0.009050233985152792, 0.008374842642971718, 0.007722705142782158, 0.007132172185201731, 0.006621357779361164, 0.0060682026272023066, 0.005689421344280944, 0.005260567461902664, 0.004957348452995156, 0.0046333978985382005, 0.0044485823792849875, 0.004227327876535717, 0.004078286144041503, 0.004036075123303205, 0.003968241933355439, 0.004006869230998624, 0.004038695731566305, 0.0041324551428447796, 0.004309915227979262, 0.004478679517382811, 0.004726078838287598, 0.005010091405772143, 0.0053258561005061775, 0.005719225313446358, 0.006080611175474381, 0.006554537907704567, 0.00704395410069191, 0.007574043216086405, 0.008105543372241453, 0.008737835867325766, 0.0093905862285854, 0.010068223546904601, 0.010784959869292903, 0.01153295400023312, 0.012285635637557706, 0.013175211794979845, 0.013971629870987998, 0.014874691458682433, 0.01574058942365393, 0.016754358475122955, 0.01766159778437124, 0.018687377653104298, 0.019689835407835875, 0.020759812252133282, 0.021859558421167203, 0.022947665802422686, 0.024050617946528522, 0.02521529616894574, 0.026386719356831796, 0.02762015869915337, 0.028811985926195355, 0.030022314456031637, 0.03128041687172757, 0.032529352680006195, 0.03383543933174916, 0.03515351178894198, 0.03645212735638738, 0.037751915168751246, 0.03910236875438556, 0.040462680960549, 0.0418269796780651, 0.04321632452614742, 0.044615883043496264, 0.04600333332722104, 0.0473800102665201, 0.0487790919197987, 0.05024620080517132, 0.051661529103494995, 0.05306311023419521, 0.054500674231352, 0.0559159086726569, 0.057364179647489986, 0.05878753596696118, 0.0601934246913305, 0.06164867193389155, 0.06308471068643147, 0.0645388117580059, 0.06594858382353878, 0.06738525520198045, 0.06882718756838054, 0.07021924388490092, 0.07167148118371729, 0.07304362863089434, 0.0744622321848172, 0.07580912867190448, 0.07719124776694539, 0.07861829185547413, 0.07992148098224001, 0.08135673102619875, 0.0826575422422756, 0.08400974748563624, 0.08536384476638409, 0.08664370836900023, 0.08797087090198227, 0.0892221304672498, 0.09056170342780909, 0.09178743627468632, 0.0930324386816496, 0.09426012410301897, 0.09551414857833757, 0.09671296987464273, 0.09790095398244728, 0.0990638456890182, 0.10026273336448402, 0.10136746438365961, 0.10256672206612474, 0.1036342720502695, 0.10476040974639478, 0.1058274986182629, 0.1069032432199099, 0.10798051585632139, 0.10895862537880548, 0.10999375138204295, 0.1109768351775857, 0.1119972655374454, 0.11293340302767364, 0.11391681306967189, 0.11487246219511871, 0.11574601965766379, 0.11668820555935408, 0.11755627629483864, 0.11844581248783313, 0.11928473508107376, 0.12015841389425776, 0.12095048689989142, 0.12175312036379052, 0.12256651487219637, 0.12335116773664968, 0.12410540938771111, 0.12482516259542739, 0.1256060387931715, 0.12634545241356512, 0.12701810973375152, 0.1277633355028183, 0.1284333025995595, 0.12909072627181262, 0.12980459917303003, 0.1304454613913471, 0.13109697227922593, 0.1317488970041799, 0.13239858615954278, 0.13295979915199085, 0.13357575354351725, 0.1341875822217113, 0.13480861686494452, 0.13544855279749868, 0.13597410978258262, 0.13654631730996236, 0.13717127449902636, 0.13775743822718067, 0.13833570513796148, 0.13891551532025603, 0.13947102003834747, 0.14006316093932544, 0.1406270190328473, 0.14121697209822498, 0.14175565233183982, 0.14239026720937353, 0.14297115228152119, 0.1435652528313882, 0.14419403204067027, 0.14475494884479517, 0.14537457209543664, 0.14603682883958227, 0.1466638298437091, 0.1472756782764422, 0.14794983976963585, 0.14861050004314708, 0.14930306629868675, 0.14997321249526574, 0.15067847013879265, 0.15140970598434214, 0.1521751027386276, 0.15293191318720079, 0.15367765575206913, 0.1545167840289024, 0.1553070287594617, 0.1562043997898116, 0.15701822079074335, 0.15790983200191425, 0.1588354006055913, 0.15972795226656838, 0.160724638289363, 0.16173808640254841, 0.16274980962532037, 0.16381589008535707, 0.16489771115502133, 0.16600095582159338, 0.1671224869370724, 0.16833487924666873, 0.16953216354577647, 0.1707819261641448, 0.17206365150500813, 0.173379846755415, 0.17476442775350168, 0.17616697262056233, 0.1775984537475176, 0.17907660556900692, 0.18056834016324036, 0.18216452970823171, 0.18377906861515073, 0.18544663059535751, 0.1871310035973831, 0.1888580395648057, 0.1906789361873506, 0.19252208404943105, 0.19439808699113664, 0.1962869205990882, 0.1982757881383764, 0.20032648965810493, 0.20241739631924305, 0.20456529513065122, 0.2067484208835802, 0.20896672030626934, 0.21125904672899756, 0.21365755725832825, 0.21601461992733598, 0.2184753167886647, 0.22098961131050476, 0.22358022818498968, 0.22620891236103358, 0.22887600837212282, 0.2316294526112081, 0.23441721296160645, 0.23726947905648657, 0.24020736999839853, 0.24315196944928696, 0.2461845116480423, 0.24928846224406265, 0.2524416103801104, 0.2556765730121284, 0.25892501225192355, 0.2622497972562897, 0.26568652157849465, 0.26913302622506524, 0.2726281630453029, 0.27622484268968134, 0.27985577906931025, 0.2835766007554788, 0.2873362242023982, 0.29115029820670835, 0.29501958653593807, 0.29898277775468596, 0.30297356177950885, 0.3070448409881471, 0.3111625994529724, 0.3153405413068398, 0.31963390174127987, 0.3239121416265425, 0.3283001712818519, 0.33266856793641203, 0.3371812383049286, 0.3417052562286741, 0.3463611059376875, 0.3509792844986527, 0.3557182250027175, 0.3604342518789125, 0.3652792886515713, 0.3701789800048544, 0.37508849514307396, 0.38012874043640044, 0.385140424596609, 0.3902393969652875, 0.39539214635523207, 0.40058144869582396, 0.40582291117740277, 0.41109328211522045, 0.41646859736517494, 0.4218607900693661, 0.4273078473345442, 0.43278911241845824, 0.4383228831873162, 0.4438850844557123, 0.4495260617304212, 0.45516623938578527, 0.46088532224531015, 0.46661852382168845, 0.47242891104600965, 0.4782235695442826, 0.48409807266929183, 0.4899440716976605, 0.4958481355061359, 0.5018744572908669, 0.5078680931658768, 0.51385601336181, 0.5198692448362862, 0.5259661300119071, 0.5320841988796848, 0.5381981965724079, 0.54438557108019, 0.5505109938419787, 0.5567167180505118, 0.5629383338067677, 0.5691555073116323, 0.5753743356240044, 0.581618826126393, 0.5879079960378434, 0.5941960933732676, 0.60050558243963, 0.6067985046080622, 0.613112172866173, 0.6194024256305188, 0.6257187016900901, 0.6320557205940893, 0.6383776656777731, 0.6446669736900271, 0.6510150117868719, 0.6573170498476134, 0.6635747189568, 0.6698918803308713, 0.6761984908095562, 0.6824433122810538, 0.6887185073835851, 0.694911689377219, 0.7011431240252937, 0.7074032108446011, 0.7135723993146172, 0.7197464368324249, 0.7258318733725568, 0.7319933950703382, 0.7380826557174117, 0.7441414046182789, 0.7501254196103161, 0.7561744908533927, 0.7620831477396507, 0.7680207400059047, 0.7739347830767302, 0.7797311516535045, 0.7855659887269556, 0.7913126788594242, 0.7970409844072973, 0.8027003900530237, 0.808310061136233, 0.8138594082262337, 0.8193871207275494, 0.8248638632879178, 0.830283598601539, 0.8356388636755465, 0.8409295406306431, 0.8461265834202314, 0.8512853117051731, 0.8563888977173502, 0.8614177389256689, 0.8664019771991762, 0.8713191676894684, 0.876128481368807, 0.8808950918513497, 0.8855997803993461, 0.8902047276523037, 0.8947386343434175, 0.8991948046789877, 0.9035630120735808, 0.9078780059887983, 0.9120819222668822, 0.9162040488697357, 0.9202643558467373, 0.9241705136822312, 0.928047611380925, 0.9318782434224262, 0.9355812106485912, 0.9391585076600661, 0.9426620392975745, 0.9460534608349638, 0.9493776182313526, 0.9526059463729293, 0.9557165990972175, 0.9587606265619156, 0.9616962510179711, 0.9644782490438196, 0.9672356059352025, 0.9698222898135591, 0.9723843200279608, 0.9747604968134685, 0.9770442557078947, 0.9792340772838526, 0.981378228510973, 0.9833416228980741, 0.9852279235549167, 0.9869824673440972, 0.9886430187841214, 0.9901857575753762, 0.9915893118430928, 0.9929585815332286, 0.9941472249267513, 0.9952353534711118, 0.996263010994214, 0.9970945031599516, 0.9978698838752793, 0.9985022652307618, 0.9990307558480884, 0.9994095138509846, 0.9997304126756922, 0.9999144458067695, 1.0, 0.9999409761438949, 0.9997888245774343, 0.9995030332327505, 0.9990907495862346, 0.9985992446227369, 0.9979619407004691, 0.9971999438736152, 0.9963766745105402, 0.995393682701158, 0.9942975772472717, 0.9931231460372533, 0.991791231722296, 0.9903788911205678, 0.988836803482898, 0.9871276020328567, 0.9854001340566703, 0.9834939983815364, 0.9815029234430743, 0.9794253184388575, 0.9771709586001147, 0.9748682613889736, 0.9724450158704057, 0.9698690513725756, 0.967240337896537, 0.9645295048177202, 0.9616484078146824, 0.958648488070523, 0.9555899946304165, 0.9524055202665169, 0.9491629684030221, 0.9457521423014672, 0.9422814805377456, 0.9386975332126668, 0.9350429180137728, 0.931258033118374, 0.9273885281222921, 0.9234205919090342, 0.9193865599483316, 0.9152971553459173, 0.9109908842431295, 0.9066748617343506, 0.9022633508786119, 0.8977425452749298, 0.8932011798020355, 0.8885253016197822, 0.883750715346474, 0.8789684668927847, 0.8740448863751261, 0.8690438203857938, 0.8639817081822558, 0.8588587636082333, 0.8536309530271387, 0.8483866465769055, 0.8429948352119937, 0.8375944477938331, 0.8321297986857619, 0.82659519692518, 0.820978405861443, 0.8153378996218544, 0.8095696676622053, 0.8037686870369416, 0.7979661742437865, 0.7920807578738152, 0.7861379740398199, 0.7801319778439233, 0.7740916735165656, 0.7680167752977859, 0.7619121245272732, 0.7557091958265931, 0.7495243972682092, 0.7432678374024568, 0.7369675333287447, 0.7306864297934482, 0.7243094563424641, 0.7179543589500967, 0.7115212265761183, 0.7051244793840972, 0.6986672778839133, 0.6921783662259811, 0.6856533028320294, 0.6791866903010008, 0.6726578754004626, 0.6660786625131233, 0.6595544691819955, 0.6529678441919372, 0.646398727386146, 0.639826443543593, 0.6332516230946386, 0.6266949317361015, 0.620082666937376, 0.6135302171787433, 0.6069216166085858, 0.6003300582744626, 0.5937636917538117, 0.5872487613875509, 0.5807103617093289, 0.5741726804530025, 0.5676492864782541, 0.5611484451218337, 0.554697216791883, 0.5482286202529096, 0.5418193126236254, 0.5354199436107724, 0.5290427171993908, 0.5226651193682582, 0.5163870074709861, 0.5101258030768528, 0.5038417960377514, 0.4976075055931419, 0.49146232908255993, 0.48530746468048197, 0.4792210022016608, 0.4731752375984083, 0.46715919923070187, 0.46116233927094785, 0.45524740055918367, 0.4494024551620184, 0.4436305376120912, 0.4378476518308346, 0.4321077019091686, 0.4264994606030563, 0.42089068225492193, 0.41530486517673887, 0.4098713456792269, 0.40446057726247936, 0.3990967976446658, 0.3937781190274345, 0.38854848398965264, 0.3833798384569175, 0.37833526183719024, 0.37326479627048703, 0.3682930946475713, 0.363418198024169, 0.3586317819714031, 0.3538542475561145, 0.3491978239268208, 0.3445773467068922, 0.3400375488158085, 0.3356183146292773, 0.3312658700200979, 0.3269514900096559, 0.32274089832948905, 0.31862427941355176, 0.3145600277707504, 0.310591396705628, 0.306686122608887, 0.3028472939669201, 0.299147099404438, 0.29550323004271767, 0.2919292701829635, 0.2884669051777488, 0.2850818764138541, 0.2818067298132601, 0.27851185013864105, 0.2753865400800629, 0.2723278783734344, 0.2693958622089167, 0.26649970877713897, 0.2636889045681239, 0.2610048255886287, 0.2583453389526119, 0.2558211797358769, 0.25336992654496604, 0.2510254125190028, 0.24870268945075832, 0.24650703623511297, 0.24443908814913412, 0.2424174738529221, 0.24045389907934844, 0.23864816341128736, 0.23686482452415142, 0.2351691732735642, 0.2335479113004837, 0.23206060742548953, 0.23062499139527598, 0.2293135364491374, 0.2280195079765727, 0.2268364721870559, 0.22571972716803193, 0.22468482410491433, 0.22378299200662063, 0.22291632195802857, 0.22213499844428425, 0.22138688655820393, 0.22082168054863752, 0.22025906002818693, 0.21978002272052066, 0.21932756508983878, 0.2190251929855136, 0.21881094527640466, 0.21860486839741422, 0.21852521356819696, 0.2184655652497688, 0.21843794774179973, 0.21855607619459852, 0.21878047925976735, 0.21895660003807269, 0.21927989505512668, 0.21962285792452146, 0.22000194707851856, 0.22053061831489565, 0.22105672214311728, 0.22163911511236378, 0.2223509137541793, 0.2230232316295712, 0.22378745038754516, 0.22460549084109166, 0.2254791506679931, 0.22639227607968068, 0.22737565050121228, 0.22840181734492965, 0.22946055813006044, 0.23056125057429677, 0.23173438137920518, 0.2329404409828987, 0.2341666599303498, 0.23545074086762346, 0.236771998795796, 0.23813804983460363, 0.23948518021662735, 0.24094205552222595, 0.2423512530082009, 0.2438706148275083, 0.2453311325869765, 0.2468960116113818, 0.2484784580509212, 0.2500590338699115, 0.2517026314100117, 0.25332666652935554, 0.2549733045465605, 0.256662348934113, 0.2583298211800077, 0.26003347760607487, 0.26174207433906693, 0.26349461764375415, 0.2651930792574017, 0.26697103243598, 0.26870458924240415, 0.2704962614966309, 0.2722558954808301, 0.27403152459787194, 0.27577920586164933, 0.2775507496664327, 0.27933307311388045, 0.2810967838010657, 0.2828209390552512, 0.2845961546130649, 0.28634104258865706, 0.288087335004047, 0.2898157719871704, 0.29150870349111, 0.2931974542146925, 0.2948885608279289, 0.2965439998289151, 0.29822534693893005, 0.29984081601727136, 0.3014587010735362, 0.3030195047669679, 0.30460679119463047, 0.306135268399879, 0.3076450717788481, 0.30913369030709453, 0.31059682653655457, 0.31201436891015283, 0.3133808045560678, 0.3147519581645398, 0.31610982046072494, 0.31742892216810215, 0.31867900251725473, 0.31990803460112865, 0.3211083193774576, 0.32222531645493235, 0.3233475589333697, 0.3244310116564644, 0.3254507764367655, 0.3264224027863796, 0.3273958059441513, 0.32825962223732114, 0.3291396633904386, 0.32994044872038764, 0.33070464756462165, 0.3314035704650236, 0.3320913760925227, 0.3326962039173864, 0.33326297915314124, 0.33381319337614695, 0.3342727870634203, 0.33467375541527794, 0.33502940606096887, 0.33535535446780523, 0.3356248251783673, 0.33581966393104296, 0.335974351219024, 0.3360567822593575, 0.33611611675382586, 0.33608055494807365, 0.33599489803372085, 0.3358660618321832, 0.33574951864514613, 0.33547053656457476, 0.3351938894923497, 0.3348271769302068, 0.334413518414101, 0.3339411058894765, 0.3334284610856224, 0.3328478468416037, 0.3321822990982938, 0.3315131366733188, 0.3307678070577683, 0.32995956018383454, 0.32908516105444036, 0.32813177093754053, 0.3271843331951691, 0.3261034963637665, 0.32505501424983996, 0.32389032993795597, 0.3226705717027157, 0.32142073471273175, 0.3200848432591502, 0.3187422116981937, 0.3172735727730922, 0.31580908617746584, 0.3142394626990222, 0.31266659438444616, 0.3110372959302713, 0.30933228369594207, 0.3075665794177381, 0.30579201269575107, 0.3039187191604887, 0.30205630514779497, 0.30003791812890684, 0.2980557177489237, 0.29601486327631993, 0.2939102535753598, 0.2917997549586323, 0.28955475551420073, 0.28735297727198017, 0.2850383549582261, 0.28276301130208586, 0.2803614208237862, 0.27795541535195906, 0.275478541626001, 0.27303208557150005, 0.2704710931582955, 0.26789984616292956, 0.26527195999089437, 0.2626653402291685, 0.25991830441226066, 0.2572187044013011, 0.2544899847557224, 0.25169253149032755, 0.24887992402620268, 0.24602984255577642, 0.24318056359030027, 0.2402152505746683, 0.2373138654262253, 0.23435412333031486, 0.23135113877540858, 0.22834677797395242, 0.22531127543036172, 0.22223935868173683, 0.21915699583460968, 0.21608425534906212, 0.21299861989279176, 0.20982146608693636, 0.20666223333765826, 0.2035272181190131, 0.20032563414116955, 0.19713664259073682, 0.19391356913370608, 0.19069452535527884, 0.1874715096568252, 0.18426120687147615, 0.181019370175139, 0.17776209708018428, 0.17450712902688534, 0.17126313884308939, 0.16795256932439012, 0.16472984332280446, 0.1614556084415592, 0.15821992136046312, 0.15492107062916993, 0.15172724914474545, 0.14847169561665133, 0.14522765566193055, 0.14196153495683916, 0.1387374837228302, 0.13547783378242265, 0.13231670455209263, 0.12911857791857353, 0.1259308349973267, 0.12272974396976241, 0.11960752851321714, 0.1164409640192798, 0.11330147862268615, 0.11020550992778932, 0.10712068157356318, 0.104041738166186, 0.10097932584405786, 0.09794123171826762, 0.09496266317575486, 0.09199780438776797, 0.08899395388960622, 0.08610117400902877, 0.08320260703941192, 0.08028718279371305, 0.07748895080745453, 0.07462514783669229, 0.07185531967219841, 0.06912241872881793, 0.06636038610687721, 0.0636774770231649, 0.06101469798559249, 0.05839351180973753, 0.05580923287894668, 0.05323728230912635, 0.05071225877483397, 0.04822296598368055, 0.04583237166804726, 0.04338498254046049, 0.041013858824126746, 0.0387341625407268, 0.03648153135681401, 0.03417775370219657, 0.03198557152658453, 0.029836401062857624, 0.027714503422606014, 0.025628180846703066, 0.023591820023832536, 0.021651664257331824, 0.01968608374916485, 0.017812387714281733, 0.01592877457100215, 0.014157467901680282, 0.012365235499154904, 0.01067390777675628, 0.008992255370642964, 0.007332505991876184, 0.005803738065510212, 0.004279811164137971, 0.002846698934060218, 0.001375256977700817, 0.0