0.028829270680471173, 0.02838997634576146, 0.02810158808917577, 0.02780888193602297, 0.027501280787716364, 0.027306844815767572, 0.027106647070065278, 0.026938870612832674, 0.02680983970111588, 0.02672788549203009, 0.026560971940285446, 0.026519322705685494, 0.02642118162030665, 0.026313724788140185, 0.026263029936515397, 0.026144662789366634, 0.0260687141312914, 0.026061408602469145, 0.025967838963159406, 0.025955808115816808, 0.025904607147957944, 0.025854341683684678, 0.02577725433622871, 0.02577739747203883, 0.025779392555018984, 0.025802647782956586, 0.025755792376925712, 0.02576486218675232, 0.025833383727171495, 0.02587076415731791, 0.025818887632978217, 0.025959204369957637, 0.02597270404161085, 0.026037801572799908, 0.026149766240446994, 0.026266949731377314, 0.02635907384258161, 0.026460812429193518, 0.02656208428785082, 0.0267810462041797, 0.026901994217153214, 0.027089297842808984, 0.027292596955074896, 0.027554544978836876, 0.027766322522089933, 0.028089173788280766, 0.028289102409310634, 0.02863085510215512, 0.028991552724372576, 0.02926137303301859, 0.02962160093516097, 0.030071994276096466, 0.030466347727393088, 0.03086365201521063, 0.03126438727592231, 0.03172589083627522, 0.032278494410852475, 0.03268370466992784, 0.0332545012408972, 0.033822929493398386, 0.03440778191692831, 0.03498112759085462, 0.03562682778834468, 0.036296597196952315, 0.03695365433190251, 0.03767209848562124, 0.03835739229254456, 0.03913343187709478, 0.03989294112673451, 0.04075092797726765, 0.04153177722401633, 0.04239962408008353, 0.04329366472794184, 0.044145310267141094, 0.045128059252009536, 0.04609849338252287, 0.04709316754761045, 0.048120303040554584, 0.04914336919713562, 0.05021430530197326, 0.05130177019881727, 0.052435585495502444, 0.053625967349056655, 0.05481647888085817, 0.0560308468776901, 0.05727935546547189, 0.0586367479826225, 0.05992805544162199, 0.06130529592597562, 0.06264319049764723, 0.06405118280315847, 0.06550900990129932, 0.06705330442161508, 0.06857535550105368, 0.07009793923956979, 0.07165317528241934, 0.07331726201673673, 0.0749632559162555, 0.07665045419109207, 0.07836275932620415, 0.08004503578676748, 0.08186080125586698, 0.08374278061950007, 0.08565348438331886, 0.08747792989874037, 0.08941975141011606, 0.09147771550136254, 0.09343560035480605, 0.09551438275788454, 0.09762272568658424, 0.09974873761024225, 0.10193608163202882, 0.10407839909303149, 0.1063087661504259, 0.10864704546772856, 0.11095550957293239, 0.11330987407977072, 0.11573846314703944, 0.11808354559183792, 0.12060702890871146, 0.12308742482996309, 0.1256451462079922, 0.12821972602015072, 0.13087169127995812, 0.13356117798327197, 0.13622659584016894, 0.1390334472011757, 0.1417939269469465, 0.14458714442909584, 0.1474743831881193, 0.1503709017440854, 0.15336030671153708, 0.15627535092063335, 0.15926905000905503, 0.1623352004203179, 0.16547904806159489, 0.16861451061753224, 0.17177174761195352, 0.17491181228881925, 0.17819794489555993, 0.18144747837389885, 0.1847251997092414, 0.18810495850839895, 0.1915104831456199, 0.1949400521775148, 0.19837893763026215, 0.20190697189135462, 0.2054030984576582, 0.2089757302707272, 0.21257088629948898, 0.21625601857962776, 0.21985861325948364, 0.22360728419980716, 0.2272730098491351, 0.23109825856538063, 0.23479069125512061, 0.2386841665264315, 0.24248767613254063, 0.24640108369739885, 0.2503316474822151, 0.2542472094360249, 0.25824656515395605, 0.26220331349738396, 0.2661987874409827, 0.2703012733156317, 0.2743667275558101, 0.2784432601057875, 0.28256469405598905, 0.2867009480907753, 0.29087587418272004, 0.29512048994690077, 0.2993327846437657, 0.3035115564928521, 0.3077998888317349, 0.3120788475561051, 0.31639740451192894, 0.32071122549896913, 0.3250105973916269, 0.3293344082554409, 0.33370457526490227, 0.33809428571949185, 0.3424386852017984, 0.34686743583724794, 0.35131105242156035, 0.35569839856505586, 0.36014189548938486, 0.3646156668121089, 0.3690880221129855, 0.37353912205640544, 0.3780042826313236, 0.38252019268292137, 0.38703412017416544, 0.3915145889392865, 0.3959397340475359, 0.40048685583435095, 0.4049534743689012, 0.4094403979985004, 0.41398063653771705, 0.41845264482208755, 0.42297848027156326, 0.42739698497421624, 0.4319134672941339, 0.43637548140889254, 0.44087975086769554, 0.44536038220438406, 0.44977102322717066, 0.45428979963463506, 0.45868679612857005, 0.46308493688206365, 0.4675744225154535, 0.4719749602955427, 0.4763168529158549, 0.48070866159846487, 0.4850405754700729, 0.4893556306390884, 0.4936766906494123, 0.49800347724394534, 0.5022410701676195, 0.5065266974898887, 0.5106993956065292, 0.5149309900658581, 0.5190946029578731, 0.523200188577506, 0.5273773370161494, 0.5314644010531994, 0.5355159603979367, 0.5395538671576474, 0.5435744537314278, 0.5475184882603917, 0.5514396373694088, 0.5554101260722321, 0.5592045349144664, 0.5629980481471547, 0.5667921662599689, 0.5705243461168499, 0.574273263197041, 0.5779016553581704, 0.5815698972558518, 0.5851392729510915, 0.5886283356711971, 0.5921348596372202, 0.5955210675741727, 0.5989657679494946, 0.6022592175627562, 0.6055838948931787, 0.6087558635465398, 0.612033360781493, 0.6151465327237973, 0.6182249992886725, 0.6212718226722221, 0.6242088882416685, 0.6271184232867942, 0.6300276321959588, 0.6328209169234285, 0.6355868565437109, 0.6382415620070948, 0.6408566175813531, 0.6433628213955633, 0.645910039805012, 0.6483737533269736, 0.6506796311495323, 0.6529860189764392, 0.6552318705406045, 0.657400243483308, 0.6595578280216181, 0.6615562036363338, 0.6635660869398439, 0.6654550221898746, 0.6673011672996069, 0.6690317981697405, 0.6707316395145497, 0.6724080670232142, 0.6739133564612234, 0.6753985140798876, 0.6768219620074896, 0.6781208808898626, 0.6794470524528353, 0.6805491949751934, 0.681713655602272, 0.6826839520184613, 0.6836888626774483, 0.6845960597233168, 0.6853871057379509, 0.686146578813205, 0.6867476513064708, 0.6873475277517542, 0.6878894218995316, 0.6883158634247616, 0.6886423518374408, 0.6889564947626132, 0.6891736058610907, 0.6892115882194998, 0.6892998245828413, 0.6892304459590662, 0.6891235680580904, 0.6889208998871365, 0.6887179503057951, 0.688325288785209, 0.6878610358757806, 0.6874183473463089, 0.6868311471113451, 0.6861785993138488, 0.6854344377717454, 0.6845691240940238, 0.6836895012609432, 0.6827539521307768, 0.6816848496689437, 0.6805744840710909, 0.6793647317060667, 0.6781688163436176, 0.6767819883815713, 0.6753389606654776, 0.6738377175667433, 0.6722770758292319, 0.6707214371201953, 0.6689637374956732, 0.6671233670070323, 0.6652668988383792, 0.663357571162257, 0.6613181640120418, 0.6593413457746259, 0.6571348102043161, 0.6549717059347632, 0.6526110077510214, 0.65032132513248, 0.6479022658237025, 0.6454409362591025, 0.6429217663702793, 0.64034632383715, 0.6376221878816317, 0.6349390245392329, 0.6320916160620339, 0.6292369828733202, 0.6263470519566038, 0.6234523116608066, 0.6203566217419216, 0.6173011945333624, 0.6141874205037166, 0.6109351634795598, 0.6076560728113253, 0.6043797206457092, 0.6010456399727745, 0.5976869483222272, 0.594170036854112, 0.5907071307852527, 0.5871048621525478, 0.5835694806083266, 0.5798653617992849, 0.5762342464307894, 0.572513966314226, 0.568751268511763, 0.5649431676708537, 0.5611154912375339, 0.5571493468162962, 0.5532246259579682, 0.5493049088144314, 0.5453376965341014, 0.5413190307435601, 0.5372075982038669, 0.5330882235777118, 0.5290515627570129, 0.5248429063970873, 0.5206732771721742, 0.5165474097183606, 0.5122645249663593, 0.5080764983484705, 0.5037695807879476, 0.4994432801337639, 0.49521404755767445, 0.49090309948939037, 0.4865191887616949, 0.48216575483054314, 0.47784619193607875, 0.4734284825324835, 0.46905391923875106, 0.4646778547775146, 0.4602904866128117, 0.4558036523020433, 0.4514444870146039, 0.44701307544580987, 0.44258854600061404, 0.4381587740487042, 0.4336900577871721, 0.4292978892657574, 0.424893164154854, 0.420536568679117, 0.41612060597039874, 0.411704256085951, 0.4073180162911961, 0.40290698485857596, 0.39849954063980053, 0.39414517032532015, 0.3898714824352426, 0.38550979407034297, 0.38119970277535303, 0.3768615603477971, 0.3725603490005294, 0.3683794534929437, 0.36412253624256, 0.3598284518427942, 0.3556633269152769, 0.35154129066383377, 0.34736425353092926, 0.34318786875485663, 0.33917574908742737, 0.33508790744514494, 0.3310135185030175, 0.3270127005396977, 0.3230984074679096, 0.31915044872294307, 0.31523119971692404, 0.3113669596420565, 0.30751924208982656, 0.30374834603592304, 0.29993186523107856, 0.2962602895202899, 0.29250915520976867, 0.28892719904813485, 0.28531361533698946, 0.28168529287351535, 0.2782253470579892, 0.27471788696473226, 0.27125490944442027, 0.26787701450470464, 0.2645394919796596, 0.2612626463065357, 0.2580064846527719, 0.2547780857208568, 0.25170773796548745, 0.24852554430012727, 0.24553400279074072, 0.24251766174241074, 0.23954467040862543, 0.2366566086912234, 0.23378927478989872, 0.2309385211574834, 0.22823506954819936, 0.22544864087002267, 0.2228671691899027, 0.22027145787218175, 0.21773025524768744, 0.2152105215844031, 0.21282011242716423, 0.2104103436095596, 0.20807104768339807, 0.20582494052775988, 0.20364051310371475, 0.20141280912653062, 0.1994029566466386, 0.19733561212442585, 0.19528524601073194, 0.19339066133827934, 0.19152984656729283, 0.18967892892086216, 0.18784351934820584, 0.18617642036125515, 0.1844770053091509, 0.18285471561169558, 0.18132883294526417, 0.17984029131275162, 0.17839214384819835, 0.17694290252921616, 0.17565965829380695, 0.17432075931096877, 0.17307499961787626, 0.17190091569595697, 0.1707904860102685, 0.16973622540419675, 0.16872737189032502, 0.1677099790651246, 0.1668335284038871, 0.16591859364305941, 0.16507807658016604, 0.16432584502586164, 0.1636404889096932, 0.16288449160137103, 0.16230497314659192, 0.16167822711580154, 0.161117535613343, 0.16068050964544925, 0.16017163541607254, 0.1597954767950553, 0.15947639976076355, 0.1591185066547219, 0.1588590368034976, 0.15867328958746948, 0.15847329454885822, 0.15830959782015533, 0.1581806527942829, 0.1581389663648046, 0.1581039146627168, 0.15801977158352956, 0.15810295848581976, 0.15820421961236397, 0.15832636065346106, 0.15847130180824764, 0.1586154473077194, 0.1587741998325692, 0.15901843569432983, 0.15936782506763197, 0.1595797897653303, 0.15991681529805313, 0.16027300862227317, 0.16064053103626913, 0.16100749871370384, 0.1615219750763907, 0.1619079231636774, 0.162386188057681, 0.16282693680712876, 0.1634019652770795, 0.16393367803757278, 0.16443147402742994, 0.16501914411822557, 0.16563761800841592, 0.16625552904427604, 0.16680365656544027, 0.1674259926783035, 0.16800797729644687, 0.16870014761988192, 0.16931827679424852, 0.16997963232821803, 0.17063139637990346, 0.17133340781575676, 0.17209473689386787, 0.1727952770688949, 0.1734690376431912, 0.1741445350338341, 0.17477930933007618, 0.17547615709150063, 0.17620503086498318, 0.1769087067995697, 0.17765155045483583, 0.17831801713250134, 0.17902559747798039, 0.17970672990063877, 0.18033219426662667, 0.18099102504898404, 0.18170695841034093, 0.18236760428688267, 0.1830092458553102, 0.18363123746145166, 0.1842655307784957, 0.18486645333966364, 0.18543848230511134, 0.18609186879330117, 0.186589804730206, 0.1871650929241811, 0.1876892679683261, 0.188256097027385, 0.18873286242935916, 0.1892899420274124, 0.18973876277181428, 0.19017881373685308, 0.19053695394237405, 0.19102762734949813, 0.19133939730216667, 0.19169739474647507, 0.19204366947292195, 0.19240298006170647, 0.19263356740808754, 0.19296310649754017, 0.19320345798244426, 0.1933469285878419, 0.19358721553315453, 0.19373586276582336, 0.19386378290729858, 0.19398696422941428, 0.19406178703225754, 0.19403805109312974, 0.19407502232723034, 0.19414043836620226, 0.19400667294665197, 0.19404067125629226, 0.19388835599099682, 0.19371222708077385, 0.1936331812449235, 0.19336790564632234, 0.19316882041163247, 0.19291357883582905, 0.1926167043217952, 0.19224173774634612, 0.19193439864723325, 0.19156554586632396, 0.1910945107945339, 0.1906640168201867, 0.19014502106926648, 0.18965848591255136, 0.18906758767163148, 0.1885145783642791, 0.1879183717751598, 0.18729097853920254, 0.18657199259845444, 0.18583493786450972, 0.18509109993153863, 0.1842953386277446, 0.183532916098515, 0.1826430767641618, 0.18178380153030643, 0.18083853227893865, 0.17989866961389375, 0.17894655519389843, 0.17797519756073418, 0.17691571450734142, 0.17585707863177935, 0.17474999348612116, 0.17361620059688165, 0.17250468023038346, 0.17124857180924316, 0.17013790392649347, 0.16881474689451417, 0.16756826894972043, 0.16631545178988924, 0.16497699797935625, 0.16366263992831367, 0.162323547468621, 0.1608942953637428, 0.15943581359292952, 0.1579859003760833, 0.15657249101604553, 0.15507501576515964, 0.15349667502765293, 0.15203611723442828, 0.15038840144980728, 0.14889234779817853, 0.14726027175019704, 0.14567050400932402, 0.14402603919542764, 0.14236709871800027, 0.14078182930503533, 0.13900331712570796, 0.13738431476792554, 0.1356076686203306, 0.13386730177371453, 0.13219776099981775, 0.1304424707084515, 0.12862603898431194, 0.12681227118459304, 0.125051426189225, 0.12329704114548105, 0.12144621283295824, 0.11965982089232083, 0.11778647254137173, 0.11591354265442465, 0.11416154675498097, 0.112329503173932, 0.11042603800388881, 0.10861653303220258, 0.10676006097044266, 0.10491638541223529, 0.10305612853684615, 0.10113072374480589, 0.09935535086360758, 0.09751474830843794, 0.09558457768130094, 0.09372056141882787, 0.09196442496840421, 0.09005317011561542, 0.08819972524684262, 0.08639569079864903, 0.08459787085157136, 0.08278920157949449, 0.08096800003946512, 0.07910283014522909, 0.0773139903619055, 0.07555594991824573, 0.07384207224504892, 0.07206599419938843, 0.0703390814061089, 0.06853797989209637, 0.06682857479204453, 0.06519800052724889, 0.06350704011320749, 0.06177939940269146, 0.060199315454487604, 0.0585178224540579, 0.05693961023742751, 0.055286731552945625, 0.05378167929819454, 0.052201610186248366, 0.05060894917072274, 0.04911960047465422, 0.047702527120544666, 0.04617221931544192, 0.044794284855389964, 0.04335022071141178, 0.041940414045921345, 0.04060923043879358, 0.03925780879421973, 0.03799280753512745, 0.03668185498561945, 0.03545092508420693, 0.034189352323309545, 0.03302043961443341, 0.03184223700728505, 0.030748383063254555, 0.029663716896711843, 0.028523533674718996, 0.027472169119552806, 0.02654624218539481, 0.0255699119959961, 0.02456301559203327, 0.023713200208953036, 0.022837652433896467, 0.02202171804504567, 0.021191727187164788, 0.02039272540391949, 0.01965746861348822, 0.019033103630832444, 0.0183496995332772, 0.017697576664505894, 0.0171333431039679, 0.01658708943092662, 0.01608454210328824, 0.015602786477741553, 0.015254100212293458, 0.01476238361201823, 0.014451214070077075, 0.014129702125820699, 0.013787140524919554, 0.013525582579989998, 0.013369271477344161, 0.013231180210883122, 0.013040282756130218, 0.013018003884000984, 0.01292406273964093, 0.012930563798239599, 0.013028176496764955, 0.013061302939114878, 0.013136598524979604, 0.01337987548071515, 0.013476622623438917, 0.013807569353646632, 0.013986419518309623, 0.014314653575175222, 0.014703060083635186, 0.015123528608769204, 0.015581854171496356, 0.016024000444101214, 0.016540614560580535, 0.01706131652364697, 0.017684827415621163, 0.01826370636940874, 0.018955469337778027, 0.019736512859532433, 0.020481628713537512, 0.021299221235155312, 0.02213396711250784, 0.022934050169967083, 0.023911456580612993, 0.024875926226466553, 0.025877367141082536, 0.026862153763601144, 0.02797781626656433, 0.029046932833503732, 0.03018899573755727, 0.031362568799491015, 0.03263277861028283, 0.03390066508310449, 0.03517755206363802, 0.03648491183082999, 0.03790161741660397, 0.03932997329280563, 0.040766344110630785, 0.04221263136746405, 0.04373653884297643, 0.045265197727084, 0.04692611746457251, 0.048560739251020106, 0.050201638983663165, 0.051936391640995026, 0.053619904517949075, 0.05542928957215427, 0.05722009700446, 0.05906274229579469, 0.06092953434764113, 0.06288168980018846, 0.06474243103849399, 0.0667505608204367, 0.06876215108222457, 0.07077343994566167, 0.07286731521494486, 0.07498285125022128, 0.07708518098018921, 0.07931323262202705, 0.08146015279500989, 0.08376839142301797, 0.08603068585363685, 0.08829719310674118, 0.09063609696279416, 0.0929596648931522, 0.09535063959301174, 0.09780404852953167, 0.10024494673316849, 0.10268459314051483, 0.1051925402262261, 0.10770564403228766, 0.1103291804227633, 0.11291256630239101, 0.11549478045790519, 0.11813803630980466, 0.12081761341398088, 0.12357194906430986, 0.1263053144618418, 0.1290703587131465, 0.1318618640579447, 0.13461293367202773, 0.13745597224148354, 0.14034360444013594, 0.14328738607159297, 0.14616617194226464, 0.14914766331893756, 0.15212977082699736, 0.15508976370734456, 0.1581435964218657, 0.16125743261401135, 0.1642674939412396, 0.16739045094008279, 0.17052657796400492, 0.17365311421484705, 0.17684165274409305, 0.18007788265005528, 0.18331171345349548, 0.18651918479065835, 0.18986694970866252, 0.1931909187957783, 0.19648295614640268, 0.1998403997541307, 0.20327296840715542, 0.20668566824258777, 0.21010479124774892, 0.2135835621323675, 0.21706399866728895, 0.22052147965555846, 0.2240467560415877, 0.2276746889130128, 0.23122506782997165, 0.23485118664091634, 0.23840979905791515, 0.2421535752070475, 0.24579994869730087, 0.24946528089739659, 0.2532420811906541, 0.25698213552745663, 0.2607290181221229, 0.2645834407053984, 0.26835450879754297, 0.27218982425190796, 0.27607641961955715, 0.28001847291629217, 0.2839323454607312, 0.28785008267897866, 0.2918037217802891, 0.29585809814485553, 0.29979560307863157, 0.3038958504596356, 0.3079487319046454, 0.31203984667519524, 0.3161341584887088, 0.320272235879866, 0.32439554901665335, 0.3285667677453189, 0.3327530356946323, 0.33701953183756944, 0.34129083240892355, 0.34555749806634367, 0.3498013433335124, 0.35414098362401253, 0.3585284683990477, 0.3628385637505813, 0.3672376113475594, 0.37171863720652853, 0.3761494859762243, 0.38051382553609314, 0.3850139899305267, 0.3895343257885414, 0.3940403338069626, 0.39862567076262445, 0.40314451229387593, 0.40776511988790276, 0.4123305859980852, 0.4169507256059003, 0.42158535156931215, 0.42630061866370583, 0.4309560244287958, 0.43570929933085517, 0.44035581860721246, 0.44515461139555834, 0.4499169382039243, 0.45470791438561786, 0.4595635897386471, 0.46434137406033443, 0.4692379113316203, 0.47401588716576243, 0.47897845635823, 0.48378999841938825, 0.4887468843954292, 0.49362194631347217, 0.4985878926101346, 0.5035325418949257, 0.5085514927907159, 0.5135441894161992, 0.5184934092474306, 0.5235558658004407, 0.5285667271248505, 0.5336248975858223, 0.5386906047091341, 0.543760959596255, 0.5488521055148448, 0.5538764637526041, 0.5590359378636696, 0.5640959713664976, 0.5692569522514389, 0.5744104704017047, 0.5794934614895185, 0.5846294550915243, 0.5898088964137236, 0.5949494726067257, 0.6001232488187254, 0.6052547374143051, 0.6104073962152159, 0.615582888739046, 0.6207854649820839, 0.6259440776690646, 0.6310848443416385, 0.6362853968580174, 0.6414511869932074, 0.6466797514143094, 0.6517898548455164, 0.6570098415022574, 0.6621552230563802, 0.6673270472842525, 0.6724117294985152, 0.6776162790706436, 0.6827410444585845, 0.6878648787288515, 0.6929502143219146, 0.698025570988656, 0.7031192093014719, 0.7082213425344259, 0.7132630763935638, 0.7183429132071132, 0.7234401602270188, 0.7284502730205016, 0.7334129548886004, 0.7383944013486354, 0.7433402342719573, 0.748297208757865, 0.7532559083709286, 0.7581278863455679, 0.7629723274379008, 0.7678266385471834, 0.7726523645695448, 0.7774583043214961, 0.7822472682989017, 0.7869182204867126, 0.7916649521199017, 0.796360896078758, 0.8009016637744315, 0.8055819378024187, 0.8101014684652246, 0.8146085459274691, 0.8191148126446979, 0.8236051026196203, 0.8279625672564382, 0.8323724242332025, 0.8366746357724826, 0.8409166286330407, 0.845235135641966, 0.8493338777506168, 0.8535007471438413, 0.8576069921132731, 0.8616950654123392, 0.8656024751253634, 0.8695785992602206, 0.8734649386000799, 0.8772994020626163, 0.8810112063683633, 0.8847011294053126, 0.8883978282441239, 0.8919694089092881, 0.8954539327850664, 0.8990164988048641, 0.9023758163626276, 0.9057499330020693, 0.9089092643929363, 0.9122217520135678, 0.915314638804911, 0.9184090592597305, 0.9213614181985906, 0.9243198290484717, 0.9271397736025826, 0.9299688497950731, 0.9326258402197857, 0.9352277392851029, 0.937801096022591, 0.9402694137010956, 0.9426548255603976, 0.944977989725517, 0.9471930598604242, 0.9493395476422303, 0.9513730753082618, 0.9534061002047659, 0.9553069501928817, 0.9571098779928665, 0.9588124605322863, 0.9603742908706038, 0.9620068466799025, 0.9634293802732986, 0.9648009607460489, 0.9660604619871498, 0.967291334477262, 0.9684029660912082, 0.9693468902380918, 0.9703084819874346, 0.9710742579981628, 0.971809481138885, 0.9723894722258757, 0.9729420923332162, 0.9733433192610728, 0.9737147647385882, 0.973880096575334, 0.9740284092849477, 0.9741298001299392, 0.9740703292000316, 0.9737844829201373, 0.9735805649208279, 0.9732183771696125, 0.972729334771476, 0.9722226162338908, 0.9715168374812965, 0.9707467453720321, 0.9698980016645745, 0.9689664682043125, 0.9678834957893415, 0.966657183829171, 0.9654212440909342, 0.9640514779270416, 0.9625535992815076, 0.9609256208612591, 0.9592825978257842, 0.9574916140375382, 0.9555694597864334, 0.9536352408890931, 0.9515584592901228, 0.9493864990571759, 0.9470392097969237, 0.944703789205769, 0.9422179489783296, 0.9396221276237541, 0.9369228467255502, 0.9341678503801873, 0.931315000386476, 0.9283245025562441, 0.9252407831784081, 0.9220965124737679, 0.9188260791052063, 0.9154679035261777, 0.9120120943944893, 0.90851633208027, 0.9048647857118571, 0.9011376261865706, 0.8972683240509313, 0.8934056274374513, 0.8894406258438712, 0.8853396788608117, 0.8811899141985509, 0.876883118083709, 0.8725785082740349, 0.868136770144869, 0.8636316885474871, 0.8590575814897973, 0.8544386320896249, 0.8496623278994228, 0.8448866275868084, 0.8399934049147525, 0.8350417127898, 0.8299074545419316, 0.8247811818849802, 0.8196095159399798, 0.8143723273843894, 0.8090897845979904, 0.8036256136909758, 0.7981578107238977, 0.7927044760250679, 0.7871305342011143, 0.7814486252918528, 0.7757269433021958, 0.7700469501462247, 0.7642095364133269, 0.75835248117305, 0.7524547807127271, 0.7464252722912544, 0.7403877147536418, 0.7344224690413489, 0.7282335703666336, 0.7221543097725615, 0.7158942753955412, 0.709717178093888, 0.7034382566838725, 0.6971354297948431, 0.6907238537510747, 0.684445882784163, 0.6779919202253748, 0.6715364771124259, 0.6651267111199598, 0.6586481374062206, 0.6521004585715088, 0.6455693770224031, 0.6390374242973177, 0.6325734078561449, 0.6259120194049669, 0.6193461809995422, 0.6127079948327722, 0.6061872741815388, 0.5995317426509505, 0.5928490823509613, 0.5863043192218126, 0.5796400237613417, 0.5729951777933582, 0.5664092893953333, 0.5597373166038165, 0.5531425043677978, 0.5465827371567682, 0.5400216718886461, 0.5334077691906126, 0.5268786428352416, 0.520257589801863, 0.5137454367519765, 0.5072531709366883, 0.5008267118347437, 0.4943650790139335, 0.4879365095510107, 0.4814749681041503, 0.4751588767275756, 0.4687988691267168, 0.462506282186207, 0.45621553184065744, 0.44998623339273, 0.4438516669080329, 0.4376663468469759, 0.4315637047045513, 0.42543903205384065, 0.41945696742705035, 0.4135431730908583, 0.40759404387149273, 0.40168174155307823, 0.3959276078350848, 0.3902001753680826, 0.3844913291493749, 0.37885935105359236, 0.37326671835302433, 0.36768973555584367, 0.3623168219588741, 0.3569207243836197, 0.3515983851812721, 0.34628187754013734, 0.3411361580728117, 0.33592937830001196, 0.33098735881819946, 0.325944004644035, 0.32104796556236237, 0.31627445920462277, 0.31144547668631106, 0.3068448387112221, 0.30219469052765374, 0.297698865918705, 0.29322084365733053, 0.28886929312915066, 0.2846449332980669, 0.28044995455080335, 0.27638591097746984, 0.27230636418917864, 0.26835989044593045, 0.26458054742485093, 0.26081939630105927, 0.2570650558677236, 0.25356206744009696, 0.2500623009023217, 0.24657195781250896, 0.24330552304762607, 0.24010527500517062, 0.23701867216937453, 0.23391321578971755, 0.23099705647376226, 0.22812719173614102, 0.22537195164327506, 0.2227798753949639, 0.2201820074313299, 0.21769638411976713, 0.2153328755034291, 0.21299926867617394, 0.21085172571340685, 0.20881080132514088, 0.206777506314656, 0.20490645469516722, 0.20306423192277864, 0.20128756263097494, 0.1996837059429283, 0.198183447076132, 0.19676917130879681, 0.1953670084798584, 0.1941396367736302, 0.19301612714385943, 0.1918808535856304, 0.1909503342718214, 0.190083175507753, 0.18926840823026328, 0.18856504037379002, 0.18801482623521915, 0.18745455885569107, 0.18697277542582796, 0.18670314206894975, 0.1863539477502473, 0.18620418608088352, 0.1861647293979794, 0.18609218497205815, 0.1861487234241965, 0.18636181063599375, 0.1865753149390876, 0.18683005295408994, 0.1872563959421782, 0.18771653841442396, 0.1883231941267539, 0.1888667097221929, 0.18962617233094997, 0.19034026605101323, 0.19119949346376247, 0.192186545993956, 0.19313795943329062, 0.19412884896290886, 0.1953009128983222, 0.19643461332705317, 0.19774884727484002, 0.19900531442570063, 0.20037836555134558, 0.20185884809389498, 0.20329199583509866, 0.2048106694170649, 0.20639116687925071, 0.20804523134049716, 0.2097547864655971, 0.21155056173794595, 0.2133109319181813, 0.21520203671146762, 0.2170981551603864, 0.21903267569996657, 0.2209483205860383, 0.22295489761320295, 0.22509378090946397, 0.22718579589421362, 0.229260653303397, 0.23144958211273173, 0.23365861179761924, 0.23580367837561553, 0.23803235750545845, 0.2403989131698844, 0.24267072090949957, 0.24498349754954044, 0.24729454132586848, 0.24963761106468121, 0.25201627662236564, 0.2544515090321014, 0.25676178446920983, 0.2592390559875848, 0.26167441463735275, 0.2641042958082154, 0.2664973610909089, 0.26896462777745833, 0.27141258510641464, 0.27384916517143093, 0.2762473893922291, 0.27876569752439045, 0.28113536446595383, 0.2835304092490066, 0.2860218377298012, 0.2884060733115194, 0.29078139426794214, 0.2931627516854531, 0.2955028626651781, 0.29788110170727616, 0.30021943459945183, 0.302473992833271, 0.3047953097028206, 0.3070481971498318, 0.3093227404251052, 0.3114719506456267, 0.31371439106570725, 0.3158139651921628, 0.31794713876143876, 0.3200374101635362, 0.3221132430394492, 0.3241283350679295, 0.32612306175361483, 0.32799024281428263, 0.3298960197562909, 0.3318086209212923, 0.3335568198608106, 0.33539125956554505, 0.3371160535648129, 0.3387133662896577, 0.340390346467131, 0.34193094188029205, 0.34346452546815004, 0.34493226594605614, 0.34634789128318316, 0.34774755907017085, 0.3490378877575586, 0.35033557746066907, 0.351535451870774, 0.35269886098828834, 0.35373412110944236, 0.3547363129751119, 0.35573265835973666, 0.35662980455270205, 0.35750261302977177, 0.3582465376433388, 0.3589908552734497, 0.35963141814016464, 0.3601396420866536, 0.3607353216257087, 0.3611114485014992, 0.3615181877541577, 0.3618253262384379, 0.36209821179313256, 0.36231263418716825, 0.3624216696172989, 0.36248858052557853, 0.362429439916315, 0.3623475692132089, 0.3622025785791128, 0.3619962332900185, 0.36171273499378903, 0.3613116057126672, 0.3608716058837338, 0.36031351963385344, 0.3598048927027491, 0.359095347590431, 0.3584197508174294, 0.35757181647020575, 0.35672288613433767, 0.35582080026735063, 0.35479777878754726, 0.35374628393602203, 0.3526309372696185, 0.3514413047543046, 0.350109749153427, 0.34883642249774194, 0.3473914928432652, 0.3459420325449843, 0.3444263649384509, 0.34277886710350197, 0.34110035086526796, 0.33939155529095444, 0.3376107521902513, 0.3357830387987649, 0.33380768281581036, 0.33183083994967244, 0.329764837798848, 0.3276991028298606, 0.3255457610056495, 0.32325286958774496, 0.32097691632432335, 0.31864170328996094, 0.31630953256805255, 0.3138829163644261, 0.31131344297372576, 0.3087780749037108, 0.30619351715146115, 0.3035303690979211, 0.300823438873022, 0.29809993095539483, 0.2953450816701471, 0.2924932310162393, 0.28958342422316663, 0.2866174088242431, 0.2836574993872677, 0.28064094036792875, 0.2775914234094654, 0.27444911165019553, 0.2713966745135431, 0.26814504611721807, 0.26501597551852585, 0.26175069931136685, 0.2584757279184087, 0.255246164945581, 0.2518836248609338, 0.24857962191066657, 0.24518196847326004, 0.24172614044544327, 0.23836219646714346, 0.23489464822193104, 0.231384714298776, 0.22791725569683544, 0.2244347577433313, 0.22089178952439673, 0.21741289062589597, 0.21388971002267723, 0.21025322609726455, 0.20671574695726733, 0.20317368445596357, 0.19951829017487463, 0.19594143447612603, 0.19234514640731792, 0.1887542684572414, 0.1852384841330249, 0.18157753442085445, 0.17797828642004046, 0.17444293198279143, 0.17085186418992446, 0.16721044028401622, 0.16366982942751918, 0.16013362921023572, 0.15655303384422542, 0.1530776532823612, 0.1495428065329544, 0.14601343320541915, 0.14250370333133972, 0.13897614709987904, 0.13556079551087652, 0.13209880663011453, 0.1287202485133778, 0.1253655836978372, 0.12192996254342832, 0.11860503762281557, 0.11529387812052304, 0.11200931885805954, 0.10878000279572068, 0.10552620270745673, 0.10237040657640925, 0.09923973379367107, 0.09611441932991484, 0.09295479723002721, 0.08989024756485582, 0.08690255691521884, 0.08395784340753054, 0.08096568927551101, 0.07809500897550041, 0.07526027259228349, 0.07237919327717655, 0.06966388907108835, 0.0669132295589699, 0.06423310830809838, 0.061591810230775396, 0.05905687115971965, 0.056518568616830495, 0.05400135619695373, 0.05163211743112566, 0.04916589923321258, 0.04683923667946151, 0.04463402203721274, 0.042312541087600054, 0.04019213568719339, 0.03807344506230617, 0.03596577505147256, 0.03394856050536196, 0.03205293470731712, 0.030079892412400843, 0.028241278569357854, 0.026500264899637197, 0.02471667691815464, 0.02307382925531741, 0.02145232684006652, 0.019841693205655105, 0.018431820910881518, 0.016936477336386153, 0.01558839190770106, 0.014234346181489301, 0.012998295477308816, 0.01175743980883488, 0.010582282515987354, 0.00956730834014297, 0.008487524140321782, 0.00754981776627842, 0.006638020166986795, 0.005776246043003581, 0.005040926423477098, 0.004275671907201799, 0.003586886476784689, 0.002934518960519512, 0.002406584233929454, 0.0019398686832517644, 0.0014851211226039687, 0.001110340697547165, 0.0007859676975396886, 0.0005411309758134312, 0.0002819286497625497, 0.00016402347376965587, 0.0, 5.111354666933771e-05, 7.019668104613076e-05, 7.833899712029499e-05, 0.00023227506876361467, 0.00042339535302406974, 0.0006072229765330496, 0.0009246122606257087, 0.0012462855794166958, 0.001621320291498346, 0.0020542169952524293, 0.00256295026431176, 0.0030384393066319824, 0.0036538445784619006, 0.004326147681935374, 0.004959018838281794, 0.005669124988655134, 0.006465443101104276, 0.0072801219435890034, 0.00819327198832506, 0.009069998774762212, 0.009981936093992592, 0.010975629420529409, 0.012067579805915307, 0.0131191354058103, 0.014190533124508542, 0.015357242658321288, 0.016503811465671942, 0.017758763823635892, 0.019049338387990666, 0.02030156394359812, 0.021607594080262076, 0.022986055475031297, 0.024375865391332248, 0.025815769488379253, 0.027227990111602332, 0.028687815788078084, 0.030314043409016243, 0.03183259118148865, 0.033362967585708815, 0.034929194104361114, 0.0365502041211415, 0.03824145306529496, 0.039916084385721626, 0.04151654172867385, 0.04328218993530325, 0.0450163007943895, 0.04669487167765613, 0.04848362746548883, 0.05027675555769942, 0.05208761093829409, 0.05381427068666789, 0.055638776159232683, 0.05753462203045251, 0.059380166245731024, 0.06123410271465588, 0.06308061590973285, 0.06494454389965855, 0.06682316903149021, 0.06874841355991372, 0.0706740374496757, 0.0725976675674025, 0.07444872277773042, 0.07644337187963236, 0.07827820559043888, 0.08019774392787661, 0.08216417261185094, 0.08406706499171461, 0.08607213996225548, 0.08796344037624686, 0.08985199647013303, 0.09175036899083787, 0.09367265369959536, 0.09559362148349518, 0.09751685895796226, 0.09943612646624637, 0.10136625090547605, 0.10330255616068265, 0.10516501874112477, 0.10701863316248382, 0.10896822191100977, 0.11084692198279877, 0.11265195391262572, 0.11456600324631402, 0.11639591383420113, 0.11826247814926924, 0.12007984881336047, 0.1219373182396547, 0.12366621538542359, 0.12553822616493632, 0.12731344172834258, 0.1290637553620452, 0.13088891308134848, 0.13267030505595268, 0.13432412226994553, 0.13608135473435462, 0.1378162867512344, 0.1395540800425915, 0.14124931784826253, 0.14296793957322101, 0.14466751834755112, 0.14631361904515158, 0.14795502354508464, 0.14957975663685388, 0.151212896447916, 0.15283839885223421, 0.15443240566143138, 0.1560544425195462, 0.15759551773201946, 0.15915055100246878, 0.16076094958498588, 0.16233645794633475, 0.163826838883634, 0.16533487543071707, 0.16687090480227362, 0.16838005136725945, 0.1698630285601564, 0.17140244787568618, 0.17289076084103427, 0.17437454857623605, 0.17581769808627068, 0.17725251384476354, 0.17874838786694333, 0.18017489264108047, 0.18164231506116799, 0.18302671820254104, 0.18445263392358996, 0.18589272908599924, 0.18738135628698044, 0.18877729290201917, 0.19013857930411107, 0.19157634330286377, 0.19304485817759548, 0.19440578607950965, 0.19581792486318625, 0.1972534131426566, 0.1986697443021989, 0.20014158858062042, 0.20159333161342724, 0.20302009395415285, 0.20442762950656054, 0.20583528392923228, 0.20734736850964594, 0.20877301600158804, 0.21029345284541356, 0.21175131038531314, 0.2132045757075138, 0.21472961489388304, 0.21629465773775786, 0.21775525816429298, 0.21934129563541915, 0.22087323392028116, 0.22237639196880465, 0.2239847379726826, 0.22561076580484773, 0.2272980695778753, 0.22886348934127837, 0.23055442962177394, 0.23224709563600157, 0.23395988064819087, 0.23571192197216836, 0.23745405410235343, 0.23926788796892676, 0.2410868733363513, 0.24294081934643627, 0.24479861222280114, 0.24666884681602214, 0.2486041268607001, 0.250487072543983, 0.2525299259612966, 0.2544929329133865, 0.2565556934367806, 0.25867532464142584, 0.26079091470228094, 0.26296701978294384, 0.2651915652414266, 0.26743973408070487, 0.2696716397298182, 0.27195342692816143, 0.27433134480501187, 0.2767835973382197, 0.2792037769534704, 0.281626606483797, 0.28422474883807913, 0.2867207582091705, 0.2894029614208758, 0.2919980848430554, 0.29476656941655327, 0.29745490423712645, 0.3003214046274773, 0.303092034511311, 0.3060049578828918, 0.30898941829776017, 0.3119316414829078, 0.31495486896757485, 0.31809142539043195, 0.3212008744838842, 0.32442585515404915, 0.3276559677879355, 0.3309881541708644, 0.33434163066077044, 0.3377738944361628, 0.3412174430224281, 0.34472630521565006, 0.34828009456324777, 0.35189669241106736, 0.35559718045144495, 0.35925290233955837, 0.36302011240417614, 0.36691825827175967, 0.3707670588504662, 0.37479035189611243, 0.37877324140547447, 0.3827459058759371, 0.3868667743510534, 0.3910770220196978, 0.3952484674579846, 0.3995758758805783, 0.40390416405974194, 0.40830441660455585, 0.41266952274933993, 0.4172165338251237, 0.42171314265194915, 0.4263264974094852, 0.43099599146374046, 0.43561201922107784, 0.4403724472325208, 0.4451877977475439, 0.4500809528643095, 0.45493890754983185, 0.4598243272142214, 0.46490412142757936, 0.46994458223730723, 0.4749450091559979, 0.48007249667281776, 0.4853078814382134, 0.49052987313710433, 0.4957751935004519, 0.5011150462964358, 0.5064056281340494, 0.5118755413343913, 0.5173036684915295, 0.5227306214998434, 0.528304348281239, 0.5338293596343744, 0.5393498118031697, 0.545015282602656, 0.5506704587723383, 0.556349771803927, 0.5620462556593563, 0.5677851190111591, 0.5735192270249008, 0.5793160258178803, 0.5851315236674197, 0.5910450309671474, 0.5968743857571492, 0.6027484412179828, 0.6086719098045574, 0.6145952288182508, 0.6206092090392522, 0.6265696045680712, 0.632534657845039, 0.6385243097487238, 0.6444610373973952, 0.650501180548936, 0.656483850236062, 0.6625133150140688, 0.6685353919774656, 0.6745676473973707, 0.6805882736698123, 0.6866560962868217, 0.6926344532977964, 0.6987014631670531, 0.7047051738899771, 0.7107046915344428, 0.7166645178210462, 0.7226194825502624, 0.7286268132902147, 0.7345843484787062, 0.7405147712164618, 0.7464058822218582, 0.7523489588800122, 0.7581421989537726, 0.764067989881035, 0.769847045076061, 0.7756571151565689, 0.7814155043154069, 0.7871179139142517, 0.792823239244535, 0.7984226264904223, 0.8040413168845492, 0.8095535911422626, 0.815130755938632, 0.820612070845131, 0.8261014083740909, 0.8313964840009688, 0.8368034353456072, 0.842071267322751, 0.8472376210093208, 0.85249118554987, 0.8575208636178155, 0.8626058252708272, 0.8676229087970743, 0.8724897726656077, 0.8774064952243918, 0.8821094648920241, 0.8869158429945654, 0.8914605348279417, 0.8960932377335799, 0.9005498993874517, 0.9049839226422052, 0.9093627733537489, 0.913607982403893, 0.9177213968340499, 0.9218486237807839, 0.9258458857416443, 0.9296947400643886, 0.9335505756196161, 0.93733907584378, 0.9409068223843429, 0.9444837956577593, 0.9479854131035514, 0.9512931384636543, 0.9545706515358586, 0.9576766910085758, 0.9607200344014118, 0.9636679051915176, 0.9665105550171288, 0.9692691191309658, 0.9719077525090581, 0.9743405578546198, 0.9767548099805471, 0.9790390756432754, 0.9812311655891135, 0.9833398059514491, 0.9852790913864233, 0.9871048669196769, 0.9887884575832481, 0.9904367556841231, 0.9918591711834099, 0.9932729710558622, 0.9945150199175512, 0.9955600755205702, 0.9965775358617249, 0.997467153442194, 0.99817304717474, 0.9988101415211498, 0.9992631900529697, 0.9996857417633132, 0.9998773302155138, 1.0, 0.9999722112634318, 0.9997766952079343, 0.999526002588129, 0.9991365468738326, 0.9986241357359021, 0.9979234730051711, 0.9971264351181618, 0.9962545357306193, 0.995179314816748, 0.9939558445476938, 0.9926649711979967, 0.991173818167432, 0.9896208995768581, 0.9879454681498963, 0.9860346022021544, 0.9840741913189655, 0.9819998608024385, 0.9798030896252867, 0.9774418736095287, 0.9749530842325242, 0.9722475166696112, 0.969585525837534, 0.966650093572584, 0.9636646108637968, 0.9605372372325531, 0.9573391213328435, 0.9539470098807292, 0.9504665572679373, 0.9468639634867303, 0.9430687664424858, 0.9392424284013093, 0.9352405586483258, 0.9311727056423147, 0.9269665539433068, 0.9226683976360742, 0.918150866299383, 0.9136197350515048, 0.9089668746117409, 0.9041110977160598, 0.8991983057321656, 0.8942299763878142, 0.8890679557668131, 0.8839049968273393, 0.8785093102277403, 0.8730974853993352, 0.8675866188831107, 0.861884140538284, 0.8562255338586549, 0.8503795540783287, 0.8444339134629222, 0.8384139854721819, 0.8323643545724264, 0.8260857193357418, 0.8198121907695541, 0.8134191972043783, 0.8069889343510974, 0.8004155054993136, 0.7938312662822964, 0.7870882360845871, 0.7803205369134919, 0.773432823180292, 0.7664606307839561, 0.759505412589107, 0.7523961811724786, 0.7453077612487033, 0.7381213166887421, 0.7308121029170535, 0.7235368500183527, 0.7160815564723121, 0.7086826565724837, 0.701194661081465, 0.693716465790662, 0.6860966798563385, 0.6783990866738525, 0.6707186697208752, 0.6630570767210895, 0.6552390611209942, 0.6474949599127189, 0.6396683484029929, 0.6318179675897336, 0.6239042223483315, 0.6159544357421787, 0.6080008717659808, 0.5999937379564549, 0.5920260614085722, 0.5840980142552527, 0.5759978359611851, 0.5680147377953636, 0.5599373512105663, 0.5518713703830332, 0.5438816072649685, 0.5358134913841969, 0.5276981994391933, 0.5196254122352295, 0.5115905049691966, 0.5035522049177428, 0.4954807980355469, 0.48750827643294253, 0.4793997754542392, 0.47141457780202994, 0.4634661493568814, 0.45545475287000226, 0.44757490646454423, 0.43964364454647925, 0.4317400794785669, 0.42388959074840427, 0.4160202465591162, 0.40822235663724177, 0.400426941849839, 0.3927391220024713, 0.3851176700955129, 0.3774823667906503, 0.3698825279031241, 0.36228410133917716, 0.354769138652316, 0.34738761704768323, 0.33996535225241714, 0.3326294518819241, 0.32534044251921446, 0.3181111214219222, 0.3109041739407511, 0.3038380560450186, 0.29677212047407137, 0.28978819079508694, 0.28294969682471843, 0.27608415259255403, 0.26924689441060906, 0.2625713091466157, 0.2559730500102324, 0.24947026498279679, 0.2429449397255475, 0.23658855007437501, 0.23027010742571113, 0.22401656205748935, 0.21788073315117704, 0.21184572214404623, 0.205840439660496, 0.19993563784471347, 0.19410627328505817, 0.1884582482828868, 0.18273832310759242, 0.17726166528826953, 0.17181905666892758, 0.16641260690417703, 0.16125791211543228, 0.15601668034568378, 0.15101708613636178, 0.14600879108644763, 0.14111684011093606, 0.13637355530859271, 0.13169580306373427, 0.12709073037099755, 0.12264829550934757, 0.11829281099738864, 0.11400888103935912, 0.1098215941123567, 0.10574940144772717, 0.10176099772810643, 0.09786246052835873, 0.09411136070167275, 0.09047959435402389, 0.08690538503624969, 0.0834144939569348, 0.08012556957591452, 0.07681140111365668, 0.07372750145299789, 0.07061259308952007, 0.06766627804586199, 0.06485866680757249, 0.06210344421924441, 0.05945746169164742, 0.05692373614871078, 0.05449681040155669, 0.052146326061554095, 0.049969682336865155, 0.047759861871417515, 0.045738311316263824, 0.04383048873935768, 0.04192719699310057, 0.040238844719815384, 0.03855776177286907, 0.036947216952749, 0.03552738285521485, 0.034193301599221876, 0.03286381507298293, 0.031719998921712456, 0.030648978620852172, 0.029615598369909252, 0.028712222808926775, 0.027879481595823447, 0.02716346717639857, 0.026492868482811634, 0.025950174630061676, 0.025482032607451823, 0.02506570620142419, 0.024783455165470713, 0.024526656443202375, 0.024383747241633835, 0.024236481201980433, 0.02426901054969634, 0.024299352298663618, 0.0244125687045767, 0.024618600234271548, 0.024896672770245598, 0.025233919056432092, 0.02573805716709403, 0.026190386961731094, 0.026716012762823607, 0.027271305411319165, 0.027943087591652583, 0.02869600776231513, 0.029480989293931493, 0.030241816874551384, 0.031179373661468317, 0.03206036938308024, 0.0330825653381757, 0.03406444707413069, 0.03521716588740925, 0.03625731196231255, 0.037392063524456974, 0.038671351854913036, 0.03984682682430468, 0.04111201297009064, 0.042466639086703874, 0.04375297433226234, 0.045128660034318736, 0.04656592790818506, 0.04794694157131701, 0.04947633823405387, 0.050894662695087085, 0.05236161059505022, 0.05390773900320355, 0.055470726280908586, 0.05702528493262264, 0.05852567192815234, 0.06009819194717323, 0.061713476385076356, 0.06328996910820339, 0.06485179660253056, 0.06646403161633459, 0.06809278853126863, 0.06968400035661965, 0.07128396845735561, 0.07283135302212784, 0.07449188851452868, 0.07597447065606307, 0.07763958343750259, 0.07920029758419792, 0.08072175032433675, 0.08227742905860522, 0.08379706714501772, 0.08532578742049444, 0.0867418558592024, 0.0882827587929991, 0.08965717733373528, 0.09106262484901564, 0.0924539605115408, 0.09386181633850671, 0.09517183764287569, 0.09645314132928073, 0.09775400123562807, 0.09889718553155007