0.045325472994820794, 0.044679962573072864, 0.04410183672407626, 0.04355469398673916, 0.043011511819520426, 0.04248323668472337, 0.042003332953638985, 0.041493941042690045, 0.04098265746515951, 0.04049541473941385, 0.040015441650444586, 0.03958548487266613, 0.039111476120845104, 0.03855526301896825, 0.038105768270904526, 0.03765669944766731, 0.03724066882210101, 0.0367888490284879, 0.03630416245584591, 0.03586255541577415, 0.03542187602039943, 0.0350507065800221, 0.03460450747747223, 0.03417567779973014, 0.033739932469917064, 0.03331064744852409, 0.03279358853850254, 0.03238890168879854, 0.032017739026737296, 0.03161188835467235, 0.031210496725505087, 0.03078316984372307, 0.030395910665248358, 0.03007920550545474, 0.02969218504737997, 0.029314134828507334, 0.028910980371272828, 0.02855523648037286, 0.028209898774910185, 0.02786841388777492, 0.02753495209878942, 0.02715461663093993, 0.026845030669394695, 0.026585021355939133, 0.02628209634894223, 0.025988709533894892, 0.025680732959088837, 0.02541014611815607, 0.025244120104219957, 0.0249794100115352, 0.02472961786086912, 0.02441477243646519, 0.024203623904413683, 0.0239612401130778, 0.02377429954819903, 0.023595183994419622, 0.023541425372875027, 0.023365130579980808, 0.023154733663171626, 0.023016792606638876, 0.022891443068043672, 0.022811254641037212, 0.02270731717352154, 0.022533745271003314, 0.02246988702455516, 0.022415849004046792, 0.022398231165897464, 0.02236239063393307, 0.022373656599541394, 0.02235983369399304, 0.022361502702414725, 0.022338076297732615, 0.02237585528291908, 0.022496686924305554, 0.02255254812078954, 0.02262633989979439, 0.02261397168251487, 0.0227361734581573, 0.022886222308065845, 0.023030370006408802, 0.023188511467076407, 0.023426082136721236, 0.023605500936897627, 0.023779639555331633, 0.02400015942020682, 0.024238197808498604, 0.024440350883697805, 0.024720679595705307, 0.025006275326651343, 0.025318451942002735, 0.02564624904782315, 0.02600324077066006, 0.026362354820168105, 0.026794624888029264, 0.02718305113935768, 0.027593217038648248, 0.028020111888166506, 0.02847398399597077, 0.028890569910059637, 0.029394113968514966, 0.029915532171572622, 0.03044234213221334, 0.031002615152092364, 0.031586286705681206, 0.03218349301872673, 0.03280043747891917, 0.0334715699157541, 0.03412474324142, 0.03488659179033727, 0.03557419379283049, 0.03628929031119943, 0.036951680165057205, 0.037729906018186, 0.03849371705543532, 0.03931926646952789, 0.04016453749774546, 0.04113227028651656, 0.04200546498535657, 0.04290219345151087, 0.04382889307136886, 0.04478132557856066, 0.045754307307208884, 0.046757927384541924, 0.04779432169325663, 0.048846089552875976, 0.04992271329987201, 0.050934767903529944, 0.052071954811959746, 0.05331787643650218, 0.0544833441724942, 0.05567449303421539, 0.05686351579303465, 0.05810890074549822, 0.059303195289799604, 0.06060524646432953, 0.061926834567563406, 0.0632605069084944, 0.0646240983616463, 0.06609940519747037, 0.06749364316560136, 0.06891472017599912, 0.07032168319051163, 0.07180047140102983, 0.07331414187442215, 0.07483856457758327, 0.07638718490298255, 0.07799236405825205, 0.07958496701908808, 0.0811237368867941, 0.0827774113987666, 0.08445158433308221, 0.0862114854285551, 0.08791930482525946, 0.08954326281760831, 0.09131422248677512, 0.0931032212555864, 0.09500167964332133, 0.09681675188719026, 0.09862705572306298, 0.10049425464435191, 0.10238335738368624, 0.10430228971082649, 0.1062335912591305, 0.10817041201020691, 0.11014697269869848, 0.1121437828524632, 0.1141769041361476, 0.11621163371976823, 0.11821988898566411, 0.12030140623435712, 0.12240016872445482, 0.12450159258511015, 0.12663671662849907, 0.1288936999122807, 0.13104821185919402, 0.13322497386788426, 0.13541980640784526, 0.1376387427740228, 0.1397716309259864, 0.14204207701044164, 0.1443246270253622, 0.14663895054969525, 0.14894375101473312, 0.15127834649913785, 0.15360806060014948, 0.1559518895446017, 0.1583825119400273, 0.1607442409365643, 0.16309222503092521, 0.16549105671663616, 0.16790334551991148, 0.17026192649455352, 0.172707707979124, 0.17521497385342222, 0.17766979434420072, 0.18013542224594384, 0.18260155163322808, 0.18508833179856485, 0.1875901865248311, 0.19009284207995697, 0.19260350295271528, 0.19507619213674365, 0.19760701969870048, 0.20013846743121846, 0.2026772744567745, 0.20521939220693966, 0.20778082580231105, 0.21032679371778107, 0.21286319973028656, 0.21541718446732147, 0.21794856034648458, 0.2205087026431276, 0.223068398602399, 0.22564200643101873, 0.22819816822419098, 0.23082199208084733, 0.2333680283876709, 0.2359163829086404, 0.23846760535772027, 0.24101722449287116, 0.24352236494572488, 0.24607527419340533, 0.24862322924961214, 0.2512257749742648, 0.2537546900139754, 0.2561847012933923, 0.25871842196106026, 0.26124163971737124, 0.263728233997037, 0.2662332226496451, 0.26883763563859453, 0.27130323843691817, 0.27376231720702926, 0.2761991531193025, 0.278643757237927, 0.2810648727199708, 0.28348927985771716, 0.28590082255598187, 0.28821280757385787, 0.2906075014121172, 0.29302797486639065, 0.2953776420863863, 0.29771022270935993, 0.29996520390761866, 0.30226981187613416, 0.30453630672428605, 0.3067991805222853, 0.309039145560005, 0.31124805884164336, 0.3134430762095138, 0.31568098064899724, 0.3178201049227377, 0.31993892540374624, 0.32190678810321194, 0.3239990184505227, 0.32611972781047016, 0.32814495996581017, 0.3301439960995792, 0.33205964142874594, 0.33401227806773126, 0.33590344504668745, 0.33779871023760033, 0.3396615209200908, 0.34159585251024954, 0.34338082407833104, 0.34507428439614535, 0.3468133167457273, 0.34852021579032716, 0.3501605305149432, 0.351806348776264, 0.35347051243456934, 0.35503896933854623, 0.35657485653015775, 0.3579655059199277, 0.35944840769656344, 0.3609797548357493, 0.3623700004804328, 0.3637248990847712, 0.364983783927849, 0.3662737613193669, 0.36758166623464256, 0.3687831699440311, 0.36994725071517903, 0.3710132282307349, 0.37210820603379363, 0.3731719562507969, 0.37418025608051797, 0.3751464437173131, 0.37607030069271313, 0.37695159499258674, 0.37768620607365627, 0.3784947729998924, 0.3792541975221786, 0.3800462091782557, 0.38069870787305854, 0.3812139014210896, 0.3817916137172476, 0.38232017044260974, 0.3828827667444067, 0.38330371568772764, 0.38356755212197213, 0.3839154068909078, 0.3842124813702864, 0.38447550560871985, 0.3846703773559639, 0.38485233372027366, 0.38494558145063745, 0.38499244308166686, 0.3849439989908901, 0.38490357021372784, 0.38487179259583865, 0.3847246029261111, 0.3845312492484304, 0.38427514878512936, 0.38399049555320036, 0.38366267581515967, 0.38328120702060137, 0.38285173221338076, 0.38239358815605484, 0.3818652371416096, 0.38133668043542057, 0.3807075893229166, 0.38003342764931525, 0.37928930910248704, 0.3785265470083721, 0.3777029836541587, 0.37684611381844746, 0.3759405058625908, 0.37494727073707307, 0.373949328919386, 0.37296889204834394, 0.37186144144990396, 0.3707080123584111, 0.3695425452972581, 0.3682924703432269, 0.367024023912188, 0.3656817153595419, 0.3642960637554502, 0.3628083079147268, 0.3613424584608259, 0.35988606718919847, 0.3583187213031074, 0.35670799585147456, 0.35499216176262127, 0.3533023858745919, 0.3516615661082314, 0.34986669218806843, 0.3480316190789351, 0.3461788999875776, 0.34426013156884844, 0.3423476269239579, 0.3403446305000392, 0.3383048569021671, 0.33614683683103586, 0.3340429425555416, 0.3319441811677692, 0.32975111684852726, 0.3275200718354268, 0.32528379325124895, 0.3229735887337656, 0.3206769202975701, 0.31829040722226015, 0.31587186235672915, 0.3133578869743422, 0.31088309224997684, 0.30848146937674853, 0.3059224687576379, 0.3033353980617704, 0.3006811483443834, 0.29804251699945156, 0.29546602504420194, 0.29275542206231836, 0.2900206410237715, 0.2872501460770279, 0.28446805273948417, 0.28166262065808056, 0.27883066671075113, 0.2759744608210424, 0.2731869302076788, 0.27027182309765874, 0.26729201376892947, 0.26434744035869917, 0.2613824267319898, 0.25841044701368143, 0.2554044437208276, 0.25242745243023973, 0.2493799390520773, 0.24631818003851302, 0.24323596893792615, 0.24014748854711773, 0.23705525818631148, 0.23393915203461238, 0.23081132635802912, 0.22770323189796338, 0.22454995794454108, 0.22140004820138662, 0.218229849998579, 0.21505337334591065, 0.21199289254083814, 0.20879015884761654, 0.20553622866312823, 0.2023447331726671, 0.19915223223922135, 0.1959640736541868, 0.19277046032450607, 0.18967029333253607, 0.18646749151781533, 0.18327216837342164, 0.18002915413330717, 0.17685594876974817, 0.1737086669312655, 0.1705432662201555, 0.16746347397309524, 0.1643043550062262, 0.16115882369094395, 0.15795079555831532, 0.15484280273416212, 0.15188139154777622, 0.14877776637992868, 0.1456942831510416, 0.142567673024165, 0.13953270762760775, 0.1365310480896814, 0.13352908222897264, 0.1305469364172305, 0.12765523086984473, 0.12470641949796582, 0.12168330025032387, 0.11880022025145362, 0.11593862715131573, 0.11319562234343354, 0.11036888140545931, 0.10751125006534483, 0.10475436128923683, 0.1020258244822362, 0.09934946390935605, 0.09667805028447544, 0.09414990449704444, 0.09153121561415423, 0.08895339782132211, 0.08632557329346466, 0.0838411509885454, 0.08140099224885466, 0.07898889315323533, 0.07661549248843054, 0.07436940159395021, 0.07206520432924943, 0.06977017077954914, 0.0675639248066645, 0.06540264055063232, 0.06333570059693538, 0.06126027627869686, 0.0591502815339423, 0.05718554580735912, 0.05526667673634583, 0.053427283202166415, 0.05159944494935164, 0.04991026740225423, 0.04817414869383334, 0.04649550890631349, 0.044775403985441366, 0.043224516406004235, 0.04180064416611016, 0.04034610122702682, 0.03895021511331598, 0.037567932710589474, 0.0362963215943954, 0.03504963418887478, 0.033897745494935905, 0.03280308859906303, 0.03188520592902242, 0.0308931446436486, 0.029972836578707918, 0.02911387143252533, 0.028322022628209192, 0.027582721067819383, 0.026927127649760838, 0.026279686343259567, 0.025764959321527572, 0.02531418288951665, 0.024898964232063198, 0.024582207319980197, 0.02433659167461603, 0.02414924229934426, 0.024028699332236232, 0.023985447993971603, 0.023999473421996986, 0.024159221121891915, 0.024302993974017025, 0.02452148862991867, 0.024770720711534588, 0.025143762165810206, 0.025583842725485407, 0.02610162485711585, 0.026691642899732373, 0.02732824280832262, 0.028066940847629406, 0.028921122387966982, 0.02979805926163564, 0.03074998798449481, 0.031707131485174435, 0.03281791740046126, 0.03400145108434592, 0.035254855950501124, 0.03658055216846713, 0.03808608289263763, 0.039544012630435964, 0.041076452278912406, 0.04269314125041469, 0.044387763622802105, 0.04606571131639254, 0.04792673520796751, 0.04987534292227376, 0.051877406446186304, 0.053952434566304525, 0.05610379134033986, 0.05832464603058053, 0.060588027414757856, 0.06295947368461496, 0.06540244194386886, 0.06802257283644662, 0.07059560189944115, 0.07314729989768437, 0.07588731814120042, 0.0786977430425649, 0.08166785788068104, 0.08460779136409545, 0.08761814387624106, 0.09070840495338044, 0.09387199432678797, 0.09701402649665176, 0.10033396314247237, 0.10380905141542712, 0.1072495414372567, 0.110760998466138, 0.11433938367988503, 0.11799082838517067, 0.12164256970116319, 0.1254388521507674, 0.12929835363726963, 0.13328584325131457, 0.13726304479911108, 0.14125938367760543, 0.14537409091212614, 0.14955065588948777, 0.15377887934756845, 0.15807896843763067, 0.16250216790809732, 0.16691337599976608, 0.17138690888557193, 0.17586649143997685, 0.18046840628330285, 0.18513446520321966, 0.18984682835018293, 0.19461446933737553, 0.19942367669805935, 0.20430130719163833, 0.20927504831102808, 0.21425101082399395, 0.21928028064358404, 0.22428057866750886, 0.229423361962833, 0.23459045613662774, 0.23982628444784548, 0.24510537365150595, 0.2505084572087819, 0.2558624589745176, 0.26120595738475927, 0.266658445091783, 0.27215145293153237, 0.2776955232682363, 0.2832656326157654, 0.28890677438379603, 0.2945488878847654, 0.30022930604500925, 0.30589475314833414, 0.3116543505103457, 0.3174323803803506, 0.3232555691458346, 0.3291076333758498, 0.33492927815352, 0.3408438409968783, 0.3467747729838313, 0.35273535021001884, 0.35871726991844927, 0.36476207310511394, 0.37077927948849176, 0.3767335728031734, 0.3828031982746369, 0.38888709960470663, 0.39504149872721805, 0.4011449110523784, 0.4072523795567864, 0.4133867533816048, 0.4195332715887786, 0.425689065140419, 0.43185631810053504, 0.4379490474396683, 0.44414198571678243, 0.4503359389410842, 0.45660816329707443, 0.4627922458505668, 0.4689746197866201, 0.47516411023969074, 0.48135344197590807, 0.48747947163875127, 0.49367189376121834, 0.49989202778812114, 0.5060629951707686, 0.512226021818753, 0.5183684111435608, 0.5245129823295914, 0.5305556847239474, 0.5366850892478484, 0.5427651439064735, 0.5488574114427883, 0.554926682302976, 0.5610665832628142, 0.5670763141152179, 0.5730437637150723, 0.5790156983861553, 0.5849637134668859, 0.5908150625780052, 0.5967202742328892, 0.6025546062144002, 0.6084001324294381, 0.6142099582785748, 0.6200403153760808, 0.6257697361863968, 0.6314614042547512, 0.6371209454828102, 0.642743238933631, 0.6482393789653658, 0.653794479081229, 0.6593977676007579, 0.6648485056740104, 0.6702573773332245, 0.6754946867250131, 0.6808316525302043, 0.6861574289671621, 0.6913819249490508, 0.6965545901518585, 0.701638834267844, 0.7067096704745236, 0.71168010106179, 0.7166426290539619, 0.7215446903919359, 0.7264101960112672, 0.731186855468137, 0.7359564294483367, 0.7406041706491986, 0.7451925388605846, 0.74966988362802, 0.7541418989037996, 0.7585689185331915, 0.76290524806228, 0.7671749971715819, 0.7713738956268088, 0.7755078353132795, 0.7795719812030288, 0.7835653792456854, 0.7874870894551301, 0.7913361872933411, 0.7951117648931789, 0.7987041847363938, 0.8023438186549803, 0.8059012132715685, 0.8094737942263304, 0.8128544292828157, 0.816083495215178, 0.8193187817186512, 0.8224710607603563, 0.8255838587846202, 0.8285636539808544, 0.8313758817823297, 0.8342027248000713, 0.8369417368210799, 0.839651347117966, 0.8422072423713399, 0.844675160140058, 0.847061374986365, 0.8493614416007798, 0.8515309787508902, 0.8536626367710676, 0.8557365373298006, 0.8576835104653133, 0.8595417816477573, 0.8613092885949876, 0.8629890646943619, 0.8646015179846129, 0.866097969068407, 0.8675049520135224, 0.8687294531659299, 0.869967750982848, 0.8711895637397381, 0.8722261516970604, 0.8731718936860775, 0.8739452806065776, 0.8747185708107801, 0.875390654266492, 0.8759723065525032, 0.8764581483439041, 0.8768550542182488, 0.8771495662326944, 0.8773448119149415, 0.8774513895492204, 0.8774637735889949, 0.8773919669598024, 0.8772155169692621, 0.8769883913561043, 0.8766210250201424, 0.8761635054032079, 0.8755799817009782, 0.8749462990699973, 0.8742688921626803, 0.8734445266618911, 0.872531106573684, 0.8714993622312381, 0.8704114299134559, 0.8692312095377973, 0.8679625172656518, 0.8666038237280976, 0.8651669187334338, 0.8636280938925205, 0.8619444513230416, 0.8602371961926311, 0.8584395894162332, 0.8566093685204026, 0.8546266386948824, 0.8525026544693793, 0.8503586253508805, 0.8481278262000702, 0.8458599017134016, 0.8434522445479006, 0.8410299049533053, 0.8384518956331684, 0.8357974742337435, 0.8329628299768573, 0.8301690238757364, 0.8273843744323122, 0.8244167934515172, 0.8213749357440641, 0.8182153970769858, 0.8150318599663635, 0.8118006573027278, 0.8084640958540138, 0.8050558016649605, 0.8015408563599946, 0.7979960227988521, 0.7944513616186665, 0.7907562063515061, 0.7869962047860519, 0.7830697220343168, 0.7791948882469125, 0.7753489242073007, 0.7713263856241537, 0.7672440300369365, 0.7630912653021165, 0.7588930815113534, 0.754641798144004, 0.750328089449481, 0.7459587776194255, 0.7414829811400178, 0.7370122370286063, 0.7324813789238032, 0.7279023311849215, 0.7232708803549464, 0.7185674874151639, 0.7138385566856477, 0.7091190810967908, 0.7042864740162268, 0.699411459660421, 0.6945097681092127, 0.6895514873170018, 0.6845696765633045, 0.6795343569419728, 0.6744639238260227, 0.6692685210911277, 0.6641425094157042, 0.659096387960991, 0.6538835465674494, 0.6486440162912753, 0.6432682703327474, 0.6379919175588725, 0.6327795546655085, 0.6274329212047388, 0.6220652048952393, 0.6166774584462373, 0.6112707803982137, 0.6058089793465327, 0.6003726141020734, 0.5949187477565022, 0.5893921104506397, 0.5839150278375256, 0.5784802673400623, 0.5729655393454384, 0.5674418361509853, 0.5619527212277197, 0.5564098238214084, 0.5508449389525297, 0.5453005131635859, 0.5397545859188893, 0.5342116700432833, 0.5286661433292313, 0.5230955443068686, 0.5175598225885175, 0.5120276349071731, 0.5064290820632691, 0.5009175214582899, 0.495487883124179, 0.48997652950842, 0.4844775317639062, 0.4789547900125157, 0.47348891987195496, 0.4680451247144575, 0.462607681349156, 0.45718768187687353, 0.4517832737914544, 0.44640272779348417, 0.44097700157289965, 0.4356489483743137, 0.4304337088627951, 0.4251363833867133, 0.41986811862684825, 0.414516213012847, 0.4093231961425611, 0.4041702625897808, 0.39902821859593673, 0.3939161026264361, 0.3888322185906136, 0.38378494555401493, 0.37884976156399036, 0.37386237150068524, 0.368916218395226, 0.36398433950200176, 0.3591260647393237, 0.35426237310514364, 0.3494942744143331, 0.34476701310422764, 0.34016788619649646, 0.33551518304986255, 0.330794927742482, 0.3262560365294567, 0.3217607649397586, 0.31734137541456353, 0.3129336255033058, 0.308563873735244, 0.3042572071285932, 0.30000107700305223, 0.2957704543912585, 0.2916214548547581, 0.2876167329140901, 0.2835605744085323, 0.2795633360822693, 0.2755748489503255, 0.27170228942221747, 0.26791396238054344, 0.2641518382744588, 0.2604491627647839, 0.2567413783872638, 0.2531669076754423, 0.24967530843186425, 0.24621224047029, 0.24280922595738746, 0.23939538577526107, 0.2361230824509425, 0.23300571384264826, 0.22983720240060404, 0.22673361554473564, 0.2236673859039754, 0.22069722154220686, 0.21772236303834988, 0.21488803468011822, 0.21211386016612, 0.20946552340804195, 0.20680563478235273, 0.20411741070781533, 0.2016010098275865, 0.1991450739433724, 0.19682822425095736, 0.1944854006030946, 0.19221898298805, 0.1900080576434218, 0.18786393114423983, 0.18578306362745922, 0.18377206733994259, 0.18185278365137625, 0.17996972645228138, 0.1781533372358413, 0.17628789209195217, 0.17461797405032042, 0.1729825064963245, 0.1714337444240881, 0.16994327305169515, 0.1686219354232327, 0.1672353934582613, 0.16579917831258528, 0.1645576064451659, 0.1633736876382807, 0.16224765250151124, 0.16117963062501311, 0.16016965888664753, 0.15921768909677095, 0.15832359502738125, 0.15750503292014315, 0.15672377400121695, 0.15598437730846695, 0.15532083474628094, 0.15471339734732462, 0.1542249109491695, 0.1537202720067952, 0.15329814447729542, 0.15290567258605492, 0.1525705920255882, 0.15222675400405086, 0.15201103644565092, 0.1519104503882979, 0.15178636183376545, 0.15171493673717884, 0.15167228980189448, 0.15170561534159652, 0.15171066311431078, 0.1518487661681611, 0.15202883087184677, 0.1522522115669832, 0.15251511071016718, 0.15286447723519994, 0.1532031768929703, 0.1535844003119261, 0.1539438761699566, 0.15441523536688617, 0.15505086851914873, 0.15557764351934147, 0.15614665580347056, 0.15674166971657338, 0.15739219366847598, 0.15798207943220824, 0.15871709972483172, 0.15948081723942226, 0.16028413715563083, 0.16110237617546022, 0.16204739439598825, 0.16290792549279187, 0.16380028385593012, 0.16467255399302475, 0.1656301971182851, 0.16664307913241225, 0.1676446114396988, 0.16867025025540522, 0.16960511810687132, 0.1706895819206036, 0.17191305714398472, 0.1730095187318478, 0.17412640243157126, 0.17526226330065747, 0.1764157070840506, 0.17748150760754414, 0.1786792479823806, 0.17988481739400852, 0.18112865454383634, 0.18234471015179426, 0.18353482995905782, 0.18477064892044023, 0.186010993325954, 0.18735263758511111, 0.18858783643374144, 0.18984565676575985, 0.19109350965421423, 0.19234720705286368, 0.19350134956513218, 0.1947753738935187, 0.19613269501787634, 0.1973864396944311, 0.19863970792522967, 0.1998879570377773, 0.20113684188361064, 0.20232938170013093, 0.2035748860912448, 0.20481083426028035, 0.2060495614644876, 0.20726278607614113, 0.20839538201292468, 0.20959495169394485, 0.21077815319479637, 0.2120518655774376, 0.2131879846862155, 0.21427548987690312, 0.2153924811435496, 0.21649359228238266, 0.21753900719503363, 0.21861071448464423, 0.21970726689981368, 0.22073152709685534, 0.2217367186088222, 0.22274466200609855, 0.22370616617342237, 0.22460668406382392, 0.22553150573700723, 0.226431701755672, 0.22733104781835634, 0.228177206506049, 0.22891725339753127, 0.22972300868999732, 0.23049778414224406, 0.23123180572841392, 0.23194569455759156, 0.23272518751385898, 0.23336310799116375, 0.23397448545851318, 0.23456161282260907, 0.23511670102320079, 0.23558433403777637, 0.23608797150584532, 0.23655778233622102, 0.23693025737587092, 0.2373397853563544, 0.2378297745424247, 0.23814855828064208, 0.23843647571082655, 0.23858561825117336, 0.23882306443845025, 0.23903609309180032, 0.2391939153155017, 0.23936759195194726, 0.23944329075285517, 0.23948439415080006, 0.23951159644499462, 0.23947966330908244, 0.23931583336554377, 0.239226729352098, 0.23909678128391043, 0.2390351654647316, 0.23881101919253075, 0.23848835877134042, 0.23820467096720188, 0.23788268880101146, 0.23754037008919968, 0.23713985619261133, 0.23675431092644833, 0.23627326351375175, 0.23575813429448042, 0.2351143905529671, 0.23454189589635144, 0.2339128460612482, 0.23326232808867087, 0.23257168655705465, 0.23192596169811, 0.23114627867089418, 0.23027620051429395, 0.22943637954589963, 0.22855954782998747, 0.2276234036611501, 0.22667668168211424, 0.22580004499074743, 0.224766292042412, 0.22370267147259026, 0.22253258579547242, 0.22141802966149587, 0.22032059236274543, 0.21913038122919598, 0.21790936395649113, 0.21665928928623335, 0.21537688104241143, 0.21402045616043355, 0.21268345274586764, 0.21131433774583347, 0.209975469233422, 0.20853636554879235, 0.20695051935503458, 0.20547349668449275, 0.203963480296124, 0.20241683614780498, 0.20084508071377727, 0.19936041544806998, 0.19771541745942514, 0.19604930554435554, 0.19429394241774953, 0.19259439181844298, 0.1908393708938433, 0.18909523520049948, 0.1873262818850836, 0.18556597511023865, 0.18374624869700024, 0.18186259303657062, 0.18000882884448408, 0.1781337689682765, 0.17626437588131208, 0.1743463806685194, 0.17245036649908374, 0.17049417855642157, 0.16852455999334645, 0.16653051298428295, 0.16453660005143977, 0.16248275392460787, 0.16046962716033936, 0.15844213699506252, 0.1564921513809462, 0.15442733488329363, 0.1522505876349665, 0.1501864090419412, 0.14811026337465336, 0.14608009294760507, 0.14397618233398207, 0.1419105722243788, 0.1397906151566034, 0.13766869496653553, 0.13545901300577934, 0.1333447780200351, 0.13121972976928414, 0.12909529851446946, 0.12696675838362695, 0.12489519520333331, 0.12275389697277367, 0.12063755689394604, 0.11849829008323283, 0.11636343120008752, 0.11416511574205095, 0.11204865250674265, 0.11002957849089577, 0.10790523342298124, 0.10578979761761512, 0.10361036354685249, 0.10152243949386892, 0.09947885813498458, 0.0973976743369235, 0.09532581342975975, 0.09325080996598867, 0.09120080742443681, 0.08912203902906186, 0.08709799347922081, 0.08508325302008957, 0.08316154865667692, 0.08115776518673673, 0.07908138466260858, 0.07712239062956551, 0.07517541656342783, 0.07324953463491289, 0.07132838900766818, 0.06941106463874042, 0.067522457745967, 0.0656498323673816, 0.063865361614707, 0.06201789765894566, 0.06016497552266983, 0.058365331749525115, 0.056586435758809776, 0.05488707198128012, 0.053143343504446015, 0.051436063459390745, 0.0497409537804638, 0.04807138771522967, 0.04637369830447507, 0.04476173099759409, 0.04319486524270823, 0.04162524942212019, 0.04008020521089216, 0.038561605136449226, 0.03706625194317885, 0.03557522148797178, 0.034133626096673565, 0.03271675788698309, 0.031355868060987994, 0.029985768339472148, 0.02870821614562882, 0.027385250105203436, 0.02609375006908927, 0.024872258964622126, 0.023637601311997016, 0.022438808455917045, 0.02126843781295065, 0.020129874167516194, 0.019073029029564315, 0.017990574446274842, 0.016954723422216905, 0.015937240477881847, 0.014952952876338587, 0.01402565954803329, 0.013103129376932143, 0.012147223006185554, 0.01129893509483058, 0.010479138859497857, 0.009735078583961882, 0.008966833355040999, 0.008196143595638833, 0.007495264066353988, 0.006823698743572638, 0.006196170954416, 0.005581724313413649, 0.005026944617715892, 0.00446967278085131, 0.003944425819379813, 0.003491513423987697, 0.0030244095886936824, 0.002621719462970403, 0.0022173399128559237, 0.0018472683223998928, 0.0015416724585560248, 0.0012343771636695105, 0.0010067629385194143, 0.0007614638003865233, 0.0005515757776798201, 0.00033882510942139573, 0.00020175783413413283, 0.00012794741405226874, 4.800664378928832e-05, 0.0, 6.777396447266131e-05, 7.135901905455899e-05, 7.603282171425846e-05, 0.000153193530957052, 0.0002615737315150696, 0.00043305688595396554, 0.0005980977601696121, 0.0008822675954278247, 0.0010985123434115313, 0.0013498739030768385, 0.0016269901154245003, 0.0019460141995390797, 0.0022752721981630438, 0.002658833420866909, 0.003071038064466224, 0.0035666136177088257, 0.004027804115345533, 0.004443217955411033, 0.004974297480437537, 0.005530142355715833, 0.006178922020976095, 0.006775666680759312, 0.007409084488079026, 0.008061336299831814, 0.008767461992020551, 0.009471695931662747, 0.010204255935930374, 0.010943384638558078, 0.011733357420939776, 0.012573032254165095, 0.013410321323693315, 0.014273721514294391, 0.015271509524092564, 0.01617201171815225, 0.01702552585833488, 0.01799648277122246, 0.018991650240885487, 0.0201210454395651, 0.021149651189768102, 0.022157376507727995, 0.023250056930241174, 0.024367163404226944, 0.025582851901256427, 0.026737906156107806, 0.027860160742801288, 0.029076356379903256, 0.030314625636336332, 0.03166234853910858, 0.03293291183632285, 0.03425085170131435, 0.035570406122020504, 0.03691574041934074, 0.03818049261002482, 0.039588249013397574, 0.04112071251057688, 0.042550363102549844, 0.044004124284685725, 0.045486219551570985, 0.04698572986847935, 0.04849818241838133, 0.05004381855422746, 0.05161071711920516, 0.053216461151210266, 0.05482285387680579, 0.05648814361538132, 0.05813263946297606, 0.0598002243257765, 0.061438436078286154, 0.06315726925601384, 0.06496958005618672, 0.06671669458910653, 0.06848699641188886, 0.07025076060805402, 0.0720696768741286, 0.07394778075027643, 0.07580216324369031, 0.07767883865455812, 0.07950929370335777, 0.08143820110687892, 0.08341068032561269, 0.08537186731105424, 0.08735280359784132, 0.08937144046516055, 0.0913899126411458, 0.09343592847285705, 0.09549564339149222, 0.09757671552333812, 0.09967584450800013, 0.10179990115529325, 0.10393204985597986, 0.10609993375028659, 0.10828824236347756, 0.11047765916381001, 0.11270975885675397, 0.11501360301016823, 0.11727905664042983, 0.11956782938002548, 0.12180835738988192, 0.12415238915738365, 0.12654947394405738, 0.12892765265173167, 0.13132770755868212, 0.13374979849783047, 0.13619408237610403, 0.1387158989096757, 0.1411980532502817, 0.14370595673490608, 0.1462230857813079, 0.14878371634740598, 0.15141066633742195, 0.1540141862989759, 0.15664419236200386, 0.15929551004439432, 0.16197825055048196, 0.1646166756395039, 0.16735909780936994, 0.17012292482126307, 0.17299634231867764, 0.17579347547515337, 0.1785356606462529, 0.18139864943559109, 0.1842843404760826, 0.1872922480050879, 0.1902123062991929, 0.1930938660954877, 0.19608149744998793, 0.19909426753484433, 0.20211948508811747, 0.2051850434957221, 0.20825800467583871, 0.2113766988370017, 0.21452035390503266, 0.21779818021883432, 0.22097935914662822, 0.2240987419550512, 0.22735599461818098, 0.23063935525772178, 0.23399303808809038, 0.23732421521440128, 0.2406444645907478, 0.24404002379039066, 0.24746287902517672, 0.2509149669187097, 0.25439312283722243, 0.2578832969380473, 0.2614202283040317, 0.2649849273894781, 0.2685906944263979, 0.2722101991156889, 0.27593370795379624, 0.27960257169872177, 0.2833051839920397, 0.28695500842289157, 0.2907345181110877, 0.29454483407216087, 0.2983793961272635, 0.30224234219388835, 0.30625239076759103, 0.31015778827015206, 0.31408096443603806, 0.31805907048329113, 0.3220702695793787, 0.3260767316750383, 0.3301573941934522, 0.33429855229783684, 0.33843457354531525, 0.34260186956309713, 0.3467725401725969, 0.35100497822860877, 0.3552127330881982, 0.3595096822481615, 0.3638324536217534, 0.36818630152212867, 0.37256118918084735, 0.3769696217767696, 0.3813979507380872, 0.38585396122058735, 0.3903960938263889, 0.3949000709225959, 0.3994040909541162, 0.40397316751043905, 0.4085702968338935, 0.41310756848755287, 0.4177710839209506, 0.42245041729457267, 0.42715978100348173, 0.431891804500125, 0.43673764882549765, 0.4415042132345129, 0.4462828488488404, 0.4511073594261384, 0.4559578625116402, 0.46080622642587177, 0.4657105858070661, 0.4706134240732171, 0.4755661915467196, 0.4805397459160688, 0.48550468716378375, 0.49052290477291444, 0.4955060040285064, 0.5005677883687674, 0.5056447544313954, 0.5107533361183821, 0.5158591098954813, 0.5210153429251406, 0.5261493205835377, 0.5313010470262108, 0.5364033362362548, 0.5415970340343925, 0.5469050175241017, 0.5521096823372402, 0.5573317015448102, 0.5624839045924657, 0.5677481025820857, 0.5730896538025804, 0.5783632343785214, 0.5836490325212155, 0.5888518780276655, 0.5941709380238005, 0.5994257173836169, 0.6047609439305667, 0.6100956880340342, 0.6154966535363527, 0.6208223528875467, 0.6261075539293082, 0.6314446932095282, 0.636849330428168, 0.6421760412659321, 0.6475049035533816, 0.6527519900260453, 0.6580921824322508, 0.6634897611321191, 0.6688096645223266, 0.674126217835494, 0.6794188366082063, 0.6847278330811994, 0.6899884952447819, 0.6952861654536138, 0.700571899003741, 0.7058612781910286, 0.7111190864565445, 0.7162566425500967, 0.7215008134712992, 0.7267239696194682, 0.7319130171582477, 0.737095332573707, 0.7423087748778362, 0.7474391028506201, 0.752549208075377, 0.7576592188350312, 0.7627232657828136, 0.7676695122687898, 0.7727003731123251, 0.7777013878261242, 0.7826818519107623, 0.7876205221799566, 0.792513690672518, 0.7973916525145736, 0.8022363109391889, 0.8070063358541418, 0.8117872029236748, 0.8165722684340826, 0.8212712197791939, 0.8259333074970635, 0.830589931885914, 0.8351709855392443, 0.8395985232850753, 0.844116228850075, 0.848586482575909, 0.8530218765017834, 0.8573943144069763, 0.8617932472571654, 0.8660591681215731, 0.8702795776276749, 0.8743881175279306, 0.8785214474382417, 0.8826095466916152, 0.8866343550420429, 0.8906046351343617, 0.894581138862337, 0.8984317741043595, 0.9021700982140196, 0.9059189105517365, 0.9096077188892613, 0.9132648687217929, 0.9168273571488806, 0.9203434588842381, 0.9237809919446573, 0.9271561408397653, 0.9303265172292393, 0.9335912555125528, 0.9368926397538251, 0.9399960488861396, 0.94303197171101, 0.9459214892523881, 0.9488292863720226, 0.9516200761871424, 0.9543832927767805, 0.9570686775734643, 0.9597686874137678, 0.9622864530789498, 0.9646256705036335, 0.9670096676564272, 0.9693127101366087, 0.9715525653888982, 0.9736911138263863, 0.9757914568292965, 0.9777634522525596, 0.9796565748032521, 0.9814992526008807, 0.9832286013343187, 0.9847989084462404, 0.9863783565002817, 0.9878720167352827, 0.9893511219032073, 0.9906636008340635, 0.9918027838414735, 0.9929611292625921, 0.9940303898959397, 0.9950609082026607, 0.9959456808404387, 0.9967604003904628, 0.9974700845775636, 0.9980934907362904, 0.9985456823551432, 0.9990056440420522, 0.9994526557582746, 0.9997178787458684, 0.9998956024713374, 1.0, 0.9999996252955242, 0.9998335104071472, 0.9996669183503383, 0.9994073733801883, 0.9990292444501684, 0.998588068465631, 0.9980599226910946, 0.9974314909127109, 0.9967109036803393, 0.9960007865852141, 0.9950840545444399, 0.993994323435872, 0.9929174790194804, 0.991749480620561, 0.9904631376607026, 0.9891175229937419, 0.987727475467438, 0.986193527971066, 0.9845719445525125, 0.9828028764973626, 0.9810142653122521, 0.9791532200316975, 0.9771825635752375, 0.9751241700827304, 0.9730451813578419, 0.9708046855347415, 0.9684900927010789, 0.9660842161247317, 0.9635967977194392, 0.9609906561185261, 0.9583453972419105, 0.9556561219083479, 0.9528406542472575, 0.9499457413887042, 0.9468792588408189, 0.9438383901561155, 0.9408083801666733, 0.9375903567673486, 0.9342969132814697, 0.930831139955514, 0.9274006601387665, 0.923916877304297, 0.9203260047964087, 0.9166601429622779, 0.912910694556191, 0.9090995008078171, 0.9052405185460431, 0.9012831782380337, 0.8972574612066204, 0.8931822077186465, 0.8890204571180227, 0.8847586380047884, 0.8804735791934364, 0.8761239876117682, 0.8716883945598815, 0.867216370567712, 0.8627666938277407, 0.8581613229315354, 0.8535014771155001, 0.8487846244549538, 0.8440184516415408, 0.839138290395106, 0.8342762271309886, 0.8293603086193788, 0.8243336300518402, 0.819321949713247, 0.814327453600301, 0.809203678603693, 0.8040350361680396, 0.7988698497439544, 0.7936092966150262, 0.7881950814366906, 0.782873169839512, 0.7775082592524069, 0.7721023045873545, 0.7666571946769973, 0.7612120901574361, 0.7556893851710428, 0.7501349549377868, 0.7445647939285285, 0.7389492257854448, 0.7332614649608988, 0.727599420242262, 0.7219106331905418, 0.716245460856847, 0.7105019932566912, 0.7046274221714811, 0.6988610797966641, 0.69307173741741, 0.6873556668868118, 0.6815147279108691, 0.6756297424641848, 0.6697708658517797, 0.663900863783072, 0.6580114363060058, 0.652124719560561, 0.6462176300392555, 0.6403192654594709, 0.6343053680027458, 0.6284121873501153, 0.6225107286580209, 0.616643953264042, 0.6107278245392498, 0.6047929757917957, 0.5988825113872672, 0.5929750251934787, 0.5871047070688061, 0.581204187422655, 0.5751884713568746, 0.5693245933419911, 0.5634660153773896, 0.5576490638570833, 0.5518033584506455, 0.5459955231040524, 0.5401753660682053, 0.5343731858518173, 0.5286032139192021, 0.5228390510769025, 0.5170858713185792, 0.5113688816081682, 0.5056756796567099, 0.4999359612730365, 0.4943026761524962, 0.48875898294845244, 0.4831649926980415, 0.47760092840897483, 0.47200439885690787, 0.4665109081703046, 0.46105785062307564, 0.4556224542041819, 0.45021946889517894, 0.4448273263956266, 0.4394954500228792, 0.43416880839336375, 0.42891072069894126, 0.42368776720831347, 0.4184915139984261, 0.4133438895618791, 0.40831567447434924, 0.40323544785100074, 0.39820025368367573, 0.39318122854594456, 0.38824086686194054, 0.38334500247607917, 0.3784942643515587, 0.37368926068278485, 0.3689289560879626, 0.3642173693922738, 0.35959695202614494, 0.3549750565945376, 0.35040402602602005, 0.3458531671078396, 0.34138822445060957, 0.33706867813116204, 0.3326913441440436, 0.3283698964338094, 0.32401957376428997, 0.3198195636579246, 0.3157412531889188, 0.31163329551896257, 0.3075806236266249, 0.3036074543865547, 0.2996619244465031, 0.2957467939912092, 0.2919170535643545, 0.2881418049575295, 0.2845071301284017, 0.2808301676831492, 0.2771283095741703, 0.2735804000137125, 0.2700860824293949, 0.2667494357764689, 0.26334974780833664, 0.25997268245607075, 0.2566969154719326, 0.25347767217802747, 0.2503861079528962, 0.24727012146219282, 0.2441603807834354, 0.24116999601959518, 0.2382349191046937, 0.23539389476992498, 0.23256388467169206, 0.22980211276082485, 0.22708390099750958, 0.22442220128829696, 0.22172070386695156, 0.21918252754364478, 0.21673289489882852, 0.21428927653065702, 0.21189796338551883, 0.20954418567187236, 0.20725881326769188, 0.20510712639270348, 0.2029129687420173, 0.20077405206304594, 0.19864242274472138, 0.19661733124163389, 0.1946877589364609, 0.1927566746549729, 0.19087741031647687, 0.1890232005130395, 0.18724849794094578, 0.18544555894489467, 0.18377607823715347, 0.18214931120914807, 0.18068381222564336, 0.1791276095645935, 0.1776190966834253, 0.17616059919461366, 0.17474912273266463, 0.17327328008348647, 0.1719667876333229, 0.1707144111354705, 0.1694816068312362, 0.16828745419506067, 0.16709267645406112, 0.16597973006434266, 0.16501086957381114, 0.16395469201820825, 0.16293955881830746, 0.1619513008480278, 0.16101638868483847, 0.16004370381256874, 0.15919104980403245, 0.15836919245849507, 0.15756806896508185, 0.1568080046700832, 0.15612736295805288, 0.15541874500741182, 0.15474119474521097, 0.15403050285917652, 0.1534203737139439, 0.152940559530309, 0.15236634411729127, 0.15182205888042474, 0.15129826206468275, 0.1508109466075855, 0.15024218423939334, 0.14981867753289782, 0.1494126951808642, 0.1490159678746018, 0.14864552483746918, 0.1483288061696456, 0.1479861417761391, 0.1476613295622578, 0.1473374365279204, 0.1470482644275477, 0.14686803843804264, 0.14659598184314387, 0.14634280482575918, 0.1459870101102315, 0.14578269299767857, 0.14566449107618804, 0.14546653489964226, 0.14528069616211806, 0.14504436064512022, 0.14488777770384695, 0.1447371367932348, 0.14459208921763844, 0.1444522519262995, 0.144318835056976, 0.14418794845242972, 0.14403832740216077, 0.14391779902513255, 0.1437989852686012, 0.14368642047295832, 0.14356938421583798, 0.14347109579468528, 0.14335313521107865, 0.1432361475235514, 0.14318443392594637, 0.14305932592845466, 0.14290940569458413, 0.14279223563783233, 0.14267415158482835, 0.14252195041326662, 0.14240395727790367, 0.1422876096894942, 0.14215873013910701, 0.14202462406269045, 0.14192544560658665, 0.14177449559438987, 0.14153333061161763, 0.14138415413426206, 0.14122456754786, 0.14113254750083018, 0.14094245310053222, 0.14074802893271923, 0.14054515636057466, 0.14033513859459307, 0.14003786239730717, 0.13982191060341534, 0.13954404631478934, 0.13930799686061787, 0.13905632276720892, 0.13881711318481385, 0.1385321098174799, 0.13832031033621298, 0.13799884967072668, 0.13766948804624213, 0.1372244188665714, 0.13689081885247173, 0.13654956885513467, 0.13618377620671437, 0.1357903640422556, 0.13539714236138778, 0.1349889220307472, 0.13464710036254202, 0.13419931380803918, 0.1336264686354347, 0.13317311158255074, 0.1327025210002141, 0.1323272273538479, 0.13180955756964838, 0.13119472159962453, 0.1306685646921981, 0.13012697809780846, 0.12955890801144335, 0.12898879440502636, 0.12844078926291772, 0.12783583871447454, 0.12721838999042318, 0.12661763658257646, 0.12597144911942237, 0.1252494668692607, 0.12458954234487174, 0.12391474210194385, 0.12328065889342496, 0.12257032821606684, 0.12180392549621925, 0.12107799108515932, 0.12033872292752498, 0.1195880879475351, 0.11882296800624234, 0.11801963764877055, 0.11723362394766103, 0.1164345172803413, 0.11569586388031365, 0.11486283061899084, 0.11401900097245395, 0.11317112706147572, 0.11231527493623572, 0.11149849636860988, 0.11062072663290716, 0.1097165945039268, 0.10883069322924596, 0.10793787642134856, 0.10694729951882069, 0.1060523346601942, 0.10513426764257894, 0.1042181590158343, 0.10329141545035717, 0.10245879594405928, 0.10150023295364971, 0.1004760367515628, 0.09952069828288578, 0.0985593073572445, 0.09760860467216695, 0.09663457206083685, 0.0955789781665363, 0.09460783101839274, 0.0936293450947843, 0.09270292810469832, 0.09170523210127364, 0.09070781442451055, 0.08970752943056835, 0.08870660603499396, 0.0876615205551709, 0.08666576517530751, 0.08572787875551124, 0.08472082351824445, 0.08371624097413162, 0.08262496513369887, 0.0816369534786226, 0.08074742445477219, 0.07974328358380724, 0.07874435624449153, 0.07764996063470331, 0.0766740759903228, 0.0757025986797942, 0.07472604695616195, 0.07375098092674683, 0.07283977666191413, 0.0718619259616805, 0.07088447030020685, 0.06992127199666967, 0.0689647315481297, 0.06804583711869845, 0.0670991720078343, 0.06612891209727906, 0.06520401440635272, 0.06428605702413391, 0.06337367684941013, 0.06247058194849168, 0.061607567706827654, 0.06071586798640566, 0.05983412672852847, 0.05896233270700624, 0.05810050065227493, 0.05716751312132058, 0.056335996544148816, 0.05551005314895524, 0.05467743607969417, 0.053866424239519484, 0.053112581407479986, 0.05230956232495122, 0.05151744933274876, 0.050728241751303194, 0.04995930506527889, 0.04915732071915307, 0.04841563699545762, 0.04768257534114667, 0.0469829652193079, 0.046265461127873934, 0.045664728131321615, 0.0449565545866687, 0.044265811950311595, 0.043500851484172626, 0.04285428451251179, 0.04221965939689258, 0.04159373759272347, 0.04097862342733434, 0.04045886346220745, 0.039855107773977716, 0.039322452280662515, 0.03874295306724671, 0.03818133933833071, 0.037506848129812476, 0.03699478268508666, 0.03653145415026903, 0.036030991600368635, 0.035541739646038316, 0.03518541308014919, 0.03470313335250291, 0.034162540258384354, 0.03372483400722248, 0.03329890054458371, 0.03298356102645398, 0.032568106954445813, 0.032065582792491144, 0.03169593045587367, 0.031335465695745364, 0.031016736455568968, 0.030670780274919176, 0.030459385964323325, 0.03012001268511319, 0.02979831487180788, 0.02942816873892702, 0.029146562393800823, 0.028882262060204025, 0.028621138956303464, 0.028370576092974553, 0.02820004395491384, 0.027960836737050236, 0.027710869819831264, 0.027501100007528662, 0.027302007543781433, 0.027189420661156826, 0.02700070934380502, 0.02687764801769317, 0.026708835026932807, 0.026554838976604277, 0.026445322079974357, 0.026313665822062893, 0.026211648206860755, 0.026103692957709746, 0.02600805781924545, 0.025842633373101758, 0.025779150208451836, 0.025774462801579193, 0.025714679936508063, 0.025663145600435942, 0.02561618362442693, 0.025580315509708327, 0.025677964823761976, 0.025639646463383747, 0.02561482710261703, 0.025616875256731314, 0.02561363655849257, 0.02554676358580535, 0.02557406128598812, 0.02560639673248315, 0.025651751037900787, 0.02569275244330414, 0.025870370012449923, 0.025904890060870753, 0.025951653457412106, 0.025926711387923202, 0.026005058900447874, 0.02611550202884429, 0.0261992510066412, 0.02628884057193529, 0.026479734062200187, 0.026568042317954316, 0.02668951484203791, 0.026794877298544437, 0.026910171720567363, 0.02694685103132761, 0.02709051381340299, 0.027277422488165823, 0.02742142764731722, 0.02757065045485718, 0.027771970056451684, 0.027925144516055003, 0.028054881277985236, 0.02822629293783377, 0.028521006816704567, 0.02868699546270839, 0.02886432961122171, 0.029001721638201097, 0.02920533466503055, 0.029367894372424205, 0.029589306908037648, 0.029813777335371862, 0.030059452219896164, 0.03028865310969129, 0.030584452445378166, 0.03081582972048409, 0.031055867968603688, 0.031346429286812666, 0.03159751103177671, 0.03183771651290396, 0.03211143272760376, 0.03239332142915636, 0.032725452602050606, 0.03301801598417947, 0.03333063190518715, 0.03364227617350544, 0.033964233056428025, 0.03425731326354733, 0.0346041928604224, 0.035030134427611596, 0.03538356438312194, 0.03574924235241936, 0.0360717308656169, 0.036468210374206986, 0.0368879383204723, 0.03730027370806117, 0.03772291952930422, 0.038221116284393196, 0.03865714439379331, 0.03911787280105125, 0.039582441560771876, 0.04006229469724927, 0.040464836516822277, 0.04098679117262449, 0.04159672151876513, 0.04212982366302928, 0.04267905356498501, 0.04325431291940281, 0.043835102045534584, 0.04445266428856308, 0.045065791361577526, 0.04569776761981872, 0.04632762643734842, 0.047000423613104164, 0.04766709647870001, 0.04837986487175323, 0.04911040410548423, 0.04991133063650433, 0.050672866462428044, 0.051362949927880056, 0.05218199211951321