0.06586382491860046, 0.06506535139219992, 0.06424445669694295, 0.06349687342119431, 0.06278190738283262, 0.06206010513226931, 0.061350203524264825, 0.06058625078574314, 0.05990308796493883, 0.05917691173623549, 0.058506332946935635, 0.05783573450516246, 0.05714182375204714, 0.056474277139068385, 0.05598056196504022, 0.05528905912368927, 0.05460698203333511, 0.053822497496080195, 0.05317031215522526, 0.052507037372491926, 0.0518577829653557, 0.05120908176309686, 0.05048555751390961, 0.049848812332269364, 0.0492912459349585, 0.048640279233960325, 0.04799336409459999, 0.04745563623343134, 0.04680410369382977, 0.046069781590664965, 0.04545040468333956, 0.04483510706866131, 0.04421836124816348, 0.043612860591524936, 0.042912870760031016, 0.04232949460907053, 0.04174581773505609, 0.041227065876733436, 0.04063782414523847, 0.03996734760893524, 0.03940187895979088, 0.03883822658862011, 0.03835894328602867, 0.037791261146871195, 0.03713331217582309, 0.03659585793277248, 0.03606166362624143, 0.035624809303566415, 0.035087606001412835, 0.03449684864915992, 0.0339887093974007, 0.033562951451143644, 0.03305874045524536, 0.03256602602591015, 0.031967857528501786, 0.031511922641845304, 0.030960941771734047, 0.030526420430888348, 0.030091780401885777, 0.029734186807509406, 0.02929365351679858, 0.029024134073256064, 0.02857877018807873, 0.028150898833046237, 0.02763448545981629, 0.02725176184993523, 0.02697107807341149, 0.026594177710637556, 0.026231506968281675, 0.025759986924771, 0.025439453126015, 0.02512464548402323, 0.024816163664269277, 0.024514552481253317, 0.024459371571382137, 0.024142718940616092, 0.023666959437866904, 0.023414915362444264, 0.023171496381212648, 0.022861205195698075, 0.022645518718304124, 0.022505048054355527, 0.02229188516650169, 0.022089566507365297, 0.021787458934358576, 0.0216212925389557, 0.02163513149411526, 0.021458048591947793, 0.02129783053430592, 0.02101395841454752, 0.020903509285813113, 0.020800574511227847, 0.02070592431496024, 0.020620249417211585, 0.020573322411998416, 0.02050370177816301, 0.02045218830351926, 0.020406588482902787, 0.020373983430230804, 0.020406971952532247, 0.020394075534208668, 0.02046742447307947, 0.0204779055122152, 0.02050798124755727, 0.020364432100889972, 0.020455725159849364, 0.020600361561843285, 0.020700181532755376, 0.020811263287876865, 0.02098068939482104, 0.021109655961305256, 0.02124200643436618, 0.02140246590363957, 0.02157718073108622, 0.021766190006832668, 0.02196952846072914, 0.022093933124533643, 0.022337811702308943, 0.022590860163155556, 0.02296462997898857, 0.023224210565701474, 0.023518684942740845, 0.02381046616269541, 0.02411988825552255, 0.024429001018536286, 0.024774592077446377, 0.024995670183676967, 0.025389622167360112, 0.025790791155998295, 0.026194315506923055, 0.02661343578798779, 0.027065305872027455, 0.027500997911447188, 0.027948659831819184, 0.028542688909385574, 0.028998140571679435, 0.029444629819598684, 0.029943203563325443, 0.03045852954326168, 0.030896776087609587, 0.031455832658052, 0.032065738794829345, 0.03264003761505663, 0.03322727158842525, 0.033769025267159254, 0.03438917133098465, 0.03504778638265693, 0.03568321221604665, 0.036330196015944366, 0.03710533152046441, 0.03776059408354773, 0.03830554257373134, 0.039011926267553246, 0.03972712048182299, 0.04048630133722374, 0.0412152182470237, 0.041972834077824685, 0.04272172949259666, 0.043482366111869064, 0.04423688490679641, 0.04502213159232538, 0.04577626725109932, 0.04658589929249294, 0.047402568640549855, 0.048267220166869094, 0.04909314341268749, 0.0498236889612163, 0.05068170728644746, 0.05154275786654807, 0.05252397917623613, 0.053377813959097666, 0.05413754168164909, 0.05502565000063862, 0.05591737214586774, 0.056853752858248834, 0.05774815749287226, 0.05860813024621825, 0.05952016969930834, 0.06043570306691082, 0.06145386604992775, 0.06236383928921529, 0.06322445130117672, 0.06415877059986559, 0.06509698649616825, 0.066120398374257, 0.0670550832624016, 0.06791559941078668, 0.06887452553711358, 0.069834398449581, 0.0707133825458333, 0.07168483853013483, 0.07263449783137799, 0.07359995423976938, 0.07456082179954673, 0.07555826876255493, 0.07650575838132634, 0.07749254148465308, 0.07843158715488162, 0.07937089383860826, 0.08040896261450309, 0.08133440725903288, 0.08237464534618259, 0.08329272963488212, 0.08421841683952018, 0.08505637338202303, 0.08600314560054831, 0.08695841931794099, 0.08789666198682242, 0.08883098614945144, 0.08971985460595591, 0.09064939426466627, 0.09157655330150713, 0.09248868916394047, 0.09339245134474249, 0.09450911606019022, 0.0953672337826889, 0.09605944211720871, 0.09694323934711208, 0.09781681371019908, 0.09888395428954534, 0.09971042115905114, 0.10049646388834356, 0.10132697166415579, 0.10215198361625057, 0.10292367531188898, 0.10374018770700077, 0.10463288473815256, 0.1054153236371707, 0.10619051822822893, 0.10698654230716319, 0.10774044152188968, 0.10850916314469194, 0.10924212043514778, 0.10996601735340647, 0.11086064662651858, 0.11154079413114584, 0.11212617387587029, 0.11281305864571563, 0.11348927462730601, 0.1140490008599246, 0.11471466644943612, 0.11541981538076768, 0.11604074322799388, 0.11664666165939769, 0.11731896719597942, 0.11788387427222027, 0.11840275992833632, 0.11894921397257616, 0.11948116350855795, 0.12018486657490962, 0.12066327753230052, 0.1210901595137228, 0.12156300090700004, 0.12203098584901224, 0.12248080239484904, 0.12291856252881876, 0.12350681552360157, 0.12389778887514215, 0.12426072236350187, 0.12464348214602093, 0.1250169989319335, 0.12524607958155562, 0.12561498482501895, 0.1259410380565827, 0.12627428658476395, 0.12658758755515268, 0.12696901527474494, 0.12723316119952258, 0.1275481338959817, 0.12777735059733686, 0.12799652209907247, 0.1281525694028199, 0.12835659066423177, 0.1285111499369107, 0.12869075720190118, 0.1288541840126753, 0.12914764925827873, 0.12926161551742654, 0.12926393251825305, 0.12937701926735323, 0.12947613440780684, 0.1296374181397484, 0.129700030015074, 0.12982392910335963, 0.12986007499489297, 0.12989103807145758, 0.12970041503489793, 0.12974643710334846, 0.12989602028761757, 0.12989022690631366, 0.12987518148221908, 0.1298919346398643, 0.12985395727410928, 0.12968152711587438, 0.12964740378764641, 0.12959993696738364, 0.1297210160750536, 0.12962733350563757, 0.12950447917129232, 0.1294139240336277, 0.12932079465005364, 0.1291025959597916, 0.12901973193574692, 0.12900329781250905, 0.12889325012427033, 0.12878030421212405, 0.12875233114386977, 0.12862377982098658, 0.1283760863024744, 0.12826939828109743, 0.1281587914825046, 0.12816767053973474, 0.12803658158003464, 0.12795203366895083, 0.127827115575134, 0.127710073779573, 0.12744321657972416, 0.12736117574275885, 0.12749349061257464, 0.12738273919925386, 0.12728531735144782, 0.12717154654961033, 0.127103057551574, 0.127120956299195, 0.12706420457506123, 0.12702267774581577, 0.12679783475751236, 0.12681109112037184, 0.1268163295049656, 0.12684004223386272, 0.12687003948869366, 0.1268262977763948, 0.12688391826227424, 0.12716354078887182, 0.1272084203669469, 0.12727554642071978, 0.12721331070947506, 0.1273441689940394, 0.12758230402157517, 0.12773079354887104, 0.12790133767423473, 0.12792539084184304, 0.12816309161041944, 0.1284617136226632, 0.128724032668611, 0.12900702426764352, 0.12927700225401165, 0.1296095788577475, 0.13012196146655722, 0.13048074348268224, 0.13087336812269867, 0.1312239557150225, 0.13169369427330768, 0.13211722028973932, 0.13265647073487097, 0.13322254199902658, 0.13404416606749608, 0.13463902753591545, 0.13511394055861056, 0.13581533400332202, 0.1365495602613495, 0.13744577525068546, 0.13823204898785357, 0.1388393218991437, 0.13973850736806825, 0.1406674408645072, 0.1416978198668588, 0.142682444449466, 0.1437813172106061, 0.14483403175199222, 0.14593096946419062, 0.14700809067950532, 0.14820192654091618, 0.14957092019116147, 0.1508306296457423, 0.15214034528670403, 0.15329557692974224, 0.1547299773813966, 0.1564468897323644, 0.1579270666428145, 0.1594614852723173, 0.16103193963113888, 0.1626750472268908, 0.16431135445917816, 0.16606463741261232, 0.16786580653403, 0.16959864348714979, 0.17151152282726223, 0.17348442388978916, 0.17548147350520601, 0.17752455596450867, 0.17971956842358863, 0.18184418409220987, 0.18401162706395544, 0.18624654517314615, 0.18853503115980133, 0.19082461256382333, 0.19322689562244041, 0.19565652347534068, 0.1981635421671648, 0.2007207704020697, 0.20322962309954057, 0.20590135060188552, 0.20871243010290155, 0.21146561897845498, 0.21427222526514292, 0.21718481687655736, 0.22009185654930005, 0.22307291145824015, 0.22609034647020118, 0.22916442929730968, 0.23216633946752419, 0.2353683403580777, 0.23864157189398139, 0.24193700331103318, 0.24528266909273577, 0.24870205558338462, 0.25214565873255873, 0.2555244679603775, 0.25908623583223855, 0.26269279614142227, 0.2663972696762321, 0.27008856138247206, 0.2737416254742236, 0.2775422577930835, 0.281386779683207, 0.2853747118497918, 0.28929553004183545, 0.293389031276151, 0.29739405655197687, 0.3014546187861782, 0.3053473678861041, 0.3095417979026488, 0.31379181918517957, 0.3180605462272977, 0.3223688357800111, 0.3268215447634959, 0.3311952957177978, 0.3354972985844084, 0.3399743147528623, 0.3444872496219104, 0.3491466613916926, 0.3537166480782798, 0.3583919488753691, 0.3630347954821136, 0.3677196933871734, 0.37217659915118734, 0.37697412790095713, 0.38189839880114806, 0.3867268076036194, 0.3915838412054548, 0.3964221949542935, 0.4013403370200014, 0.4062764914680134, 0.4112425941418429, 0.41622535840751584, 0.42123658047646256, 0.42626867531046764, 0.4314550299453531, 0.43650967063951535, 0.4416194738918453, 0.44672043471370254, 0.45184509563739367, 0.4569272183525459, 0.46210118239852305, 0.46710845704146536, 0.47233206853594956, 0.4775569235345369, 0.48288225859016, 0.4880972230233391, 0.49323133933197416, 0.49846940871750695, 0.5037067823720272, 0.509071188365751, 0.5142891837092186, 0.5195933233335911, 0.5248081240204268, 0.5300282642634248, 0.5351987945974849, 0.5404289507669789, 0.5455028259442034, 0.5507410612101784, 0.5559626830447946, 0.5611905678777493, 0.5663745494119955, 0.5714598943029423, 0.5766192150250959, 0.5817549372389922, 0.5869249238654517, 0.5920046046795973, 0.5970738909057561, 0.6021067036732647, 0.6071155134200336, 0.6120463949161215, 0.617009472701299, 0.6220111792930509, 0.6269016589238194, 0.6317625252917856, 0.6366969882474439, 0.6414801471620438, 0.6462227591447833, 0.6509471057798716, 0.6556370086367185, 0.66016201305247, 0.6647928139836603, 0.669381553250419, 0.6739149511898973, 0.6783989684690449, 0.6829025462156307, 0.6872758337036895, 0.6915946492992121, 0.6958697096050159, 0.7000924855893618, 0.7043314061829251, 0.708436181516599, 0.7124764263297555, 0.7164749434651592, 0.7204160504188852, 0.7241989197472969, 0.7280327046111124, 0.7319502286414228, 0.7356284249690609, 0.7392458374122267, 0.7427829887392495, 0.746275214750291, 0.7495776350449145, 0.7529491238509448, 0.756243455829814, 0.7595943724227373, 0.7627162769705478, 0.7656565055376982, 0.7686490477018761, 0.7715614020415398, 0.7744222133550802, 0.7771689518088783, 0.7797772287233231, 0.7823702244744936, 0.7848781934474565, 0.787440768461287, 0.7897600294627352, 0.7918553128119321, 0.7940350584384784, 0.7961254694636111, 0.7981847205969319, 0.8000886458435551, 0.8018884921247412, 0.803620744111371, 0.8052640384116132, 0.80668376329235, 0.8081646067098721, 0.8095883241245712, 0.8108687520554316, 0.8120546733097077, 0.8131286844368548, 0.8141280263079326, 0.8150320205727091, 0.8158407861442526, 0.8165544021211634, 0.8170796223433686, 0.8176148509957363, 0.8181022443601172, 0.818430953494239, 0.8186636771833219, 0.8189813049484737, 0.8189995855801679, 0.8187341262912025, 0.8186051301750104, 0.8183769763715636, 0.8181726904088201, 0.8177324303195167, 0.8171023726702746, 0.8164927860351552, 0.8157860391416738, 0.8149534587612052, 0.8140575114378871, 0.8131982979341, 0.8120913471622604, 0.8108959298635808, 0.8094075499107413, 0.8080598717225959, 0.8066755150823842, 0.8051196537166498, 0.8034695921135387, 0.8016853633678744, 0.799854592835755, 0.7979356666520402, 0.7959173300407522, 0.7938075794191517, 0.7915782794623348, 0.7892924205732241, 0.7869514900792958, 0.7844822958948996, 0.7819273746483036, 0.7792759189702679, 0.7765535927056036, 0.7738349479805517, 0.7709349920674855, 0.7679581516899932, 0.7649222231718751, 0.7617904128641951, 0.7584964398311855, 0.7552267286004839, 0.7518783888822288, 0.7485110618963957, 0.7450020889146768, 0.7413051358473489, 0.7376690423971138, 0.7339568256380924, 0.7302287109988106, 0.7263625636784574, 0.72241164286042, 0.7184144269896529, 0.7143515282690336, 0.7102885410627489, 0.7060905323298555, 0.7017298511602135, 0.6974306199694189, 0.6930697333144379, 0.6888590169304405, 0.6843539805969673, 0.679740545073372, 0.6751552050476894, 0.6705223981697919, 0.665761456930767, 0.6610470133126205, 0.6562836566011285, 0.6514732350148608, 0.6466175774839554, 0.6417418188578174, 0.6367981595031301, 0.6316876839873559, 0.6266847485458805, 0.621639248350576, 0.6165829697980206, 0.6114564312049424, 0.6063256677962522, 0.6011307578005254, 0.5959081913431384, 0.5907471572148373, 0.5854633802926688, 0.5802785988494098, 0.5749458109605258, 0.5696039738134373, 0.5640433598258319, 0.5587106883555497, 0.5533232627567126, 0.5479578252984013, 0.5425752715556242, 0.5371430898561604, 0.5317380424692751, 0.5263910010711823, 0.520955646581205, 0.5155170755141693, 0.5100711433091815, 0.5046319098907551, 0.49928158006011025, 0.49383583353598265, 0.48839973682495114, 0.4829042298914489, 0.4774990735822533, 0.47215503318321633, 0.4667621630435448, 0.46128501547463613, 0.455935543573932, 0.4505977275349255, 0.44535521965293096, 0.44003637731267115, 0.43473960339177103, 0.4294660428928359, 0.4242168594692921, 0.41898157024078736, 0.41378616354349895, 0.40872883396572934, 0.40357530224510757, 0.39845787075677597, 0.39305040488947524, 0.3880477324567655, 0.383268372529584, 0.3782816407307176, 0.3733318887296928, 0.3684027622448394, 0.3635325822736503, 0.3585968173382556, 0.3538198809085671, 0.34907885631742935, 0.34449819914154084, 0.33981940335905697, 0.3351015514906332, 0.3305312693207452, 0.3260057839973035, 0.32147981876336257, 0.3170538541012793, 0.3126214643054264, 0.3082957576760898, 0.30401608198336644, 0.29986579170683697, 0.2956728767332384, 0.29157029420977654, 0.28748430795382385, 0.2834569138055037, 0.27958754734165236, 0.27566574417597495, 0.2715874721596902, 0.2678234113176202, 0.26411115912231214, 0.26052800041038554, 0.2569140866646094, 0.25339524325024665, 0.24989754453180305, 0.2464627907048656, 0.2431319072283967, 0.23981821044905005, 0.23642430181889681, 0.2332599245525605, 0.23015250002104554, 0.22719049287376258, 0.2241887984303737, 0.22125161038485042, 0.21837888427298152, 0.2155705649308255, 0.21275078428256555, 0.21008064686164227, 0.2074645870783847, 0.2049155009588085, 0.20242689748709203, 0.19999331047456664, 0.19762741696933353, 0.19540415105061054, 0.19315009836711594, 0.19096188783772483, 0.18886804240617147, 0.18680595294393734, 0.18469870835143798, 0.18278106055337096, 0.18092120726925023, 0.17909012255114046, 0.17734984263738474, 0.17577080751127094, 0.17412995873298118, 0.172551434902252, 0.1710518177572645, 0.16959302122420877, 0.1681423818797381, 0.1668104912327175, 0.16553432141851018, 0.16441247188008626, 0.16323360454528824, 0.16205604305437332, 0.1610023615350182, 0.16000226239026996, 0.15899079192332924, 0.15810351849419818, 0.15730458398610908, 0.1565068785107734, 0.15575827880968213, 0.1550055216022794, 0.1543593889895305, 0.1538444565020294, 0.15327431289087187, 0.15275188746404916, 0.1520776623188654, 0.1516719550237058, 0.15134574912602522, 0.15100024206255674, 0.1506908021640052, 0.1504520795609977, 0.15020924218759985, 0.15002062132837024, 0.14984812096072458, 0.1497114855543923, 0.14965624198527275, 0.14958206319880576, 0.14943217540400563, 0.1494406190571576, 0.14947488017659422, 0.14966848690846285, 0.14973560318860826, 0.14976411661446518, 0.14990093661465984, 0.150061518128704, 0.150320491957198, 0.15051549624084576, 0.15078163514028467, 0.1510179235401305, 0.15127780311375819, 0.15138432025600956, 0.15170751976509697, 0.1521961506176194, 0.1525151128963653, 0.15285015554162482, 0.15307122635078524, 0.1534494075867444, 0.15388386054252662, 0.1542624736327159, 0.1546467160050429, 0.15503551752333794, 0.15542780706947598, 0.1560265928398203, 0.1563968450908321, 0.15677883365419906, 0.15701242462745477, 0.1574298946088163, 0.1577786272804659, 0.1581941427694188, 0.15859972338054024, 0.15898918305101306, 0.15937450077739124, 0.1596725027305908, 0.1600438917966306, 0.160398494877967, 0.16088211231832358, 0.16118468690252563, 0.16130931977275817, 0.1616141289308483, 0.16189776637783246, 0.16216026761944552, 0.1624015564697803, 0.16283719891663564, 0.1630081757429465, 0.16316927785133784, 0.16319592447590714, 0.16334651862222202, 0.1635852187125394, 0.16367574027445556, 0.16374839199723945, 0.16384240343912476, 0.16386951498101687, 0.16380083537376885, 0.1637959660034369, 0.1637638184957283, 0.16366869113669974, 0.1635842982700761, 0.16352693341534438, 0.16337228039186896, 0.16318896296984278, 0.16306364617034927, 0.1628096101878914, 0.1625937443253376, 0.16227833282140683, 0.16193803430782416, 0.1614721465924044, 0.16109005288366188, 0.16056251380075134, 0.16012482044713808, 0.1596457113617395, 0.15913752192986041, 0.15857604944219245, 0.15810971884743355, 0.15745372619609366, 0.15676699185358023, 0.15610703909651233, 0.1553491978740879, 0.1545501742381585, 0.15373380080358276, 0.15288546208141188, 0.15200455541003752, 0.15109058422630556, 0.15026559691721617, 0.14926890789718938, 0.1482450922483026, 0.14714636938811576, 0.14607098873081342, 0.14495135943486992, 0.14381204617016927, 0.14272658545307457, 0.14150904166071246, 0.1402629615544307, 0.13912193239448134, 0.1378004040817375, 0.13633427781679724, 0.13498272906651737, 0.13359999789604826, 0.13224463709661802, 0.13079297813633933, 0.12940182511347692, 0.12788517674618743, 0.12634655849725318, 0.12473881968687517, 0.1231608271577437, 0.12156308719229995, 0.11993355947173912, 0.11827958238379713, 0.11679987624728508, 0.11507342553603445, 0.11313120438381001, 0.1114062524433477, 0.10965656324731199, 0.10794163931124222, 0.10613868485616934, 0.10431784370617354, 0.10247983510018147, 0.10062543283819901, 0.09884292176255556, 0.09694718448190577, 0.09501923164112182, 0.09310889462947791, 0.09118894573461322, 0.08930667821429164, 0.0873636193082668, 0.08543320628549497, 0.08347870726441832, 0.08152137044942175, 0.07957919743978753, 0.0776155963057677, 0.07569858984411844, 0.07372961317204185, 0.0717645404682011, 0.06983293917280328, 0.06787334272712284, 0.06585671863488654, 0.06391994135730827, 0.061987759099139575, 0.06004971967936926, 0.058131852748643215, 0.05621578727058618, 0.0543152812388444, 0.052424798720912706, 0.05058072958679637, 0.048710076994049195, 0.04687892349505189, 0.045038770435948935, 0.04321832102226795, 0.041354392065554475, 0.039584368256823765, 0.03805500578061659, 0.036296727360006796, 0.03457309836047005, 0.03284303251390776, 0.03119324085248721, 0.02938895810610801, 0.02782751574948792, 0.026288924795642918, 0.024897874821324203, 0.023396117452534837, 0.021831352717200596, 0.020415302960486846, 0.01903172153205413, 0.017752375546426755, 0.016430199464742716, 0.01538865171739833, 0.014120402443911611, 0.012909193912388116, 0.011678347594719342, 0.010588415857214288, 0.009595992780979763, 0.00860227913780783, 0.007662928545719917, 0.006585726877347252, 0.005780161994165156, 0.005252353665568179, 0.0045084181111003435, 0.0038261283137090507, 0.00321129881053596, 0.002651651104104438, 0.001967734506316974, 0.001556611548224424, 0.0011980274286588187, 0.0009231137414208625, 0.0006717385653596554, 0.0005209489435603221, 0.00038537222838528826, 0.00031462950381487336, 0.00036216178635658776, 0.00041732401323870696, 0.00044397462006091416, 0.0006533762527932285, 0.0009288202353339067, 0.0013182849474909226, 0.0017238305543884813, 0.002102670569119197, 0.0026663143123542934, 0.003298248377190373, 0.004069923491032956, 0.004833911872558963, 0.005662541288889794, 0.006581188340315707, 0.007576613994494908, 0.008538650547265063, 0.00970345573114967, 0.011068838290345887, 0.012363418001582725, 0.013740140965131807, 0.015146614429672974, 0.01669451775193663, 0.01855511825833972, 0.02023297505313704, 0.022004361079404917, 0.023751196109432278, 0.025720179088985256, 0.027836429289964413, 0.029963528746921205, 0.03217730856196409, 0.034343135586106854, 0.0367457281444672, 0.039220265579799025, 0.04177987533839153, 0.04441829722672245, 0.04729938855973705, 0.050076486610172895, 0.05279731213858602, 0.055770869965499854, 0.0588238993554287, 0.06202090993637575, 0.06522580583867901, 0.06856129963923499, 0.07192783258245322, 0.07538019733570181, 0.07891764464923433, 0.0825394647575073, 0.08614002558391176, 0.08994185595936269, 0.09382020976563023, 0.09779280729202083, 0.10182258537241945, 0.10590112079959083, 0.11009022942613544, 0.11435519570928843, 0.11869595744098321, 0.12311236872239308, 0.12765085217181363, 0.13221191987291783, 0.1368503693338226, 0.14148376549867805, 0.14628487593927128, 0.15116799716214574, 0.15610814154471522, 0.1611188128268409, 0.16624618750713763, 0.17139053343974053, 0.17665888374831293, 0.1819386062543691, 0.18729070683300283, 0.1927253636582129, 0.19821633757423945, 0.2036827210546509, 0.20932142885821106, 0.21502070695518238, 0.22072160010704014, 0.2265473844894091, 0.2325682733075722, 0.23848633183749818, 0.2444665751972662, 0.25046648979801034, 0.2565712170731321, 0.2626784030224944, 0.2688983920694852, 0.2751678713618131, 0.28135771893622896, 0.28773980301706786, 0.2942430926952271, 0.3006940143898183, 0.30718893505325484, 0.3137152080748859, 0.32029658100538183, 0.3270522629413655, 0.33369601067690624, 0.3403852875185102, 0.3469545699452072, 0.3537488509926851, 0.36069541048998105, 0.36753315394523406, 0.37440606417300687, 0.381283093578218, 0.3882243830428093, 0.39508285269757776, 0.4020925299652718, 0.4091558373300033, 0.4161977193788607, 0.42325877449092536, 0.4302095690304221, 0.43732166646679266, 0.4445878781318369, 0.45169795472582613, 0.45882383312768477, 0.4659462524159937, 0.4731006504213554, 0.4802470996870241, 0.4874211981633212, 0.49460065366573996, 0.501684870386492, 0.5088831354000887, 0.5160242379273388, 0.5232190345275433, 0.5304046209492198, 0.5376504411453695, 0.5448070402296783, 0.5520963066114316, 0.5592191975084538, 0.5663397011981046, 0.5733502150013965, 0.5804713907329654, 0.5875417100697651, 0.5946340929545743, 0.6017056825003781, 0.6086852956153486, 0.6157204638223941, 0.6227446445659441, 0.6297198807857249, 0.6366660015931661, 0.6436110785566692, 0.6504919772329659, 0.6572778451288719, 0.6641036027904544, 0.6708919272057686, 0.6777468095974153, 0.6844440410594856, 0.6910600048057838, 0.6976919143481523, 0.7042826932242056, 0.7109882948245118, 0.7174724812853234, 0.7239199703471034, 0.7303280557544193, 0.7366942039274927, 0.7427536521367923, 0.7490621188709838, 0.7554005096138352, 0.7615705723561929, 0.7676826107441592, 0.7737940271329499, 0.7797798998223306, 0.7855216398719478, 0.7914145686810639, 0.797236636829761, 0.8031104322589285, 0.8087755721269405, 0.8144175369311382, 0.8199482989394687, 0.8254149109282439, 0.8307808677444455, 0.8361191060940689, 0.8412993953307613, 0.8465066602419398, 0.8516364318411581, 0.8568633182663254, 0.8618149701926202, 0.8665403743698984, 0.8713724060882624, 0.8761231308976393, 0.8807688523623424, 0.8853587495828006, 0.8898764500581431, 0.8942968602197381, 0.8986334270543685, 0.9029381505004341, 0.9070989416271134, 0.9111773429559302, 0.9151724062343245, 0.9190832285985019, 0.9229147823046222, 0.9266538531463067, 0.9302307624432317, 0.9338059164921807, 0.9372889428775613, 0.9405223286874459, 0.9438407294283646, 0.9472560781617323, 0.950347914275017, 0.9533516057458119, 0.9561438860888535, 0.9589843748061281, 0.9617159113334246, 0.964363636726202, 0.9669140360736197, 0.9695481768711133, 0.9718819458471541, 0.9741876075894119, 0.9763398815490504, 0.97840657618175, 0.980298752661288, 0.982201102813262, 0.9839507675911705, 0.9856714737280017, 0.987294062512231, 0.9887722032938663, 0.9902053949659263, 0.9915329468675396, 0.9927679326669383, 0.9939040851001145, 0.9949128848810422, 0.9958569215345119, 0.9965681708640848, 0.9973325742920863, 0.9979922544296709, 0.9987122217414034, 0.9991468833758291, 0.9994674083600209, 0.9997233701033471, 0.9998872104568955, 1.0, 0.9999752215422198, 0.9997798069953125, 0.9995873314229714, 0.9993013151730414, 0.9988292359045521, 0.9983702221415373, 0.9979954317998564, 0.9973219618802256, 0.9965649258394891, 0.9957008166488923, 0.9947791478528702, 0.9938423211551105, 0.9927418390830193, 0.991560793892519, 0.9902173964994856, 0.9888851963505292, 0.9873627819576986, 0.9858741698501957, 0.9842960942181238, 0.982659415168421, 0.980903752540168, 0.9791292547832953, 0.9772007608956479, 0.9751953117864897, 0.9729444613252488, 0.9708084637418868, 0.9686288942439955, 0.9663210769982656, 0.9639352591303414, 0.9615312793028228, 0.9589866116903535, 0.9562491656590552, 0.9535802008935043, 0.9508358120817982, 0.9482044792630947, 0.9452912240389233, 0.9422309240092027, 0.9392096690545474, 0.9361242482711559, 0.9329873478074725, 0.9297752018946092, 0.926520133927271, 0.9231859028529102, 0.9197941713148493, 0.9162641641516779, 0.9127703588187684, 0.9091355165127017, 0.905534835695642, 0.901873343456717, 0.8981532098528642, 0.8943764813717725, 0.8905392626767389, 0.8866557886418562, 0.8827209109712622, 0.8788762842430541, 0.8748259741943359, 0.8706612390015324, 0.866543651826744, 0.8623840486208123, 0.8582943791868679, 0.8540402268409181, 0.8496488084966204, 0.8453435745771394, 0.8410007910761572, 0.8365226591141527, 0.8321212706849591, 0.8278089820963618, 0.8233151013346718, 0.8187932992748282, 0.814221097485402, 0.8096489754313693, 0.8050502712191553, 0.8004261234881132, 0.7957776762579477, 0.7911235706537734, 0.7864277625618797, 0.7815779842840546, 0.7768604267324464, 0.7721175328491333, 0.7675146942478923, 0.7627067508177803, 0.7576845914527194, 0.7528826648790999, 0.7482176282126463, 0.7433569770542052, 0.7384890046228227, 0.733608603241305, 0.728728932499339, 0.7236981203687632, 0.7188270087555563, 0.7139441044156865, 0.7092497329757699, 0.7043242791687042, 0.699124130943761, 0.694244559858327, 0.6893548148812172, 0.6845565803657855, 0.6796414347266448, 0.6747112825375327, 0.6698045352486792, 0.6649016705487729, 0.6599981150735258, 0.6551074650959697, 0.6504105548343521, 0.6455117610313945, 0.6406328242765491, 0.6356508433643099, 0.6308258856921908, 0.6260188018404549, 0.6212181147436747, 0.6164316237244091, 0.6116718302889415, 0.606914765446433, 0.6021342213990482, 0.5974177022570585, 0.5927176524084741, 0.5880351094307796, 0.5833710669070078, 0.578662337903918, 0.5740462231537747, 0.5694477503710348, 0.5650023852146164, 0.5604262134076146, 0.5558323516746448, 0.5513200035260134, 0.5468340782250473, 0.542258457818422, 0.5378416173376912, 0.5334169911741667, 0.5290480010027432, 0.5247014754474325, 0.5205129511289431, 0.5161985501109706, 0.5117839317492274, 0.5075542594755978, 0.5033509641644135, 0.4994375632981132, 0.4952571301415204, 0.49106840114206696, 0.4869816942701148, 0.4829338608552893, 0.47873197677287954, 0.47478479102096766, 0.470986874130761, 0.46707913657807454, 0.46320753854977487, 0.4593021673724664, 0.4555118809730712, 0.4518706348796506, 0.44813110510094606, 0.44443178794119037, 0.4406614919413205, 0.4370554515105469, 0.4333949027825681, 0.4298664748720519, 0.42636731342873263, 0.422956938908586, 0.41951242623304935, 0.41620861156684635, 0.4128226513373725, 0.4094789430617994, 0.4060194430606171, 0.40277836809187023, 0.3996565060496426, 0.39646868309855315, 0.3933190212057601, 0.39006163231299845, 0.38700636033872116, 0.38399234541117017, 0.38099581120489806, 0.37803141331930534, 0.3751697508055192, 0.37226254889920435, 0.3693987875320858, 0.3665658147989716, 0.3637702557631021, 0.3611109019976529, 0.35837663217884563, 0.3557193041903178, 0.3530633750099002, 0.35044916033828993, 0.34785791500435226, 0.3453256939987229, 0.3426150286158627, 0.34018386440932824, 0.33777632338873786, 0.3354342571136906, 0.3330717413349324, 0.3307319273811877, 0.32842746212783247, 0.32615161265804404, 0.323980311259243, 0.32175242784042046, 0.3194817869193603, 0.3173288886506082, 0.3152034278729814, 0.3132103197245349, 0.3111262848825844, 0.3088886987610218, 0.3068932794863124, 0.3049183915186261, 0.3031103735217734, 0.30115968474250354, 0.2992215232123556, 0.2973321111376259, 0.29546983383354836, 0.2936281140423935, 0.291818624943168, 0.2899288095351465, 0.28818120480389603, 0.28645106207046106, 0.284750261861096, 0.2830541285036651, 0.28152808917974936, 0.2798496364510883, 0.2781978536973095, 0.2766820626691698, 0.2750653268246771, 0.27340159520793395, 0.2718499902570418, 0.2703190007049301, 0.2687842124763212, 0.26729421039877665, 0.26567470366522994, 0.2642349768488863, 0.26280199373110386, 0.2613529783686419, 0.2599379541691245, 0.25855881337549846, 0.25715396989663214, 0.2557581962579487, 0.25433063699020186, 0.25295798224988986, 0.2517783938099644, 0.25039522873004366, 0.24902917390280427, 0.24753292153887899, 0.2462150258500824, 0.2448551484221231, 0.2435524410892566, 0.24225164638901106, 0.24092383996543648, 0.23963115481159503, 0.2385199272952217, 0.23720601150248183, 0.23590328842306982, 0.23445291732633478, 0.23318836662503334, 0.2319863989434496, 0.230710778211018, 0.22943742961052024, 0.22808421645758786, 0.226824222856272, 0.22556625068832017, 0.2242980684294501, 0.22302666395008952, 0.22184531002166683, 0.22055555172115893, 0.2193433963113204, 0.21804675118173777, 0.21675440775736252, 0.21523173168718343, 0.21397340367009274, 0.21297067112660545, 0.21165400756714814, 0.21034128370912325, 0.20879767675883934, 0.20751771123014975, 0.20618930382341988, 0.20488756687419984, 0.20357173381652924, 0.20242334468613288, 0.20105869276142121, 0.19956963112493878, 0.1982155294524192, 0.19685067060406347, 0.1956676240369384, 0.194257334394126, 0.19281826174661462, 0.191410890449438, 0.18999939772776925, 0.18830294088205743, 0.18691580920574222, 0.18570451584492445, 0.18424907542798055, 0.18284944501367312, 0.18136884285473262, 0.17988276085960303, 0.17827957666481611, 0.17679412910234688, 0.17528892498497484, 0.1737766823233796, 0.1722507877968208, 0.17082815408847318, 0.16926106542371297, 0.1675069038167118, 0.16594930241086558, 0.16437386763789474, 0.16289811423250591, 0.16127486005227357, 0.15971268481459577, 0.1580624870295593, 0.15640673945138123, 0.1548087893590288, 0.15313156584583165, 0.15146199511534225, 0.14977427120907108, 0.14808132367516838, 0.1463473463946368, 0.14464604424952549, 0.14297629303538426, 0.14125112228929632, 0.13951868415702626, 0.13786022449954602, 0.1361018657238661, 0.13424080799711233, 0.13248704106266884, 0.13072270196254082, 0.12906469456885725, 0.12726534991136063, 0.12546290134742788, 0.12365675538372138, 0.1218464490223325, 0.1202123925001138, 0.11836998106728784, 0.11627626804427185, 0.11447529136316134, 0.11266240007288215, 0.11094941305108826, 0.10910173436094482, 0.10736209644705709, 0.10549492299487068, 0.10363129763662499, 0.10168300323020411, 0.09983543416372831, 0.09811882996373171, 0.09624841264629615, 0.09438320248179863, 0.09259254785360187, 0.09072719849036737, 0.08876462065933796, 0.08692723544247687, 0.08509035047959779, 0.08331270301895416, 0.08147077345931203, 0.07975063520645026, 0.07790437567522603, 0.07607004944407444, 0.0741653101108716, 0.0723632083206791, 0.07059016122943648, 0.06879700148342233, 0.06701178508271362, 0.06527565521559463, 0.06350220454090774, 0.061810104962097295, 0.06005072024102822, 0.05830702256960228, 0.056561254670948635, 0.05485047861433407, 0.05313649716335058, 0.05145673119421042, 0.049790792108802724, 0.04809836581503689, 0.04646678416325333, 0.04487167521854795, 0.04326437034934497, 0.04167335938591925, 0.040309255326884355, 0.03872640756023911, 0.03712128271701374, 0.03560449962902739, 0.03411323995669428, 0.032513244332013296, 0.031089652737755918, 0.029753911786042933, 0.028358472227966135, 0.026987261437573067, 0.025704989788861772, 0.02437586372712541, 0.023152145752023186, 0.021872764593153775, 0.020627550681898706, 0.019433647472993608, 0.0182536455407817, 0.017032338727607843, 0.015930788501380126, 0.014859344917821302, 0.013807044389807148, 0.012799395251960517, 0.011829157419035187, 0.010884751539508915, 0.00997388429923764, 0.00914395759961091, 0.008296531381909503, 0.007499175141516196, 0.006727455058543761, 0.005995564643918478, 0.005303846734263184, 0.004652684605862472, 0.004124128192144067, 0.0035450417976264624, 0.0030124341945201583, 0.0023803749266644255, 0.0019587753150148734, 0.0015461254678603717, 0.0012056948687501096, 0.0009042039457029565, 0.0006779962235809653, 0.0004539404145355927, 0.00032705896115931585, 0.0001865724118615807, 9.530895354322057e-05, 7.107261489816274e-05, 7.69960089742551e-05, 0.0, 0.00012547412921483608, 0.0002950684648491086, 0.0005800954426504057, 0.0008329965571683641, 0.0013009023633255752, 0.0016371108974498555, 0.002035140959414491, 0.0023833297561025343, 0.0029165269801102425, 0.0034040013299057015, 0.004056945718285787, 0.004758546468018518, 0.005574139025304081, 0.006368425542246995, 0.007124953019160093, 0.008042489933832025, 0.009011078907248747, 0.010014326031086323, 0.011090415224704178, 0.012376978582242135, 0.013540179992290676, 0.014767024519921694, 0.016016170582422953, 0.017373957288198613, 0.01875674443126852, 0.020238922816136082, 0.02177912838109793, 0.023237717889766574, 0.02491253148352048, 0.026813245624056042, 0.028569230759348495, 0.030388518059841454, 0.03229987824839688, 0.034240971820948284, 0.03626928735290417, 0.03833471351794058, 0.04046437064862547, 0.04248856462038455, 0.044766327843592954, 0.047219665880224866, 0.04958913291843405, 0.05202033565227575, 0.054495488012047996, 0.05705150971204022, 0.05974325228176688, 0.06240941838523166, 0.06513952592562636, 0.06781621819219172, 0.07068679727953193, 0.07367687727726792, 0.0766504378289278, 0.07968362070384342, 0.08280528940209458, 0.08595315902415222, 0.08918473728701451, 0.09244989910543008, 0.09577572057457, 0.09913820609496912, 0.10258631853068668, 0.10610353951322794, 0.10966468845048008, 0.11328317358845684, 0.11687105462799875, 0.12061384454788619, 0.12426770808686599, 0.12813045659104924, 0.13203675229793807, 0.1361976967733845, 0.14016790653731473, 0.1441089299392296, 0.1482056645327175, 0.15235364195804615, 0.1566575225960205, 0.16089378151890354, 0.16506369497740214, 0.16942636089460256, 0.17396404224526132, 0.1784037914297119, 0.182897061959846, 0.18728508229815025, 0.19190135076523926, 0.19654099016147, 0.20124130335691784, 0.2059815997540881, 0.21093683876621952, 0.2157349789042479, 0.22057687366232728, 0.2254732509964017, 0.23041563701774295, 0.23516934945177437, 0.24022896182284453, 0.24528235492218417, 0.2504045263509111, 0.25555452161558295, 0.2608903014799054, 0.2660774354836093, 0.27114483228768915, 0.2764260089797613, 0.2817335560750908, 0.2872132879046938, 0.2925551327164531, 0.2977854731169397, 0.30321276349141274, 0.30866314359269487, 0.31421797515239025, 0.31970329189755864, 0.325220976088817, 0.33075739950631106, 0.3363182283607202, 0.3418263866791717, 0.34744179154006843, 0.3532309747972983, 0.3588585211312801, 0.36450988942493523, 0.3700839146142853, 0.3757894384332364, 0.38137911532223134, 0.38712475286732173, 0.3928736622909728, 0.3988182775727626, 0.40454930471991496, 0.4102532088905629, 0.41601485218188766, 0.4217841216839354, 0.4275654071112664, 0.43334489745243915, 0.43913976404194616, 0.4449238008642449, 0.45070941818742577, 0.4564193664561273, 0.4622134166611128, 0.4680880088903868, 0.47385641381620147, 0.4796212647252169, 0.4853868481788311, 0.4911392676336058, 0.496732361221417, 0.5024870349625808, 0.5082225856397816, 0.5139796573840792, 0.51967116699727, 0.5253041667984705, 0.5309646244825618, 0.5366034013991308, 0.5421907577281777, 0.5477880238795603, 0.553354158382732, 0.5589009976578103, 0.5644209992069421, 0.5699309797101335, 0.5753929939953597, 0.5807860992641241, 0.586196077437481, 0.5915736188424494, 0.5968596729336649, 0.6021774220000997, 0.6074512192248983, 0.6126930197741355, 0.6178953837319265, 0.6231218633459159, 0.628235400051292, 0.6333169286214232, 0.6383527265092115, 0.6433483742192084, 0.6484774458600027, 0.653366643058634, 0.6579008167238686, 0.6627592063598731, 0.667560065364507, 0.6725310454704071, 0.6771886823397248, 0.6815861036552225, 0.6861800669932375, 0.6907135609472392, 0.6952856647964893, 0.6996854362097065, 0.7040123383113738, 0.7083024157768032, 0.7125338499551043, 0.7169039170312105, 0.7209900869785263, 0.7249675300351646, 0.728957688603225, 0.7328892713153133, 0.736684797904485, 0.7405038899604961, 0.7441971425014225, 0.7478877928963555, 0.7515061502009966, 0.7551102669106258, 0.7585758540426863, 0.7619132175155903, 0.7652455053476069, 0.7685029533488055, 0.7716327698079234, 0.7747461993861361, 0.7778974294919933, 0.7808385112436805, 0.7837073097485855, 0.7863978312025379, 0.7891322799726788, 0.7917797937354768, 0.7943527544670341, 0.796844197676407, 0.7993881651754107, 0.8016993717435515, 0.8037380130375976, 0.8059243937665909, 0.8080229241652657, 0.810022485783688, 0.8119483139947248, 0.8138860869155515, 0.8156253807185408, 0.8172836905779403, 0.8188137771643658, 0.8203142764052679, 0.8217470003190938, 0.8230746456268452, 0.8243177811265298, 0.8254411576716878, 0.8265189188697865, 0.8274919667663684, 0.828397562826835, 0.8292150696184173, 0.8300379577099904, 0.8306679975070725, 0.8310523836364265, 0.8315376531354252, 0.8319301883455774, 0.8323940927128921, 0.8325829481736782, 0.8325505557695265, 0.8325937813600502, 0.8325465350265836, 0.8323861127028006, 0.8321626802388052, 0.8318900011189398, 0.8314819649632389, 0.8309874691419533, 0.8305467124847509, 0.829862385886494, 0.8290827560979371, 0.8282441776991637, 0.8273252750175558, 0.826244007742394, 0.8251736634605988, 0.823906728771901, 0.8226793400819189, 0.8213610505736194, 0.8200174609678407, 0.81851354330434, 0.8170080473045155, 0.8153280642031997, 0.8135707990369281, 0.8117187723507696, 0.8098092760595146, 0.8077518261242947, 0.8056955926071572, 0.8035582640783921, 0.8012475873816974, 0.798962957569969, 0.7966300247923946, 0.7941761163970817, 0.7916442162377872, 0.7890180664269729, 0.78633604801889, 0.7836077704142531, 0.7807724840635804, 0.777865861780011, 0.7748946548223714, 0.771847378553652, 0.7687843167712912, 0.7655947432674549, 0.7623415872138102, 0.7588911983573176, 0.7555292720490916, 0.7520569796144988, 0.7485628238299414, 0.7450468111995497, 0.7414116316951351, 0.7377142228692967, 0.7339034135874747, 0.7300920634462528, 0.7263418006901224, 0.7223938831820412, 0.718394672953976, 0.7142397271982591, 0.7101528034223701, 0.7060454098637791, 0.7018446921890797, 0.6975935093401127, 0.6933513303394205, 0.6889953227838214, 0.6846422404547247, 0.6801935774808421, 0.6757052407690606, 0.6709910681108853, 0.6664483444882947, 0.6618861829440325, 0.6572447767198099, 0.6525606760887849, 0.6480105430498896, 0.6432240859027311, 0.6381998727411037, 0.6333844262339566, 0.628529807986788, 0.6237605621152179, 0.6188183059504968, 0.6138380802947312, 0.608845516643743, 0.6038277053205099, 0.5986865396975536, 0.5936338451357578, 0.5884718383314584, 0.5833759897828943, 0.5782515711760385, 0.5731942648032097, 0.5680079302573586, 0.5627000458104052, 0.5574950293245432, 0.5522699874477465, 0.5472310506448851, 0.5419461928624024, 0.5365186394295983, 0.5312460583816752, 0.525963175617636, 0.5208230375962124, 0.5155046760114572, 0.510107101467858, 0.5048040097000588, 0.49949909761041356, 0.4942400068311129, 0.488928556909317, 0.4834576708011996, 0.47817517664175285, 0.4728887202894803, 0.4676761770740319, 0.4623783156314268, 0.4572382206578493, 0.45193465648362696, 0.44664802090483596, 0.44116829098806437, 0.4359418497613406, 0.4308430590876119, 0.42561348350536454, 0.4203997527379312, 0.41504517515395317, 0.4098852877115042, 0.4049212932375592, 0.3997585008664606, 0.39461949188038076, 0.38946375313675047, 0.38437844702074025, 0.37909416433577814, 0.37408287102794774, 0.3690833572293789, 0.36422649393740425, 0.3592418761608589, 0.3543416765404396, 0.3494028587184923, 0.34449528835709103, 0.33949692494376915, 0.3346685749635213, 0.329860055684272, 0.32508521542368857, 0.3203384990595048, 0.31587191940813564, 0.3111535151539022, 0.3062534841134446, 0.30165438872638917, 0.297086493815697, 0.2924809954603958, 0.287987759374861, 0.2835192098221704, 0.27908923214396614, 0.2746922786242295, 0.2704054175266281, 0.266068609198338, 0.2617666964713334, 0.2575124025031616, 0.2532991394246557, 0.24923220048914868, 0.24508872334050807, 0.24087067371755655, 0.2368378633251308, 0.23284501230486515, 0.22892768774902092, 0.22501202421985558, 0.2209940999043828, 0.21718403499423414, 0.21340958507138813, 0.20970120299145908, 0.2059980362043476, 0.20241719150948226, 0.19878571853984825, 0.19520069570387502, 0.19159778997955115, 0.1881132013510998, 0.18483416185662607, 0.1814138392441575, 0.1780455770974692, 0.17468746659073714, 0.17142531804469036, 0.1682682903126262, 0.1650919291049501, 0.16196476018818906, 0.15885676663508547, 0.15582916639600022, 0.15280596685321277, 0.14987356086005116, 0.14698331102320433, 0.144006920605037, 0.14121712455938035, 0.1385437952128879, 0.1358142941444559, 0.13312595119457848, 0.13035632060848917, 0.1277657351338262, 0.1252792768383583, 0.12274901635494494, 0.12025839448738994, 0.11781906193232264, 0.11540614694274895, 0.11307995501988224, 0.11074101686919471, 0.10844417998411629, 0.10616539757406648, 0.10395355718115887, 0.10168708963681893, 0.09956388083442719, 0.09747309564081374, 0.09553157661700779, 0.0934914665509661, 0.09142655686857917, 0.08947223556306251, 0.08755169200865771, 0.0856236969713981, 0.08377459498568327, 0.08207808761419705, 0.08027361959192206, 0.07850574744856832, 0.07669155109341279, 0.07500339445648303, 0.07320364423773931, 0.0715894250215351, 0.06999476836117963, 0.06849608840805643, 0.06693264620599698, 0.06529525206957253, 0.06379423676669867, 0.06231188240577654, 0.06098838526980204, 0.05952629233775835, 0.05819604386827781, 0.05677322481483862, 0.05538075828162282, 0.053870877825882776, 0.05255170148236071, 0.05121996742075022, 0.049937233185885686, 0.04866854593260795, 0.0474835982955363, 0.04623326608017768, 0.04505237898053995, 0.043828345770860234, 0.04262225057250236, 0.04139190820517706, 0.040222817978994144, 0.03904799725379972, 0.037903811226791075, 0.0367687597589328, 0.035595538453302766, 0.03448267777785729, 0.03344432260151004, 0.03233139727217675, 0.031226309245894243, 0.030046486496618077, 0.028964605294721606, 0.02785992984749895, 0.02678186084397747, 0.025650088606141035, 0.0245760891731509, 0.023497622879770145, 0.022543147219608053, 0.021439960455826183, 0.02031641552593107, 0.019220973342486743, 0.018124972417957783, 0.01691095393774277, 0.01582607699684827, 0.01467916225004942, 0.013581962497369874, 0.012472487279893427, 0.01145609556169629