0.02470020936062824, 0.024385332501761756, 0.024142478016943088, 0.02388543023248405, 0.023548062895603093, 0.023354322121064953, 0.0231740176458204, 0.02310840495820503, 0.02293593041831631, 0.022696944325411323, 0.022560327024171458, 0.022429290744396212, 0.022324107167799798, 0.022199408400400744, 0.022137074693354433, 0.02201454313389573, 0.021899396209748463, 0.021689537939194047, 0.021600187680689057, 0.021547407946375934, 0.021454468460962366, 0.02136498155841482, 0.021315631940186857, 0.021229444671907217, 0.02110961288567912, 0.021041717007442028, 0.020978388713706168, 0.020956523064247664, 0.020899315993116584, 0.02073736522559252, 0.020711014781553405, 0.020686965128358856, 0.020719975890978872, 0.020697159004719495, 0.02067330055242404, 0.02066921736547486, 0.02066638034833575, 0.020681567812997178, 0.0207061938492516, 0.020731188982419862, 0.02077736903645146, 0.020879786985586506, 0.020941246150689725, 0.02101651464870678, 0.021115207390168953, 0.02121703620172561, 0.02124726553522785, 0.02138905695746323, 0.02154059263187561, 0.02168156568533757, 0.021857424541721272, 0.02208408300601232, 0.022276803678945994, 0.022483779610131774, 0.022718684716208814, 0.022953289631090414, 0.023171147469360526, 0.023441575699827636, 0.023726228721757364, 0.024033160618939484, 0.02434646215737344, 0.024687017425428857, 0.025030670942697453, 0.025391257156229172, 0.025732563763981954, 0.026132078039407546, 0.026598635998875523, 0.027022809422464402, 0.02746614026630812, 0.02789225091455758, 0.028378486649299175, 0.02886465894682943, 0.029387755468025793, 0.029927749371149438, 0.03058272362464707, 0.0311455524160377, 0.03170337713864989, 0.0323168590552314, 0.03295173742109692, 0.033493165208241714, 0.03418536736777427, 0.0348830290349376, 0.035607510125038315, 0.03634841438836919, 0.037144938119120285, 0.037916515898005716, 0.0386957767449506, 0.03951159407691244, 0.040348484977557025, 0.04125283315571016, 0.042127376097240876, 0.04299619983286926, 0.04392441726002171, 0.04487583036046922, 0.04582966840246063, 0.04683097199994189, 0.047822565997954765, 0.048874058528187395, 0.049947359956339595, 0.051098597485981063, 0.05221030613534099, 0.0533141842392845, 0.054483508940542644, 0.055677569103501745, 0.0568718006121047, 0.05811940562821162, 0.059402713594881786, 0.06069775335246927, 0.06201850968304391, 0.06339205019496395, 0.06476164211282746, 0.06610369109632826, 0.06753621293987308, 0.06899356301316098, 0.07053360671922199, 0.07203464079602143, 0.07351323928029208, 0.07507913726798657, 0.0766710879447014, 0.07834297962253303, 0.07998111318416386, 0.08166631556847051, 0.08336172139289555, 0.0850874905357042, 0.08678396241809921, 0.08857701504669954, 0.09044407392082171, 0.09228363632335078, 0.09415249898922895, 0.09602174729058997, 0.09795224350249841, 0.09993857436232456, 0.10191976187259513, 0.10392981031736047, 0.10592450324255971, 0.10799726664741557, 0.11000782537195579, 0.11214358459416325, 0.11430057594213906, 0.11661742529721701, 0.11880179304744701, 0.1209961770500754, 0.12324472577874217, 0.1255219667007113, 0.12779691101169402, 0.1301343281612922, 0.13246130095633013, 0.13485507816708095, 0.13727255271104047, 0.13964881789202438, 0.14212236467803893, 0.1446411795564646, 0.14715288832426546, 0.1496873414055738, 0.15231165535767957, 0.15488344358689413, 0.15747618600583463, 0.16010150338745963, 0.16275203451475026, 0.16534496920417416, 0.16805481497672317, 0.17086988099925898, 0.17360719234832078, 0.17636869808075742, 0.1790446348225631, 0.18186634570694202, 0.18473098715778133, 0.18758184743358633, 0.19045078740244734, 0.1934372064152931, 0.19632928788811643, 0.19921962206962215, 0.2021600521317494, 0.2051201489158741, 0.2079958073519659, 0.21100607956578513, 0.21402038148167352, 0.21705513722420022, 0.22010135014881047, 0.22326624231180997, 0.2263218552127456, 0.2293201808238659, 0.23241890755687225, 0.23552877005713566, 0.23868961149038911, 0.24181557587537406, 0.2448791292236664, 0.2480382264767351, 0.2512038336365585, 0.2544600149857221, 0.25762747624193777, 0.260795962080061, 0.26398481718418426, 0.26718175509138886, 0.2704031412066823, 0.2736115047788059, 0.2768149086408542, 0.2800368255584508, 0.28326275879632484, 0.28648808364055844, 0.2897201560399989, 0.292903912653214, 0.2961444395173091, 0.2993821592507381, 0.3025593260930421, 0.30579766475597997, 0.3090058874189729, 0.312232836627197, 0.315451260360863, 0.3187243279685093, 0.3219176385618887, 0.32509804588954483, 0.328281058430247, 0.33145684114546736, 0.33465720322632625, 0.3378122119774953, 0.34098064281788865, 0.34411669758847674, 0.34724426827873556, 0.3502626745752168, 0.3533824417987699, 0.3564752274962559, 0.3595611389140423, 0.3626285475843408, 0.3657173505869487, 0.3687417170893869, 0.37177172640327594, 0.374757744297755, 0.37772613092385404, 0.380624218946536, 0.38356092697009747, 0.3864205995592001, 0.3893166757168686, 0.39218522469989325, 0.3950930794712874, 0.397897553919738, 0.40064693351310854, 0.4034054252429539, 0.4061359122032575, 0.40892387741225117, 0.41158550653614123, 0.41418177616957774, 0.4167967669305361, 0.4193127302126355, 0.42187526230533545, 0.42440198135997476, 0.42693275684053617, 0.4293817472454786, 0.43174630559052485, 0.434131475714382, 0.4364776415839978, 0.4387748734442368, 0.4410431199557975, 0.44329742270471356, 0.4454804108103354, 0.447623344213539, 0.449694924989258, 0.4517595983417822, 0.4537957891948458, 0.45577051447790035, 0.45770143187931556, 0.45963962455329505, 0.4614746066004369, 0.4632018168787159, 0.4649586224970739, 0.4666671106865574, 0.4683058441304802, 0.46991919141593375, 0.47161007703135677, 0.4731055571916955, 0.47455699465104184, 0.4758520389843075, 0.4772255165096577, 0.4786081794886818, 0.4798655707833773, 0.4810722077220918, 0.4822580094336211, 0.4833571966407677, 0.4843307204874462, 0.4853364848588306, 0.48628546020423796, 0.4872330574464407, 0.48806113674272367, 0.4887701368706864, 0.48949785537456636, 0.4901668027076489, 0.4907693559501075, 0.49132180429098693, 0.49188207309536874, 0.49230774871271626, 0.4926780647246525, 0.4929561151793585, 0.4932187427137746, 0.49338805467608804, 0.4935372132696436, 0.49362538810961515, 0.4936412917065078, 0.4936095154426948, 0.4935089739221943, 0.4933561732895887, 0.49314226137099954, 0.4929019323090157, 0.49256214520972846, 0.4922212596647749, 0.4917570837049895, 0.49123744916388645, 0.49063122388047437, 0.49000309919136864, 0.48930119558770907, 0.48855803514290547, 0.4877555072656706, 0.4868612266039865, 0.4859445508595467, 0.4850341763210739, 0.48398811716163226, 0.4828860396633353, 0.4816551092924335, 0.48044993891577703, 0.4792763987647629, 0.4779397739907921, 0.4765493260414974, 0.47510682821720024, 0.47360814467500334, 0.4719674989805775, 0.4703721613576867, 0.46871812861902346, 0.46710006330951837, 0.4653193797077084, 0.46339209732004255, 0.46152174661745915, 0.45959526149490226, 0.45757721497269593, 0.4555458402027585, 0.45357384543287343, 0.4514181735951862, 0.4492157115653412, 0.4468632138471475, 0.44458063827236893, 0.44224026432468627, 0.43985543751675826, 0.43742045577387273, 0.43495746557702564, 0.4324227481555036, 0.42985178529465007, 0.42722504125428157, 0.4245546414867696, 0.4218987336807253, 0.4191359555012665, 0.4163387825867266, 0.41349936929955017, 0.4106226046314819, 0.4076667751710993, 0.404721876029649, 0.40169651761211816, 0.3986811424429987, 0.3956268650776837, 0.39259618687685166, 0.3894600875097465, 0.386294096975389, 0.3830948131505751, 0.37986520468535684, 0.3766193940330495, 0.37332965012845504, 0.3699628433162876, 0.36662550392607235, 0.3632595348393479, 0.3598182739621045, 0.3564046411172736, 0.35300148691433536, 0.3495289393965389, 0.3460337344327763, 0.34257439854505567, 0.33902993055036384, 0.33546166614769796, 0.33188650667217623, 0.32829607160147734, 0.32460309909453716, 0.32099562327483844, 0.3173742027587176, 0.3137322800055773, 0.31007590129875806, 0.3064945416517499, 0.30280236714556874, 0.299089523696946, 0.29538916627208, 0.2916838359336081, 0.2879571259585406, 0.2842465128575996, 0.2805592934704939, 0.2768395205456067, 0.27311991626150095, 0.2694280973851906, 0.26570793333103354, 0.261936479599337, 0.2582324445388786, 0.2545309142611714, 0.25085798118951663, 0.24716192622624286, 0.2434101831005017, 0.23973801280087972, 0.23607168212569724, 0.2324088344546072, 0.2287590211695515, 0.22517074923623587, 0.22153546580099623, 0.21791556796072, 0.21430613701359807, 0.21072021442013425, 0.2071020844958868, 0.20355845512593537, 0.20003136414522696, 0.1965909974726328, 0.19309206512944918, 0.18958660451531995, 0.18614031388109567, 0.18271758358761123, 0.17925612512081265, 0.17589110806577227, 0.17259653841812495, 0.16927201084673532, 0.16597537838042292, 0.1627725303981062, 0.1595258859540907, 0.15631892450551352, 0.1531396797691549, 0.1499952353227944, 0.1468380324167707, 0.14377015439836574, 0.1406607427557464, 0.13766931407804353, 0.1347083628303483, 0.13177923470161915, 0.128883179699952, 0.12610557476272138, 0.12326842187473463, 0.12047231572022629, 0.11773091321071442, 0.115016003577812, 0.1122518547942502, 0.10963402567451573, 0.10705409700362395, 0.1045972654403544, 0.10208535811634986, 0.09958626183501706, 0.09716925872983033, 0.09480747092287081, 0.09247687539682162, 0.0901914324749122, 0.087882509291598, 0.08569688889188154, 0.08355717382095149, 0.08145602597257706, 0.07939869522028997, 0.07741068257377814, 0.07543963375067508, 0.07357097415502475, 0.07168691542125775, 0.06985331001321027, 0.06799716879769795, 0.06627292297548903, 0.0645713940146701, 0.06294182567914679, 0.0613574062142834, 0.05981287546147359, 0.058320853501752416, 0.05686340994770982, 0.055465292601536355, 0.0541131858795521, 0.05288968957310329, 0.05162002826699313, 0.050399786519748996, 0.049232489461143863, 0.04811535933755659, 0.04703261162864488, 0.046016353899334395, 0.045101635592880086, 0.04417420022797134, 0.04329712163011253, 0.042379705620286985, 0.04161255059072563, 0.040869488049160664, 0.04019132658943323, 0.03955548117623562, 0.03900420613052159, 0.03844803760710796, 0.037980801277234584, 0.03750849799202304, 0.03708278153711283, 0.036727761406165266, 0.036389785804859, 0.03607076670293304, 0.0358267891622562, 0.03562531453220205, 0.03546574478207931, 0.035347487729924576, 0.035273782937418056, 0.035235903997454875, 0.0352377914724549, 0.03524820334780234, 0.03533164182163694, 0.03548189861495246, 0.03563348104057423, 0.03582219666574533, 0.03606650088776035, 0.036325010571861306, 0.036502922734625486, 0.03684766527851833, 0.03722034717253219, 0.037670859717770386, 0.03809340605290557, 0.03860417982608947, 0.03908052044917752, 0.03958973809589621, 0.040036966734267376, 0.04062058525653349, 0.041324365291210065, 0.0419445666981681, 0.042594046269831876, 0.04325251752724912, 0.04395957045651244, 0.04470297866963383, 0.04545742987733388, 0.04623561976288481, 0.046946620876769624, 0.04778076824311324, 0.048716873435065054, 0.04957158686784718, 0.05044648270034355, 0.05134052006032787, 0.052252680938697664, 0.05320876400026467, 0.05415081188037722, 0.05510955185980283, 0.05603406085111899, 0.057029039699461014, 0.058084323057995706, 0.05909344554942155, 0.06011459069198662, 0.06115050530488317, 0.06219200348703815, 0.06319092057036656, 0.06425612996189081, 0.06532553472209983, 0.06635265695283928, 0.06743460688842615, 0.06851264238906107, 0.06959465872418863, 0.07067581988850294, 0.07185531693010572, 0.07292112095233044, 0.0739426396495819, 0.075020339981675, 0.07609641668804233, 0.07712798328653077, 0.07820380474095437, 0.07927331732989525, 0.08033609624574467, 0.08139168097199759, 0.08250848338414965, 0.08353946684175377, 0.08448518577865456, 0.08551546511527255, 0.08653418154095932, 0.08758116337050323, 0.08857054190114974, 0.08961640910824319, 0.09057553989936629, 0.09152639639768263, 0.09240645543771697, 0.09334476603884535, 0.09421993927871286, 0.09513317856737462, 0.09602735922598904, 0.09692338646670268, 0.09777630167715697, 0.09858206826939153, 0.09940131184993971, 0.10019965267355024, 0.10108981495064966, 0.10183144105732397, 0.10243532211045477, 0.10316075305474226, 0.10386178954484065, 0.10464368650807165, 0.10528254145846347, 0.10580896662368909, 0.1064214246760506, 0.10700812331402511, 0.10766661735842609, 0.10818925551141013, 0.10862437757753961, 0.10911352647752019, 0.10957666111602231, 0.11006142451382056, 0.11046586580048551, 0.11075258869270513, 0.11112044723892911, 0.11145801593442055, 0.11187659181275066, 0.1121403576934847, 0.11232145829168881, 0.1125453372473067, 0.11274118558316655, 0.11292805161404126, 0.11306515462118062, 0.113146348594722, 0.11323247010276238, 0.11328938595481203, 0.11333057163371532, 0.11332761408407847, 0.11323710076488896, 0.11318517159481015, 0.11310164847404305, 0.11308271063123841, 0.11292529697765259, 0.11262813787183489, 0.11243502867407594, 0.11220983048763057, 0.11208717239595344, 0.11178275094631202, 0.11144023661614243, 0.11109161391085946, 0.1107182969861061, 0.11030662116457238, 0.10988487575606522, 0.10934329249053715, 0.10888132388975055, 0.10838812599026804, 0.10787220621267066, 0.10731807529176235, 0.10680251271073737, 0.10618369706915665, 0.10554144026500187, 0.10489490703348452, 0.10420346397246669, 0.1034381722451159, 0.10270890751965857, 0.10195459716706264, 0.10127909909442519, 0.10046313155796995, 0.09957964560210573, 0.09873411698294558, 0.09786745466148256, 0.09693397178740928, 0.09603162963433147, 0.09518489285759521, 0.09422760341610843, 0.09322645542248123, 0.0922384706840908, 0.0912320667571731, 0.0901980512277063, 0.08915717638999153, 0.08804878680371138, 0.08697922383227735, 0.08589017025848997, 0.08490123210075119, 0.08376096874972601, 0.08252252675086398, 0.08137299547836031, 0.08020821724067148, 0.079032765223688, 0.0778392282232644, 0.07674385788240322, 0.07551126630513205, 0.07427339248729857, 0.07306445090172362, 0.07181104964098248, 0.07048116038127265, 0.06922921161753409, 0.06796907481724115, 0.0667491640183363, 0.06546831122509592, 0.06414541689878311, 0.06286210272086565, 0.061573380655420416, 0.06041578220653402, 0.05910098626547863, 0.057736754601567755, 0.0564366104172663, 0.05513688135768711, 0.05394500816890615, 0.05263338856861976, 0.051258322041545776, 0.04996994695107519, 0.048684213043469655, 0.047451278513866914, 0.046165764186667645, 0.044923362968510176, 0.04364685810353569, 0.04237944480849438, 0.04111343426812707, 0.0398651698025749, 0.03862574626190232, 0.03739544818727381, 0.036174617583669647, 0.03507082926392342, 0.03385660011739047, 0.032607474243849584, 0.03143298135028871, 0.03027178284304973, 0.02915098022115003, 0.028013951745304022, 0.027009540298801867, 0.025889703419363974, 0.024792792534728637, 0.02370672057197222, 0.022655464222109442, 0.021627056144605434, 0.020617343471931525, 0.019628606014881606, 0.018701125310927897, 0.017749597590155052, 0.016831356657959966, 0.01592601991230595, 0.01504496078206918, 0.014132730812805994, 0.013307492277479939, 0.012561225355279154, 0.011772532957522381, 0.011010011357314834, 0.010306421494951293, 0.009592843019209983, 0.008896577364708384, 0.008242122453149283, 0.007616034743587587, 0.007102809064426759, 0.006523678375097184, 0.005953687773220215, 0.0054454283660760865, 0.0049692580944572795, 0.004511849413490219, 0.0041018146744276306, 0.003731133242928012, 0.003383837843583899, 0.0030693127206685494, 0.002864400225684888, 0.002606602902119549, 0.0024212234088873065, 0.0022347128194860864, 0.002087606530426333, 0.001960355692086974, 0.0018933495244042714, 0.0018790423376172643, 0.0018848807886490688, 0.0019290256761351123, 0.0020899212681574648, 0.0022007197354808918, 0.002314089889664067, 0.002514969474932828, 0.002755404195925232, 0.0030545296306550835, 0.0033716858474804215, 0.0036759921349543783, 0.004081361364339452, 0.004524416827299938, 0.004994141394677777, 0.005515399630326162, 0.006164990992893715, 0.006752120212360801, 0.007383626593288073, 0.007999881258882034, 0.008726816391351502, 0.009603178451352357, 0.010397316124771558, 0.011238559310699848, 0.012126327526325094, 0.01306012952320573, 0.01407591882057309, 0.015096023892013357, 0.016163168524836964, 0.01726152162238504, 0.018423206679449872, 0.019522570229781325, 0.020787353526447765, 0.02209066960544991, 0.02353280422937467, 0.0249027999304957, 0.026267283873706478, 0.027735885809025543, 0.02924727153585851, 0.030799751556878138, 0.03239759578827752, 0.03411336256517407, 0.03578849271706614, 0.03751140474365591, 0.03924908479121141, 0.041070299275377656, 0.04289982871870572, 0.04481492891082918, 0.04677252516497134, 0.04881112106987607, 0.050849505567478005, 0.05299052098256885, 0.05511188483136915, 0.057281324908537726, 0.05950395539474813, 0.06176700222504097, 0.06398679070457948, 0.06635410501880841, 0.06876211101231289, 0.07128576616202664, 0.07376660281974942, 0.07622803146374853, 0.07880800024056779, 0.08142915673801362, 0.08419692572536011, 0.08688757624398546, 0.08953954700293457, 0.09233518800211046, 0.09517192215430775, 0.09808040734898968, 0.10099553143631028, 0.10400325449388352, 0.10699747030440052, 0.11003674891644165, 0.11304386012820539, 0.11618098690299691, 0.1193876507854843, 0.12259882505702836, 0.12585077894663876, 0.12916242604472364, 0.13249283869283818, 0.13586442048703876, 0.13927678441480168, 0.14272955932515433, 0.14625683945447437, 0.1497850198214878, 0.1533621618700866, 0.15697138166506572, 0.16062117004334125, 0.1642956274922794, 0.1680267659892733, 0.17170600853247794, 0.17552428426082003, 0.1793748655739371, 0.18330024414965165, 0.18721118234327802, 0.1911921526922624, 0.1951697148122161, 0.19918440811954746, 0.20326061667682574, 0.20734495002438966, 0.2114606241776589, 0.2156191957477319, 0.21981325728289847, 0.22398867810091136, 0.22825890036877702, 0.23256962163361855, 0.23690044248160716, 0.24126259141044298, 0.245682662998433, 0.25010345328725564, 0.2545487478420654, 0.2590343451064947, 0.2635756001229109, 0.26811919887380264, 0.27269415939460584, 0.2773553793099673, 0.2819842448401662, 0.28651376505591974, 0.29122377407598904, 0.29595717465167826, 0.3008385772718485, 0.3056035608433863, 0.3103380566390578, 0.3151712989390792, 0.3200299216342913, 0.3248924858650956, 0.32980336872843175, 0.3347564128453909, 0.3397106807467119, 0.3446885404583852, 0.3496665784492444, 0.35469318357688046, 0.3598019869421004, 0.3648624740462043, 0.36994677035680684, 0.37500429154327036, 0.38014007358843593, 0.38530408871415894, 0.39047566762791797, 0.39566578471302144, 0.40082806336685034, 0.40605973112460203, 0.41130217682782444, 0.4165634382242293, 0.42183883123336413, 0.42712626508853935, 0.4324295833530286, 0.4377175413127081, 0.4430508910610077, 0.4483953449887283, 0.4537660733820369, 0.45913031405472804, 0.46457099218174086, 0.46994929925398965, 0.4753417319796695, 0.4807338847745077, 0.48615328144368947, 0.4914970208802955, 0.49694746495925984, 0.5024019915936472, 0.5078413992617995, 0.5133062535171051, 0.5187507528730486, 0.5242236314613848, 0.5296975501623833, 0.5351781912936666, 0.5406532030658059, 0.5461502135258249, 0.5516241245057867, 0.5570994509336233, 0.56261578675376, 0.5680870413878986, 0.5735026863262588, 0.578983840344927, 0.5844616469723839, 0.5899050128852334, 0.5953785521121723, 0.6008550828584517, 0.6063139355496363, 0.611766051471576, 0.6172606915388313, 0.6226914991056414, 0.6280976140238791, 0.6335187398759762, 0.638931272086493, 0.644242546080503, 0.6496471288197172, 0.6550030504396991, 0.6603794515604823, 0.6657377159741239, 0.6710989396961957, 0.6764182902488695, 0.6817779272415497, 0.687055340973583, 0.6923179681808908, 0.6974748767380974, 0.7027163942624817, 0.7079007424545025, 0.7131009696018067, 0.7182760460844582, 0.7234488588246345, 0.7285703912738963, 0.733619691607055, 0.7386979844135345, 0.7437481147940921, 0.748834932839113, 0.753819752083806, 0.7587427814225868, 0.7636803813761295, 0.7685885863860723, 0.7734935319080674, 0.7783375509609989, 0.7830942008098152, 0.7878846342705883, 0.7926400133758177, 0.797363701752232, 0.802047048290381, 0.8066423498277964, 0.8112588759349619, 0.8158348677103516, 0.8204274889605014, 0.8249143134734281, 0.8293456265784033, 0.8337571498545805, 0.8381276129349684, 0.8424505214886964, 0.8467373253661955, 0.8509498450541005, 0.8551524767543303, 0.8593082751184253, 0.8633765558170959, 0.8674422627215567, 0.8715185566449536, 0.8754749409650612, 0.8793835248312211, 0.8832778939526444, 0.8870839368907001, 0.8907324596793711, 0.894454349100679, 0.8981195387395065, 0.9017719192100976, 0.9053176836073713, 0.9087741815702054, 0.912214009834529, 0.9155957630970636, 0.9189152262208892, 0.9221801192040607, 0.9253931232355023, 0.9285375176075462, 0.9316218915186454, 0.9346399575500329, 0.937603371825649, 0.9404856448050004, 0.9433269592439726, 0.9461041571703361, 0.948836003585327, 0.9514814025994759, 0.954074058318844, 0.956588969514391, 0.9590391436229321, 0.9614602907824278, 0.9637744484737091, 0.9659589346266308, 0.9681512461308777, 0.9702736032704237, 0.9723429844905486, 0.9743224981658088, 0.9762188435449282, 0.97806008980227, 0.9798299836974975, 0.9815129233621948, 0.9831411774897421, 0.9846351012063624, 0.9861247683664205, 0.9875375737645545, 0.9889446419016106, 0.9901956244847042, 0.9912787498761945, 0.9923970778093193, 0.9934370266265601, 0.9944985070164271, 0.9953701952310737, 0.9961164503560319, 0.996850633176845, 0.9975088249559135, 0.998023974982246, 0.9985384658965978, 0.9990706239674159, 0.9994133523797228, 0.9996824920237767, 0.9998795250540063, 1.0, 0.9999884272285036, 0.9999666023097339, 0.9998663654704351, 0.9996879636054251, 0.9994316276128531, 0.999051640442781, 0.9986458905968115, 0.9981602598361382, 0.9976546508314366, 0.9970034175881387, 0.9962217031378866, 0.9954275092110133, 0.9945552013734624, 0.9936358841860119, 0.9926048938648107, 0.9914682562058498, 0.9902912635010175, 0.9890378926291149, 0.9876971159635899, 0.9862937983904948, 0.984824366792883, 0.9832689963427579, 0.9817141611373674, 0.9800015582132009, 0.9782198892795594, 0.9763862153277268, 0.9744638241035678, 0.9724233166675778, 0.9703704389328601, 0.968246353055655, 0.9660324069663079, 0.9637698099245882, 0.9614804806429504, 0.9590715159963935, 0.956595681742057, 0.9539978292018348, 0.951396392138963, 0.948774031396028, 0.9460299359439982, 0.9432216128815195, 0.9402672855133781, 0.9373425238671648, 0.9344405556066823, 0.931371383542834, 0.9282426274902347, 0.924993512479501, 0.921754800358333, 0.9184967401571282, 0.9151308989449773, 0.9117081574932148, 0.9082426443009743, 0.9047066281948072, 0.9010842002640332, 0.8974452522015249, 0.8937520456250929, 0.8900132718387924, 0.8862136860836997, 0.8822944742471619, 0.8784031303597059, 0.8744591570694035, 0.8704660164927069, 0.8664211273703473, 0.8623702966329034, 0.8582253590186798, 0.8540374440442761, 0.8497520082655523, 0.8454880546098488, 0.8411637045427054, 0.836817031219161, 0.8324290635510817, 0.8280568062040141, 0.8235836783817752, 0.8190078181969587, 0.8144766612999875, 0.8099096627532693, 0.8053925484280177, 0.8007477007143086, 0.7959861684630662, 0.7912999405158819, 0.7865833873719802, 0.7818782214588439, 0.7771004447129131, 0.7722990173123816, 0.7674750076030962, 0.7626294909355912, 0.7578037434101567, 0.7529133854880502, 0.7479955614183793, 0.743075471722308, 0.7381403636085334, 0.7330935863300773, 0.7281436971081686, 0.7231820178390358, 0.7181981578560335, 0.7132006483455205, 0.7081624034051229, 0.7031460375675416, 0.6981152837135973, 0.6930799759609101, 0.6880372092318212, 0.6830019683122676, 0.6779472872911548, 0.672911530627414, 0.6678512365716525, 0.6627925773742895, 0.6577825646703209, 0.6527245898435508, 0.6476242763025561, 0.6425881345630409, 0.6375580491064624, 0.6325198777778644, 0.6275073331993808, 0.6225436390583065, 0.6175445717439979, 0.6125588790393193, 0.6075797714253639, 0.6026244101486636, 0.5976119043113682, 0.5926978783230772, 0.5877972894565282, 0.5829557095513821, 0.5780810054732066, 0.5732017613164418, 0.5683718776793449, 0.5635629075031, 0.5587894120091936, 0.554024026462162, 0.5493296195104269, 0.5446094603975937, 0.53991880122388, 0.5352103365661732, 0.5305863885296112, 0.5260177657934637, 0.5214484923259227, 0.516911228891461, 0.5123626827906442, 0.5078971909069498, 0.503411742489283, 0.4990173007274931, 0.49465377821822587, 0.49033405154245, 0.48603499781818005, 0.4818039437821759, 0.47757273517133225, 0.4733808213836534, 0.46920971395101463, 0.4651007417340591, 0.46100508276838725, 0.456980457149397, 0.4529958783540335, 0.4490235156551174, 0.44512523534865317, 0.44136737287457395, 0.43753922702904374, 0.43375935331365134, 0.43001434109899916, 0.4263327006065454, 0.4226948093156176, 0.41910898859761847, 0.4155709003940056, 0.41197549994812155, 0.40854685793587653, 0.4051970726427531, 0.4018498754237292, 0.39854922014164906, 0.3953052313420088, 0.3920980558946985, 0.3889681632840175, 0.38585481973726626, 0.38279225461104854, 0.37978239444456313, 0.37682117731703657, 0.3738113418547368, 0.3709645060272943, 0.36816294692698803, 0.3653959468894205, 0.3626885841310316, 0.36002783759164675, 0.3574142677449711, 0.3548483398017365, 0.3524471847134171, 0.3499628331904773, 0.3474110829737309, 0.34505163154011637, 0.34273889608329683, 0.34048849592026825, 0.3382680991723486, 0.33616104324099116, 0.334028914352425, 0.3319485870017392, 0.32983519945948325, 0.3278672089994195, 0.3259329430982184, 0.32405691784028845, 0.322225580791628, 0.3205461724772933, 0.31879076365196285, 0.31703052463269, 0.3153824906217839, 0.31378008326335566, 0.3121654370756425, 0.3106601915694169, 0.309211284191991, 0.307786131300301, 0.30640274613722157, 0.3051240090357642, 0.30381528684703074, 0.30247052008382236, 0.30125973824919194, 0.30008699858649046, 0.2989501783679948, 0.2978530806312667, 0.2968160895311215, 0.2957900118735153, 0.2948016082208074, 0.29383302534951833, 0.2929202494817371, 0.29210541320432865, 0.29125367435137167, 0.29043916191337654, 0.2895937885900291, 0.2888589431811069, 0.288158208872901, 0.28748298855523496, 0.2868373119505733, 0.28620530287568263, 0.28561892716276294, 0.2851015644589591, 0.2845631534300461, 0.28408546697400094, 0.2835983840898785, 0.2831394625628062, 0.282652026008093, 0.28225297437435876, 0.2818679220756875, 0.28151253795539205, 0.28117713266786143, 0.28095298084000503, 0.280644100228753, 0.28026469990775543, 0.2800127984170755, 0.27977615121159094, 0.2795274428768346, 0.2793230980802219, 0.27920357418773584, 0.2790138133832599, 0.2788393736881901, 0.2786830011360719, 0.27853550515598585, 0.27839273484108257, 0.2782699441683879, 0.2781570821533306, 0.2780073035471364, 0.27791739420075945, 0.2777957888890964, 0.27771932213945566, 0.27764446197558, 0.27760922392058923, 0.2775318828882638, 0.27741330436028033, 0.2773463600506785, 0.27727824937367074, 0.2772602577997589, 0.27718205858303735, 0.27716170527116063, 0.2770761715797459, 0.2769924540501506, 0.2768517878014467, 0.2767750043453205, 0.2767332000256434, 0.2766402381964723, 0.27654298684618417, 0.27639644289493764, 0.27629327967181055, 0.2762207394092407, 0.27609285315618065, 0.27595664572528744, 0.275805540720745, 0.2756509505280751, 0.2754259885540413, 0.2752561391195897, 0.2750705769617769, 0.2748366045269716, 0.27462321416972, 0.2744893119883615, 0.27422733458263787, 0.2739526640949583, 0.27355340499443903, 0.27326478510916463, 0.27298154404989317, 0.2726468629476535, 0.27229252369545026, 0.2720217022264375, 0.271614417754395, 0.271183101606699, 0.2707470352892646, 0.2702939247401393, 0.2697368248727115, 0.2692581363236523, 0.2687342679121956, 0.26821005542540843, 0.26766063602913087, 0.26717997158977896, 0.2665687670950591, 0.26594950850310217, 0.26529708593378876, 0.26462445631067427, 0.2639099121993908, 0.26319763892122694, 0.26237226186579776, 0.2616247777043512, 0.2608485491058462, 0.26014360054456176, 0.2592987322184278, 0.25842437119575984, 0.25753633855388225, 0.25662518207463925, 0.2556159752583879, 0.2546672097150246, 0.2537440090229975, 0.2527328576996863, 0.251697536524582, 0.25066478355277755, 0.24957758717497389, 0.24843700372073338, 0.2473079534201006, 0.2461540723312858, 0.24499272903895347, 0.24378744920751033, 0.24254920149965678, 0.24129837801954368, 0.24002373403636804, 0.23865462954928135, 0.23734184740065745, 0.23603056219588892, 0.23466052006179816, 0.2332664122689622, 0.23182190379698014, 0.23038442048246144, 0.22898012892988187, 0.22748757118360616, 0.22597525647019556, 0.2244222478282493, 0.22287346412720926, 0.22128887605490333, 0.21970142133915727, 0.218093377132424, 0.21648631150475295, 0.21483596126096527, 0.21310264867510664, 0.21142507900151317, 0.20972664112596073, 0.20803118734960455, 0.20629071418451458, 0.20460016517600807, 0.2028176631613056, 0.20102298900792998, 0.199105147703809, 0.19730027378863982, 0.19559014785602866, 0.19373571859568633, 0.1918715396874267, 0.1898943053131013, 0.18802390486306167, 0.18622058450816845, 0.18431038708646613, 0.18239163451918078, 0.18047800962410723, 0.17854134564004553, 0.17651937083142372, 0.17457923538302259, 0.17262846388802625, 0.17069101691511895, 0.16871900405728027, 0.16670604411315926, 0.16472608590927984, 0.1627390685859988, 0.16076699490030472, 0.15876600254781018, 0.1567388908139015, 0.15473516586574815, 0.1527283240546115, 0.15080341398843994, 0.14878216063344615, 0.14674196203426118, 0.14473173310710494, 0.14272445080166357, 0.1407185798465628, 0.13871859689469204, 0.13671501438701186, 0.13472458167842433, 0.13273873259947971, 0.1307140101563866, 0.12874459393223495, 0.12675794701257065, 0.12479977116494864, 0.12284605954726904, 0.12095716705572641, 0.11900789017440647, 0.11710567402185731, 0.11517358000006868, 0.11325502004857863, 0.11129844636191903, 0.10941392643999158, 0.1075099466741295, 0.10565230182281492, 0.1038054348678289, 0.10195492005668456, 0.10013415589998138, 0.09829520649623831, 0.09650406862572836, 0.09472535229136562, 0.09297730497926635, 0.09122424316881424, 0.08953909219831235, 0.0878126390999745, 0.08610663155151896, 0.08438297377826842, 0.08272326662004471, 0.0810709751919755, 0.07945105699830494, 0.07785044226362038, 0.07637880575799415, 0.07480470277294979, 0.07315238899709393, 0.07164531675444927, 0.07015868456528902, 0.06868544008084551, 0.06724242581595283, 0.06583259662394861, 0.06443208326595153, 0.06305880379776624, 0.061704997776315364, 0.06037554763741927, 0.05907266969148903, 0.057792578741089014, 0.0565167522157528, 0.05529019576658274, 0.05408823410134092, 0.053003116094711596, 0.05183982721522613, 0.050632677071123115, 0.04953993784181724, 0.04847294429300051, 0.047516175310805805, 0.04649079182051464, 0.04541238403565991, 0.0444595470090621, 0.043532270413258606, 0.04265574708203372, 0.041777342950959515, 0.04089227226999172, 0.04007380423530676, 0.03928120211899543, 0.03858364438518684, 0.03783484633955093, 0.037049496331061235, 0.036369648534106076, 0.03571572430450975, 0.03508410441889685, 0.034483096557401526, 0.033875765542511684, 0.033331424698732195, 0.032811682491369336, 0.032408722626879424, 0.031927434368430915, 0.03151492826721068, 0.031089200041471032, 0.03069495434293527, 0.03032944329894662, 0.029995973872403624, 0.029676270950145522, 0.02940226575278083, 0.02915527016610229, 0.02893295405297077, 0.02873899234790691, 0.028591798228350115, 0.02844625505937893, 0.028326923316491285, 0.02812803553541456, 0.0280729674872745, 0.02806549214636009, 0.028044974819359927, 0.028045691566766975, 0.028102106164703097, 0.028140924624675583, 0.0281453906401755, 0.028237208028629068, 0.028348076972091272, 0.028485713557084586, 0.02863383695114085, 0.028812927732963792, 0.028998396626156372, 0.02920361555999165, 0.029508635650951874, 0.029742161792263605, 0.029887870179199524, 0.0301807796835363, 0.030488638560322967, 0.030909035312335815, 0.03123431883892115, 0.03157213055055397, 0.03193778207559152, 0.03232130584391772, 0.032664478876585, 0.033088632902056644, 0.033588293037848604, 0.03402890715392582, 0.03448489326897634, 0.03495352783833308, 0.03543810904482591, 0.035839936497571646, 0.036361816050910774, 0.036889910647744, 0.03742051652975589, 0.03796182216072475, 0.0385954100495819, 0.039138081113973454, 0.03969157820027626, 0.04016508858164128, 0.04074908284705493, 0.041338312209820836, 0.04192867802755878, 0.04252235393319761, 0.04317277149474755, 0.043765764825923335, 0.04433000853809621, 0.044938045197885794, 0.045548437445795883, 0.04613207546063123, 0.046749592236533126, 0.047393402068663555, 0.04800631381009365, 0.04861976475869041, 0.049300244812353525, 0.04990480308098369, 0.05047770316540246, 0.051091162120876964, 0.05170346413689339, 0.05226420983962275, 0.05287860472249118, 0.053473809874514965, 0.05407814170606295, 0.054675551676565314, 0.055342474422562966, 0.055915949519227244, 0.056501630140998585, 0.05706611835876598, 0.05762673501172101, 0.058138597033775545, 0.05869451155936638, 0.05926081290426595, 0.05979645806037267, 0.06032373981600062, 0.06075986449825599, 0.06127936996680012, 0.06178639397486647, 0.06227709682807147, 0.06275390783156234, 0.06331261933655756, 0.06374977772312695, 0.06414984466482, 0.06457306436433062, 0.06498474328064234, 0.06541122316784904, 0.06579509537800855, 0.06607002855084845, 0.06644299146057177, 0.0667979988621637, 0.06713724079356531, 0.06745686608980872, 0.0677554780585971, 0.06804132403206166, 0.06830994682573253, 0.06865519909584646, 0.06887768820182075, 0.0690921566440778, 0.06928969557569777, 0.06947413694618937, 0.06962376970834049, 0.06978277307906249, 0.06995443071739724, 0.07007739057393077, 0.07018533244981803, 0.07024716009663365, 0.07032757639774243, 0.07044742149394574, 0.07048452515431644, 0.07050673111980818, 0.07040060727191291, 0.07040584318974194, 0.07041149083324279, 0.07036930000981213, 0.07030696025633729, 0.07020944956591031, 0.07010959182367539, 0.07008330678523016, 0.06993151191393181, 0.06976542759439651, 0.06948314513101923, 0.06929997403073634, 0.06914729660126676, 0.06891576201733085, 0.06866697215560268, 0.06841435712003537, 0.06812947332458127, 0.06783588010136225, 0.06751726260309289, 0.06718266543600655, 0.06685118227662128, 0.06648209784868596, 0.06605786509663165, 0.06566383813881298, 0.06525241383755477, 0.06475880755394771, 0.06432168466346741, 0.06394093237213308, 0.06345455626768276, 0.06295382985055209, 0.062477095732804605, 0.06194304121371642, 0.06131091353440969, 0.06076368218291451, 0.06019937253198387, 0.05963200493391704, 0.059033673631358974, 0.05842842794809439, 0.05780039941232573, 0.057159039272641134, 0.05650275783590076, 0.055835946850771444, 0.05515092104568098, 0.054460224743602056, 0.05375931386700028, 0.05304449516546166, 0.052318402105803054, 0.05171536288883126, 0.05095082767017252, 0.050084053541350405, 0.04932594753350954, 0.048558215518488934, 0.047804148680172416, 0.047015241057199696, 0.04624962001091109, 0.04544233292406933, 0.044629791549883946, 0.043903846150409646, 0.04306917355032059, 0.042234502388776046, 0.041399225504101876, 0.04056286841183548, 0.03966957055357626, 0.038837112906854446, 0.038036070673472484, 0.037189494513558984, 0.03634078999898778, 0.0354805138753172, 0.03462919387964343, 0.03377765005653679, 0.0329221519258105, 0.032065327245141134, 0.03131472938738656, 0.030442831095461316, 0.02964186603117819, 0.02877301694167076, 0.027912920199938854, 0.02703213071952194, 0.026191122651921257, 0.025338287005958228, 0.024510179501677595, 0.02368644027511199, 0.022869206919212928, 0.022054681088738294, 0.02131434255397729, 0.02050200580062634, 0.019699518293614205, 0.018975621939545696, 0.018183728177082126, 0.017437868039973464, 0.016668380786964383, 0.015913404081446734, 0.015176280917099029, 0.01444852207375188, 0.01374590926281309, 0.013043869295958124, 0.012355926535209913, 0.011643738370070216, 0.010988726903177223, 0.010464388963254072, 0.009818857774835125, 0.009192953228837068, 0.008584311032857042, 0.007996679546488892, 0.007423759620827589, 0.006873599028330045, 0.006341664840836654, 0.005807002863132799, 0.005314543429832335, 0.004830032462104215, 0.004374246794349894, 0.003936313045378303, 0.003593323498456256, 0.0031830120584203626, 0.002777304332951055, 0.0024168093755875778, 0.002078872520633649, 0.0017943116998392552, 0.0014982358065584857, 0.0012481700861325354, 0.0009993800053169338, 0.0007768483798935163, 0.0006590085135825728, 0.0004790108968989816, 0.0002608217698350431, 0.00015044386745842746, 6.599548823349658e-05, 0.00012257342549074171, 7.626085648071823e-05, 0.0, 2.7491549612698812e-05, 8.356158871685182e-05, 0.00016069207859200035, 0.00027533691701035957, 0.0005392282223443101, 0.0006962508079151013, 0.0008893052883028865, 0.0011024283185769553, 0.0013676565607552602, 0.0016607320671864678, 0.001993680168775977, 0.002359600204274486, 0.0027852884448075254, 0.003213816697737987, 0.0036463437570945128, 0.004147905844669724, 0.004682263598181204, 0.005211408766739458, 0.005817024558989073, 0.006557491344869512, 0.007213638634641033, 0.007908263234897364, 0.008581741700965442, 0.009360024563601752, 0.01026657651005396, 0.011102346642917078, 0.011978608035553827, 0.012820316877956551, 0.013785884674645246, 0.014773395867312673, 0.015811757951992026, 0.01688552552180499, 0.01799327127892444, 0.01913951925674276, 0.020458322027896034, 0.021661121907158593, 0.022909000534499357, 0.024124659338772822, 0.02547026693378175, 0.02682604536626951, 0.028253213697561768, 0.029717990994551437, 0.03132030410015824, 0.03284888401912342, 0.034345208064888555, 0.035971587156385695, 0.037637070893546044, 0.0393916884478733, 0.04112986748812026, 0.042864749045048466, 0.04469382262460478, 0.046562609334712526, 0.04846369296687068, 0.05041357124168537, 0.0524244413410136, 0.05445177220839298, 0.05652067303015352, 0.05873068858008759, 0.060870196393660696, 0.06306264808627969, 0.06529504394891145, 0.06757348029449484, 0.06980734567826485, 0.07218735605236053, 0.07458940642186132, 0.07705041427279403, 0.07955026377489734, 0.08219458599357046, 0.08475984867675623, 0.08726171421584292, 0.08993155669535624, 0.09263981617100912, 0.09548449620433777, 0.09825836362126202, 0.10102737177010694, 0.10389679143798633, 0.10680727970680905, 0.10980472511486328, 0.1127913940453016, 0.11585791156099653, 0.11892650940151905, 0.1220397912173338, 0.12520666733675553, 0.12840619409242113, 0.13160513134150284, 0.13489652724253764, 0.1382278174694912, 0.14161803764424646, 0.14502638224155454, 0.1484103009079458, 0.1519079053357624, 0.1554419867589991, 0.1590970412953504, 0.1626942155157164, 0.16633518606425018, 0.17001533156608545, 0.17373640388217948, 0.17746728738600603, 0.181272641991568, 0.1851196499962041, 0.18900001057634147, 0.19291807985140907, 0.19685833448982365, 0.2008531162838172, 0.2049242869013111, 0.2089862682109455, 0.21308645986542107, 0.21714591219840515, 0.2213310366178345, 0.22557921695244623, 0.22982553772622655, 0.23410635042368882, 0.23837172111287944, 0.2427272724826094, 0.24717901107420395, 0.2515887150860945, 0.2560334263481851, 0.26051072986964285, 0.2650242009256861, 0.269626592304604, 0.2741994057661478, 0.27878484454886476, 0.2834308358359501, 0.2881093625006579, 0.2927776951468107, 0.2975247726507737, 0.3023251004236271, 0.3071255418721267, 0.31195526585766414, 0.3167506292988915, 0.3216454593243164, 0.3265913771708966, 0.3315314270959228, 0.3364972552712516, 0.34158424470900883, 0.3465885539750542, 0.3515674790973352, 0.3566378884255052, 0.36173305703854397, 0.3668332712546279, 0.37197866082898645, 0.3771670786460936, 0.38235334396484033, 0.3875619250006535, 0.39270990505898906, 0.39797168170413716, 0.40329908503155254, 0.40858635253477493, 0.41389230846097147, 0.41921454136205394, 0.42455660650272425, 0.42995590347964174, 0.43532643313521197, 0.44071518135994125, 0.446008340188452, 0.4514451806922388, 0.4569698023330491, 0.4624154315317439, 0.4678748680500257, 0.4733167722368336, 0.47880554801534086, 0.484310007652688, 0.4898174719206242, 0.4953342307255383, 0.5008290856460638, 0.5063665612456891, 0.5119902173075291, 0.5175287319203467, 0.5230767388119252, 0.5285699603814411, 0.534141632048099, 0.5397141129778681, 0.5452909806749714, 0.5508694473520872, 0.5563590175566043, 0.5619504123850922, 0.5676419278420659, 0.573209821952646, 0.578778576408665, 0.5842611103901123, 0.589839634835814, 0.5953998885688307, 0.6009660709008264, 0.6065243057185784, 0.6120264720274534, 0.6175739746160374, 0.6231500124016705, 0.6286690322148875, 0.6341783811574804, 0.6397099997632886, 0.6451940612515694, 0.6506549726005734, 0.6561202580018017, 0.6615731133756343, 0.666961014128622, 0.672392994532001, 0.6778645015537724, 0.6832529862881305, 0.68862584577278, 0.6938901936531477, 0.6992403866777943, 0.7046299550104776, 0.709924352898904, 0.7151979562049631, 0.7204192465246256, 0.7256524484129855, 0.7308298296424426, 0.7360158629601007, 0.7411736588489793, 0.746287451410872, 0.7513892939599472, 0.7563743971234045, 0.7614254378140785, 0.7664400398239041, 0.7713972721123857, 0.7763419003518924, 0.7812565658081684, 0.7861249393761223, 0.7909559144158601, 0.7957338586053408, 0.8004909313188339, 0.8051721889740983, 0.8098545513314854, 0.8144945350565957, 0.8190784950991229, 0.8236345849347693, 0.8282479873770349, 0.8327026194721421, 0.837117993864734, 0.8414736451030915, 0.84580899399285, 0.8501135703963413, 0.8543578471719984, 0.8585566525046926, 0.8626170136117864, 0.8667332217017191, 0.870828137514622, 0.8748323077866432, 0.8787838849643453, 0.8826535186445703, 0.8865016030304691, 0.8902246169778939, 0.8939686340524546, 0.8976516916650065, 0.9013695323592926, 0.9049186075201288, 0.9083621899775793, 0.9118051230990902, 0.9151876144290965, 0.918459386686438, 0.921725724857462, 0.9249712517852476, 0.9281021950679386, 0.9311703903890027, 0.9341924359638724, 0.9371310741781584, 0.9399390600316728, 0.942758081111024, 0.945508179784392, 0.9481662100291336, 0.9507807881654737, 0.9534240187181865, 0.9558841538905796, 0.9582787305192911, 0.9605876061335024, 0.9628505404814408, 0.9649272655510865, 0.9670653766140513, 0.9691261662739641, 0.9711539852398899, 0.9730554668615754, 0.9749172871298611, 0.9766659323118732, 0.9783418749530345, 0.9799196772266199, 0.9814517196319976, 0.9828353441907235, 0.9842249328702629, 0.9855342005509541, 0.9868151358516871, 0.9879580928477478, 0.9889458936201897, 0.9899451233009823, 0.9908627063926333, 0.9917124039356591, 0.9924660212449271, 0.9931779176884968, 0.9937667714664591, 0.9942778980590077, 0.9946708193189314, 0.9950307386556667, 0.9953271043239418, 0.9955233837344275, 0.9956400253407859, 0.9957267174420402, 0.9956775724354345, 0.9955418088395098, 0.9953393271017874, 0.9950584225650289, 0.9947141546070569, 0.9942737566055887, 0.9937207205667368, 0.9931280606551913, 0.9924548453363765, 0.9917356643657744, 0.9908974107884221, 0.9899197454679682, 0.9889328125933008, 0.9878641386854822, 0.9867735515662288, 0.9855353599577686, 0.9841378919842818, 0.9827561326468232, 0.9812927838293917, 0.9797964326662766, 0.9781660309030535, 0.9764550048550286, 0.9746717526573495, 0.9728120313294207, 0.9708149329207328, 0.9688110560529387, 0.9667781155452423, 0.9646111846427194, 0.962391016573513, 0.960073257586906, 0.9576832405323372, 0.9551676597491127, 0.9526408004212413, 0.9500721896308971, 0.9473934695499757, 0.9446439304972102, 0.9418126241591454, 0.93892452601295, 0.936010652899452, 0.9329780833829594, 0.9298795714051373, 0.9266561344074054, 0.9234343455001267, 0.9201234394730416, 0.916769162797536, 0.9133475787178174, 0.9099248791044868, 0.9063637701228029, 0.9026235979450409, 0.8989572112472447, 0.8952248352803004, 0.8914414192760933