0.02596447513133646, 0.025496032953973895, 0.02494573545985154, 0.024601855473727195, 0.02444749290808998, 0.024147546270181647, 0.02388108768580375, 0.02361833531759666, 0.023407572565850552, 0.02313716332810243, 0.022971591960650968, 0.02281538119136307, 0.022658211281132393, 0.022518197907137195, 0.022476168926144006, 0.022335629512592242, 0.022205390293083046, 0.02208915407325438, 0.021976802355625803, 0.021848571886494503, 0.02175686783997832, 0.021672399291207217, 0.021478523660877, 0.021424305007862625, 0.021443885700431767, 0.021385708769902926, 0.021336281514911657, 0.021345839722333164, 0.021309942732252857, 0.021182167277504396, 0.021187638677786766, 0.021201767822734266, 0.02127531767389151, 0.021304288325005492, 0.021373057070161034, 0.021429682617935108, 0.02150406330665464, 0.021502172201805662, 0.021625291401501767, 0.021764407719866926, 0.02191593391526178, 0.022083629220874094, 0.02233370629804771, 0.022528400498804963, 0.022678216151064964, 0.022926876414327547, 0.023194863686455274, 0.023478494892862425, 0.02378808768931001, 0.024121270305007134, 0.02447394566118585, 0.02484940986996453, 0.025156033557946537, 0.02559042385903672, 0.02618348267327281, 0.02663993908316816, 0.027125785975964725, 0.027469990251233024, 0.028035924959467145, 0.02863269025975549, 0.029237764183139302, 0.02986570026729313, 0.030544532756482192, 0.031217829124895763, 0.03196784825129517, 0.03268996220520224, 0.03344322045195353, 0.0341242850873425, 0.03495326759037906, 0.035823729381497436, 0.03670320143251606, 0.0376112225331333, 0.03863622199366289, 0.039592369264652455, 0.04059075973162406, 0.041616934735899724, 0.04267881570021737, 0.043717871290439296, 0.044858431117343375, 0.046015650514645165, 0.047223563140993505, 0.04846409449392095, 0.049800867013956716, 0.051100605321745665, 0.052339421378222416, 0.05372779869122346, 0.05514883227090948, 0.05668667539940805, 0.05816526833390842, 0.05958937800293556, 0.06115995301916978, 0.06276542944439645, 0.06435725445968644, 0.06604149091036858, 0.06786387470216289, 0.06960556404871988, 0.07138993068281353, 0.07308440417494301, 0.07497126586561705, 0.0769949614708281, 0.07894153014528087, 0.08093176436080292, 0.08290738870028715, 0.08499293775059678, 0.08717568928304653, 0.08933676234946811, 0.09154325828620735, 0.09381327870984216, 0.09610868481331612, 0.09846437042652079, 0.10085162804065158, 0.10328642147067806, 0.10568995647016241, 0.10822955408424795, 0.11080535759644677, 0.11343233786399418, 0.11610307982199995, 0.11873493481788498, 0.12150534272316836, 0.12441979814574051, 0.12725938507025733, 0.1301473701702487, 0.13309048122880576, 0.13607434737655125, 0.13914065009714943, 0.1422175664372891, 0.14534489743807372, 0.14837385258950592, 0.1516197207915154, 0.15489992520434656, 0.15822972109299333, 0.16160190907479371, 0.16509366607475495, 0.1685429983775413, 0.1720093365549147, 0.17555941339617498, 0.1791557675990934, 0.18274668691900112, 0.18644212986632236, 0.19030904559963166, 0.1940751605100472, 0.1978922863652651, 0.2017437953525474, 0.20566233344114657, 0.2096262567485083, 0.21363973950531928, 0.21769953759163335, 0.2216859123146968, 0.22585178371108325, 0.23010290486190388, 0.23433929421180172, 0.23861713051489314, 0.24286429566437706, 0.24723361628289292, 0.25176343223889974, 0.2561910153775869, 0.26066281461368185, 0.2650407306223107, 0.2696155879140091, 0.27428726919863655, 0.27892214007592686, 0.2835948132349755, 0.28838353470866446, 0.2931204292506515, 0.2977766043567935, 0.3026090994548904, 0.30747315752801596, 0.31238439422031766, 0.3173091251185547, 0.3222364452387972, 0.32722804047657644, 0.33239948391675417, 0.33743003277359174, 0.3424974615013116, 0.3475033837318798, 0.35265183963063723, 0.35785844750539175, 0.3630555981704716, 0.36827983340668285, 0.37343122833190895, 0.37871922685556375, 0.38410905347621105, 0.3894235958218916, 0.3947609809192507, 0.4000684513080476, 0.40545496284894045, 0.41081558398042795, 0.41624055337132687, 0.4216786642017494, 0.4272194878837814, 0.4326712650773423, 0.4380386183847897, 0.4435353915226028, 0.44904057817037807, 0.45468411620761223, 0.4601880594590646, 0.46554632617077996, 0.4710966719602549, 0.4766485657952865, 0.48218814750809136, 0.4877436371672492, 0.4933209979642835, 0.49887186056692356, 0.50442217907751, 0.5100272712518696, 0.5155666261343439, 0.5210674939958563, 0.5266096719863278, 0.5321464681140629, 0.5376722271733728, 0.5431953331757661, 0.5487947248907299, 0.554287499022247, 0.5597735130299643, 0.5651541580342762, 0.570633229432795, 0.5761463219339633, 0.5815825076054637, 0.5870019709192076, 0.5923088194608664, 0.5977024799320223, 0.6031485577217354, 0.6084790413530151, 0.6137862933002471, 0.6189317058681073, 0.624205576665168, 0.6294892551115395, 0.6346868097209654, 0.639851014131498, 0.6450416978585931, 0.6501287954848902, 0.655052678093667, 0.6600891789926345, 0.665082540145437, 0.6700210759693939, 0.6749281453464108, 0.6799089922133236, 0.6847095158373939, 0.689469931904062, 0.6940962644263435, 0.6987828605021301, 0.703468485245423, 0.7080470447408143, 0.7125761109357235, 0.7169531070027286, 0.7213918653887158, 0.7257533686986971, 0.7300753503765453, 0.7343359244034874, 0.7386357492691645, 0.7427590024310946, 0.7467909260096178, 0.7508016749093304, 0.7547498259536707, 0.758652154281597, 0.762469195715339, 0.766212034034591, 0.7698984693294826, 0.7735165670932845, 0.7769819248740185, 0.7804703101856284, 0.783864182110123, 0.7872013386485025, 0.7904599842947241, 0.793578970969217, 0.7966869256120874, 0.7997159955218802, 0.8026565128432593, 0.8055135933199373, 0.8084083514440981, 0.8110821553587209, 0.8135589677046354, 0.8160907587183048, 0.818535172776188, 0.8209975363825013, 0.8232526697058886, 0.8253576415819122, 0.8274545760903769, 0.829462429556013, 0.8314097958948996, 0.8332338704865271, 0.8349011303598263, 0.8365541862167485, 0.8381124427747079, 0.8396071564323643, 0.8409711223744145, 0.8421580880019902, 0.8433444480516982, 0.8444312787364356, 0.8455311918497315, 0.8464051878637294, 0.8470401183552866, 0.847745933817657, 0.8483489585846797, 0.8489350882414695, 0.849322963327206, 0.8495869535332664, 0.8497840001109063, 0.8498817846857604, 0.8498959010562752, 0.8497927383315471, 0.8496200276346043, 0.849315371391315, 0.8489131480607376, 0.8483882258889667, 0.8477928794078649, 0.8469918892716563, 0.8462100067895422, 0.8453222599892626, 0.844502717996703, 0.8433839870479011, 0.8421356314596834, 0.840833489536374, 0.8394344626189157, 0.8379249187832919, 0.8363334878317724, 0.8346442213347789, 0.8328573035212056, 0.8309729690573905, 0.8289217850386391, 0.8268523269500123, 0.824608311306981, 0.822348524488578, 0.8199861510960593, 0.8175519459888807, 0.8149851674599761, 0.8123802046074142, 0.809613761204289, 0.8067559911435922, 0.8038433898418949, 0.8007999950758217, 0.7975407611702426, 0.7943386085006096, 0.7910423588683587, 0.7876940015853201, 0.7842089037075335, 0.7807217846008984, 0.7770519423997193, 0.7733014575409637, 0.7693582237566287, 0.7654617785139088, 0.7615448832119661, 0.7574703556278959, 0.7533167824155005, 0.7491008128113409, 0.7447899179800845, 0.7403182397815417, 0.7358683929246153, 0.7313402618014936, 0.7268547161655569, 0.7221599407213947, 0.7173580104709376, 0.7125356212460112, 0.7076456150360128, 0.7027318461491877, 0.6977046198943696, 0.6926111725894589, 0.6874619659140133, 0.6822526552766721, 0.67685838340813, 0.6715480912625044, 0.6662752460512311, 0.6608269106953368, 0.6553249410031174, 0.6496671839304484, 0.6440749518418054, 0.6385599635830296, 0.6328423055340842, 0.6270810451692536, 0.6212862061372294, 0.615439762260679, 0.6094680633841444, 0.603553990298541, 0.5976899130547748, 0.5916817344256642, 0.5856404310713226, 0.5794119983188882, 0.5733276389353936, 0.5673288343559154, 0.5611551620029787, 0.5549553804819602, 0.5486251893507667, 0.5423907825653161, 0.5362635650360815, 0.529958952154146, 0.5236387755556892, 0.517166960003893, 0.510836392293507, 0.5044545987061924, 0.49809092401252014, 0.49171044226989, 0.48546405978500345, 0.47903852987179174, 0.4726408922048922, 0.466209980349433, 0.4597814391218521, 0.4532864529225235, 0.4468742540445764, 0.44040948822436715, 0.434008617414469, 0.4276094957026406, 0.4212794459749199, 0.414881826886541, 0.4085182331714757, 0.40214224615134164, 0.3957818775533655, 0.38945636682611173, 0.38312873691624194, 0.3767046278841052, 0.37043389608919486, 0.36417947123799316, 0.3579637854402169, 0.3517459005337497, 0.34556975969664544, 0.3393988819996405, 0.33325626707112155, 0.32708047599452955, 0.3210069104244603, 0.3149625795573374, 0.308949436279743, 0.30296934410614396, 0.2971680135746709, 0.29124109273418247, 0.2852727143259655, 0.27944979431107164, 0.27366910912131104, 0.2679184382519791, 0.2622277235915006, 0.25663395844116726, 0.2510284638782812, 0.2454736807892499, 0.23999741815877182, 0.23454312984223313, 0.2290851107573066, 0.2237483418980516, 0.21846435556767435, 0.21330404271639508, 0.20812029556742692, 0.202879717136629, 0.1978314854549962, 0.1928378499237621, 0.187866585869452, 0.18299083945861164, 0.17821252434805032, 0.17344707526942724, 0.16874376397403368, 0.16409906515264172, 0.15952345952430003, 0.15513842990340015, 0.15067702587201237, 0.14628897431632024, 0.14181883685627844, 0.13759639476766222, 0.13351673847467566, 0.12941368010911877, 0.12538138284804756, 0.1214179498393392, 0.11752850278898384, 0.11372869897470016, 0.10998060947293369, 0.10630581915787461, 0.1027494507748159, 0.09921600360293863, 0.09570033217599348, 0.09232653967791028, 0.08902528266926131, 0.08576987510266924, 0.08261796754667061, 0.07954912036361553, 0.0765398338528368, 0.07360375448797815, 0.07070060200804915, 0.06791660979393016, 0.06524674800709719, 0.06260055049285007, 0.06002886028000439, 0.0574393663903874, 0.0550280014763383, 0.05271704855989782, 0.05044010627802461, 0.048234835334971, 0.04619125608653497, 0.0441180766370135, 0.041993415704711434, 0.040088998207272984, 0.038252409917548365, 0.03651536711449121, 0.0348110458492614, 0.03328465441865588, 0.03170633655490344, 0.030203381906872964, 0.028641826318514443, 0.027302600049566847, 0.02613783079753562, 0.02491314835091146, 0.023758730793940686, 0.02259926069297032, 0.021591478197569926, 0.020693806231866164, 0.019805398664069503, 0.01898162920618294, 0.01813613510469783, 0.017449733084156777, 0.016872182367254383, 0.016293271567728192, 0.01577385674377848, 0.015272648527804498, 0.014874892350922148, 0.014651053969421596, 0.014347128441306943, 0.014103455077432474, 0.013758736784616097, 0.013650947746039416, 0.013738196375767151, 0.013704700853851124, 0.01372571313614243, 0.013718706214734533, 0.013854325832104927, 0.013992640410217205, 0.014223742688148135, 0.014496292731308457, 0.014879500517620289, 0.015224535441263265, 0.015667158781824293, 0.01609131909041452, 0.016559574560106156, 0.016942045495179824, 0.017509683924925943, 0.018116073786050686, 0.01874637546415234, 0.019407991418684812, 0.020201417138955017, 0.0209106907288334, 0.02152423124711388, 0.022317719735971454, 0.023135281173500784, 0.02410007818112814, 0.024948483308214555, 0.025853069378759752, 0.02675470638842351, 0.02768362796265447, 0.028543542676118333, 0.02953354357117742, 0.03062795748460474, 0.03163942439958247, 0.032670773894494604, 0.03356520880162412, 0.03465113509776392, 0.03578627375936198, 0.036879556706067934, 0.037981198118331415, 0.03906120639641184, 0.04018094917389894, 0.04137697921611902, 0.04249563014706454, 0.04362130837712764, 0.04478192399087024, 0.04591401095453351, 0.04703737706936441, 0.048179234121594805, 0.049322198349369545, 0.05044925933116413, 0.05159265761936902, 0.052694343261828654, 0.05383456696550804, 0.05496708544589048, 0.05604845762171289, 0.05716880740399637, 0.05825885630582865, 0.05935642987623969, 0.060439764271182785, 0.06159617370964558, 0.06263870168909601, 0.06374027780236893, 0.06475140143423001, 0.06575331149028377, 0.06660485934961247, 0.06760093544711411, 0.06862913063423624, 0.06957439535729966, 0.07043726025798971, 0.07135082193829125, 0.0722398297892396, 0.07321196916745906, 0.0740373914246345, 0.07477593991321364, 0.07556983598356802, 0.0763381344620377, 0.07715000788100138, 0.0778566703820494, 0.07863898313056515, 0.07928544632898375, 0.07991206992923605, 0.08050363358857643, 0.0810872714824907, 0.08156016413210913, 0.08210287757214113, 0.08261331253787588, 0.08320816441196344, 0.08363852655483715, 0.08408069901516987, 0.08445223556560232, 0.08479732707134598, 0.0850045691428157, 0.08530722478111308, 0.08558529662893213, 0.08581495239368747, 0.08600956818557508, 0.08621860944529161, 0.0863368720431227, 0.08644986679585627, 0.08649983934961783, 0.08651839670511915, 0.08661302021213163, 0.0865537817603683, 0.08643653916381404, 0.08632713129478936, 0.08618738482330274, 0.08601226868825303, 0.08581092296420052, 0.08571263783835047, 0.0854302869671895, 0.08512331800005844, 0.08479959381366964, 0.0844390528603838, 0.08397736709151242, 0.08357168592322609, 0.08313374246902164, 0.08280095233672491, 0.0822818913276401, 0.08166715593245977, 0.08110904968620776, 0.0805219205248757, 0.08001615169986917, 0.07935767664685854, 0.07861865938858677, 0.07792292907144631, 0.07720099429981779, 0.0764801110894306, 0.0757032349062199, 0.07501512976259946, 0.07417693526847606, 0.07332194959792825, 0.07253062567084809, 0.07163047494730246, 0.07056863725967895, 0.06966005179633655, 0.06872872019534686, 0.06792847281985362, 0.06693504900226123, 0.06582003690332547, 0.06481748693013412, 0.06379697461454761, 0.06280439871741218, 0.06174505820760404, 0.060826026988236435, 0.05972273316415506, 0.05861669133822144, 0.057547875960704965, 0.056429901300001445, 0.05521155709098108, 0.054102962879187436, 0.052986991040406724, 0.05186898668076011, 0.05074028008497952, 0.0496183699981919, 0.04848027989154741, 0.04734027548129519, 0.04628697123458228, 0.04513480739799963, 0.04401771350332708, 0.04287381891785487, 0.04173810425207838, 0.04052088453085104, 0.03941383242945444, 0.038385273627910874, 0.03727870221285545, 0.03618317604945763, 0.03503641541556674, 0.033973072764930126, 0.03307916310568788, 0.032016517218944836, 0.03097529885764874, 0.02985434670478797, 0.028869035575011172, 0.027951717410888297, 0.02699362959611832, 0.02605716319741201, 0.025167859364594675, 0.024273963417328896, 0.023470835774379997, 0.02262051792749543, 0.021800911319053356, 0.02087288376664464, 0.02013333219738955, 0.01955055217885147, 0.01884409645525707, 0.018172504438510095, 0.017419335260139203, 0.0168338348165953, 0.01640428802034401, 0.015864528700465355, 0.015365051481935838, 0.014766913342607072, 0.014367160777393244, 0.014129705326062213, 0.013783745445141545, 0.013482553891920735, 0.013132240937503549, 0.012934265185118381, 0.012793318788238946, 0.01267736529604921, 0.01260639231097104, 0.01257033741132813, 0.01259425021063743, 0.012812110025068062, 0.012914228013991245, 0.01307457169335017, 0.013270535811941432, 0.013549929621887296, 0.013791784861029116, 0.014197293261378807, 0.014655148035316047, 0.015211518068901583, 0.015771892356273867, 0.016374793681384087, 0.017054358694839542, 0.017792627719370274, 0.01856114109817131, 0.01942281824914005, 0.020429271706295472, 0.021399718380477058, 0.022436102800093994, 0.02348684858456236, 0.02466213093505763, 0.025858270979277658, 0.027166788895150003, 0.028537784018954335, 0.030053159109925204, 0.03154162754771979, 0.03309973285299971, 0.03472756448538807, 0.036425233591435735, 0.038255838022938374, 0.040085620349861635, 0.041966709094248156, 0.043946579295158925, 0.045998356754788736, 0.04815348501038766, 0.05034500038562831, 0.05246396490773364, 0.05482098920086015, 0.057243023343680664, 0.059776070715006076, 0.06232539749061029, 0.06497422928787215, 0.0676607371722978, 0.07041978444025579, 0.07316592184912418, 0.07608086402888813, 0.07918272008351085, 0.0822186830111154, 0.08533024731497561, 0.08841795135467773, 0.09169172931422911, 0.09501386989277284, 0.09842777236178228, 0.10190977842723842, 0.10557944178185988, 0.1091835789924749, 0.11285208157800919, 0.11660800843005342, 0.12043725642073493, 0.124343647600839, 0.128316964734438, 0.13235289677480983, 0.1364699164935083, 0.1406567459436329, 0.14489708695844775, 0.1492238582097572, 0.1535054393948346, 0.15798049962119565, 0.1625853212277932, 0.16717207790897495, 0.17182349770010166, 0.1765684167569318, 0.18134422327567368, 0.18617825759506193, 0.19108410573064727, 0.1960530206873816, 0.20097183385793352, 0.20607891147927326, 0.21125176718490526, 0.2164666184270654, 0.22173676093026173, 0.2270867218786436, 0.23246358957651642, 0.23797268332577917, 0.24345073295636677, 0.24898743297587378, 0.25446220454386825, 0.2601271477734412, 0.26585123234745484, 0.2716102075701828, 0.2774169340277117, 0.28335850348979463, 0.2892477281333576, 0.2952100684283034, 0.30119619355055904, 0.3072312240095298, 0.3131875980159861, 0.31933154177372086, 0.32556207210426286, 0.33177350374465675, 0.33802377535890765, 0.3443230812489538, 0.35064643401578927, 0.35694081149814466, 0.3633436809294468, 0.3697766929302898, 0.3761986562159243, 0.38269486327356655, 0.3892255851388778, 0.395771102006593, 0.40234136349622224, 0.40905471313280334, 0.41565677951733443, 0.4222807863219659, 0.42893908492662564, 0.4356217703524333, 0.44218984935763717, 0.44893327114917225, 0.45569933629365583, 0.4624635592071668, 0.4692385611367838, 0.47605496879748577, 0.48284490307775785, 0.48966709209118026, 0.49647241068761305, 0.5032861296900913, 0.5101202205774358, 0.5169444759250666, 0.5236698956204463, 0.5305148488507575, 0.5373554112812725, 0.5442920438949409, 0.5511087251906052, 0.5578972418907974, 0.5647131957421788, 0.5715229291906133, 0.5783429431784898, 0.5851334977331192, 0.5918604195479553, 0.5986368674724672, 0.6053974275038188, 0.6121859481474631, 0.6189056257249107, 0.6255140070767389, 0.6322103677710731, 0.6388814600633799, 0.6454792877473952, 0.652103432961083, 0.6587308723398632, 0.6652892870165025, 0.6718178837540205, 0.6782616452926266, 0.6847342552886629, 0.6911685120100513, 0.6975684726279658, 0.7039306709684121, 0.7102609931167889, 0.716544166826475, 0.7228164236223958, 0.7290145100823961, 0.7351718785545137, 0.7412264240281989, 0.7473058846535235, 0.7533280869117772, 0.7593112834376934, 0.7652439101610528, 0.7711700481486715, 0.776993112567529, 0.7827293299775376, 0.7884538411479385, 0.7941227401389161, 0.7996922520434004, 0.8052521760843621, 0.8107374162259637, 0.8161759278515769, 0.821550969638409, 0.8268798167378676, 0.8321234492855246, 0.8373810524406229, 0.8424842725355371, 0.8475252037355211, 0.852484231382087, 0.8573980670199164, 0.8622844430731819, 0.8670560228950215, 0.8717594661691339, 0.8763213179288852, 0.8808932004983699, 0.8853954301808888, 0.8898129841940663, 0.894153161010074, 0.8983814919735961, 0.9025689819059486, 0.9066615275869171, 0.9106873855195083, 0.9146301407154471, 0.9185793819307886, 0.9223434298311214, 0.9260012607175637, 0.9296091054301354, 0.933133972905928, 0.9364401406665572, 0.9398137889121262, 0.9432453171885717, 0.9464147349504898, 0.9495005405757507, 0.9524657695910194, 0.9553860293702975, 0.9581886966655183, 0.9609354584742302, 0.9635912874749663, 0.9661312525794913, 0.9686077609984847, 0.9709463838819943, 0.9732427677726978, 0.9754437066044209, 0.9775000527634331, 0.9795172841860501, 0.9814933369970665, 0.9833092353801235, 0.9850319593391391, 0.9866569798886274, 0.9881938234151801, 0.9896123923255088, 0.99096528602196, 0.9922232454877551, 0.9934854186381634, 0.9945415688173292, 0.9953941819111104, 0.9962865060447991, 0.9970823612684384, 0.9977372309305643, 0.998347186379824, 0.9989404007287728, 0.9993454592902743, 0.9996587840829578, 0.9998173850576634, 0.9999551781704863, 1.0, 0.9999476627768317, 0.9998013928377029, 0.9995392280261709, 0.9992095018160269, 0.9987838723753922, 0.9982677976487301, 0.9976592685149023, 0.9970803740205528, 0.9962735102083542, 0.9952974489047278, 0.9943335466676689, 0.9932804961036713, 0.9921141062101004, 0.9908875423861333, 0.9895946174354625, 0.9881883034530491, 0.9866959814086779, 0.9850890171763621, 0.9834302010649768, 0.9818182890237174, 0.9799720354759781, 0.9780492420113539, 0.9759372868935018, 0.9738752308567589, 0.9718133840667063, 0.9695758950334804, 0.9672622404789654, 0.9647716197008129, 0.962319705388781, 0.9597311463420993, 0.9571269206789528, 0.9544419248737149, 0.9516892013305435, 0.948846548958864, 0.946045838952435, 0.943039871637276, 0.9399773562818895, 0.936839603386304, 0.9336377693187837, 0.9302419374554548, 0.9269300676579862, 0.9236227909455414, 0.9201640751982311, 0.9166433900472495, 0.913104512726234, 0.9094576490340807, 0.905666705575004, 0.9019189430626452, 0.8981114584647945, 0.8941581187563504, 0.8902469625423901, 0.8864534347980784, 0.8824019220469826, 0.8783045831967407, 0.8739797895199012, 0.8698155120033888, 0.8656442572865071, 0.8613678311997073, 0.8570441961096203, 0.852643496434889, 0.848234263688089, 0.843893249959227, 0.8393831038899084, 0.8348384901118614, 0.8301229570561938, 0.8255290078067302, 0.8210414427418667, 0.8163514257051301, 0.8116337347863096, 0.8068125657568131, 0.8020512433416551, 0.7972916295835084, 0.7924682488320606, 0.7876197866315162, 0.7827541707789857, 0.7778582502163868, 0.7728287663983797, 0.7679059911037835, 0.7629581325219388, 0.7580862411612976, 0.7530819023549392, 0.7479785831891467, 0.7429590368764104, 0.7379232602304256, 0.7329584760432641, 0.7278846618558132, 0.7227977694701577, 0.7177130435377992, 0.712623440020536, 0.7074872506345367, 0.7023963786687468, 0.6971979066447556, 0.6921132339154882, 0.6870214171840358, 0.682059586155999, 0.6769428797451518, 0.6717113751227807, 0.6666240671919966, 0.6615381422261746, 0.6564778952644261, 0.6513972190139908, 0.6464120454593237, 0.6413372446688513, 0.6362778621267001, 0.6311625119994508, 0.6261448496576476, 0.6211921667122791, 0.6161957595575229, 0.6112180426389937, 0.6061608595467667, 0.6012354371409385, 0.5964492762346841, 0.5915409940692742, 0.5866584068145293, 0.5817660025941096, 0.5769408145538449, 0.5721543461275287, 0.5673787918887925, 0.5626309918678066, 0.5579162133506212, 0.553225668465419, 0.5484957410380145, 0.543875423933767, 0.5392830247045806, 0.5348120609953144, 0.5302677081608901, 0.5256589815065377, 0.5212014534801694, 0.516775859657225, 0.5124599166546951, 0.5080922097609564, 0.5036360804625902, 0.49936453720250046, 0.49512643178020554, 0.4909030058848983, 0.4867386602656682, 0.4826466929838561, 0.4785519014114289, 0.4744980345581461, 0.4704184294094228, 0.4664572938431772, 0.4625445274937872, 0.45866217970307277, 0.4548219504872748, 0.4511619069568269, 0.4473911356592379, 0.44354889125918534, 0.43989773303063306, 0.43629100213566563, 0.43281257508466475, 0.42928611158191776, 0.42570484905334033, 0.42229335674346336, 0.41892647779742864, 0.4157308625498424, 0.412439339265967, 0.4090709522628692, 0.40590253322015835, 0.40277936115585683, 0.39967057984025495, 0.39664368338379113, 0.39380808454522637, 0.3908535929693207, 0.3879536253743251, 0.38500177229502497, 0.38222214760623746, 0.37957687441287286, 0.3768797597126362, 0.37423477162641144, 0.3716054156147709, 0.3690677286387, 0.36658995671424166, 0.3641480568280643, 0.3617551796938808, 0.359327864488064, 0.3570427949318944, 0.35478781695906686, 0.35259202463117445, 0.35043977156822237, 0.34840110872725394, 0.34632803442531673, 0.3443099001686565, 0.34233188483891225, 0.34040149185269036, 0.3385384309285922, 0.3366991371175225, 0.3349160186650216, 0.3331692638169573, 0.3314688480870612, 0.32982979698637455, 0.3282179427632346, 0.32663098927788176, 0.32511119435133146, 0.32363387154427936, 0.3220972574669558, 0.32071598688694836, 0.3193990582200306, 0.31808455356694576, 0.31680719195418705, 0.31558253177980905, 0.31437685644036995, 0.3131455181704893, 0.3120219465598748, 0.31093117709247853, 0.3099856338876635, 0.30894610151239205, 0.3078823956073353, 0.30692725221781986, 0.3060050894460011, 0.30518280536317616, 0.30431634217807696, 0.30342189831531485, 0.3026321948579391, 0.3018716367998168, 0.3011801239517123, 0.3004709741279026, 0.29979593051909664, 0.29914445957066105, 0.2985209340083804, 0.29786142308948405, 0.2972988881794511, 0.2966792349867249, 0.2961694444653588, 0.2956759948783044, 0.29529348934586086, 0.2948211106953156, 0.29436598583642176, 0.2939367529938707, 0.29352717664543765, 0.2930914075099364, 0.29272422142389265, 0.29236032231470244, 0.29202312452928997, 0.2916987943663233, 0.29146556183228667, 0.2911555283886007, 0.2907600136230685, 0.29049298741848917, 0.2903235536341163, 0.29006010961716794, 0.2898086584245546, 0.2894286185464952, 0.28921537664825825, 0.2890951858778158, 0.2888720713841493, 0.28865505980884537, 0.28834885237737057, 0.28815346288881744, 0.28793837609985906, 0.28774179066356054, 0.287542287810465, 0.28749496802689756, 0.28726970629742526, 0.28705652057002423, 0.2868395214610554, 0.2866252427995027, 0.2862840893091209, 0.2860873250344829, 0.2858956192724785, 0.2856801503813517, 0.28545668839911537, 0.28519340245921504, 0.2849568647159438, 0.284693695527293, 0.2844371947540645, 0.28416852018310373, 0.28390776797052486, 0.2836117007764932, 0.28330400847245085, 0.2829842424257554, 0.28265193931599064, 0.28229762891421617, 0.2819399568867575, 0.2815947838706978, 0.281204305326027, 0.28080000638991887, 0.28053640964877136, 0.280082919888133, 0.2795976980397265, 0.2791315208003806, 0.2786534858331116, 0.2780948397957403, 0.2775978846786448, 0.2770458056191892, 0.2765147136964843, 0.2759616814961273, 0.2754653589218896, 0.2748582976537008, 0.2740985613773546, 0.2734723542709849, 0.2728194565868692, 0.27228879361721886, 0.27156516834296895, 0.2707569965309927, 0.2700068500403119, 0.26923414965812337, 0.2684499752748957, 0.2676302656289342, 0.2668196658835528, 0.2659510127714948, 0.265061350226628, 0.26417949617870395, 0.26324291917874343, 0.26227688303298485, 0.2613000142206923, 0.2603012450024439, 0.25914310088968245, 0.2581170518581091, 0.2570561794494788, 0.25597099927982203, 0.2548570460428447, 0.2538140735627262, 0.2526323876167118, 0.2514251532682548, 0.2502017217028471, 0.2489566027162411, 0.2477369274288887, 0.24644220788254906, 0.2450315579171395, 0.24371022703610953, 0.24236355073090976, 0.24102355141933454, 0.23962378361610592, 0.23815697708620923, 0.2367189716783804, 0.2352567850037455, 0.23373051488515081, 0.2322267828344408, 0.23072746681570247, 0.22917121048118408, 0.22759333531399004, 0.2260820066185319, 0.2244511600452042, 0.22277795101471498, 0.2211194711735125, 0.21944359069382777, 0.21768741246748197, 0.21598494729344556, 0.2142641263190683, 0.2125208540992483, 0.2107584452693353, 0.2090359808430304, 0.20722971338932034, 0.2053846207638048, 0.20355339095225977, 0.20170689969910302, 0.19988824662338453, 0.19800695585418768, 0.1959925148407257, 0.19410322672323624, 0.19219560300011576, 0.19036299643681795, 0.18841041171693204, 0.1863376950588194, 0.1843793738570537, 0.1824053745950045, 0.18055628878134247, 0.17853670546696185, 0.17636859304845529, 0.1743578365920204, 0.1723341416838257, 0.17032113990186307, 0.16827207708926115, 0.16636522377524543, 0.16428093551091943, 0.16219812371955794, 0.15999258846776618, 0.1579269628056615, 0.15582322138672985, 0.15374914043270196, 0.15166828321307707, 0.14957942156286919, 0.14748830143719646, 0.14542016238935065, 0.14331850235743024, 0.14121607396684538, 0.13922590445438976, 0.1371094603007543, 0.13488558602834302, 0.13279782536289542, 0.13071030608036052, 0.12868452532346403, 0.12659211345284108, 0.12448535744026853, 0.12240750602693935, 0.12033487177675115, 0.11831287707730258, 0.11624633370246892, 0.11404496418329933, 0.11201493341945679, 0.10998619388882323, 0.10799833513344091, 0.10597131412612147, 0.10391551674708172, 0.10190821994871449, 0.09990759338205227, 0.09791685760616815, 0.09593213082582705, 0.0940850952601641, 0.09210392771881669, 0.09014092503661554, 0.08821370994127015, 0.08628374295618021, 0.08435185482536302, 0.08246080498553011, 0.08058645867737153, 0.0786973658786948, 0.07686055449072264, 0.07495344978195358, 0.07315817456590386, 0.07137406758167676, 0.06971690306640035, 0.06794378184992282, 0.06622497680792726, 0.06448866546660639, 0.06277469434678472, 0.06109852914892468, 0.05942648696844865, 0.05765559625138008, 0.05604387205201205, 0.05444754540145244, 0.052905719684173326, 0.05133789705048686, 0.04986873024385039, 0.04833120494436839, 0.04681874291900698, 0.045301797620383645, 0.04384228597609394, 0.04242117936015199, 0.041005086191929545, 0.03961271740123814, 0.03830477034182383, 0.03695212672110602, 0.035696326173969964, 0.034388668797472786, 0.03311121784858901, 0.03173041310368927, 0.03052765191135346, 0.02938811873996639, 0.028221481913234495, 0.02715296913604089, 0.026024868593336734, 0.024925043797225436, 0.023911471894410077, 0.022859396141613468, 0.021799374333541014, 0.0208119324043293, 0.019851196382708967, 0.01904509262011468, 0.018120824334744406, 0.01727928131831939, 0.016414085591434823, 0.015582731270299001, 0.014637768020869137, 0.01388893588285868, 0.013232140626528445, 0.012519501344113847, 0.01183380093769032, 0.011190535238960922, 0.01055602629107964, 0.010020688941633122, 0.0094312331322742, 0.00887254131717143, 0.008357343607907764, 0.007856285266154336, 0.007362261450570288, 0.006922490839493463, 0.006509857961738036, 0.006184814502960552, 0.00581801411784043, 0.005530543295117865, 0.005216541015826733, 0.004933945750628876, 0.004751580496111413, 0.00452042067231825, 0.0043874509312560594, 0.004212842429156588, 0.004072721519053578, 0.003936462940317735, 0.00386502732811081, 0.0038857662151692454, 0.003864114350569486, 0.003873969941467249, 0.0038693689563354867, 0.003945106382861418, 0.004047267418949716, 0.00417559535449102, 0.0043298828913279535, 0.004431252962853203, 0.004646949547942561, 0.0049377629837685216, 0.005189475580346045, 0.0054664081471358155, 0.005856271770190432, 0.0061725685275555746, 0.006552756063824258, 0.006924401328504565, 0.007326780109768632, 0.007678120236213798, 0.00814986712935826, 0.008713124898658189, 0.009224536825866367, 0.009763983589701488, 0.010405223044388815, 0.01099004557398825, 0.011446192532750659, 0.012112294417738936, 0.012798740807292227, 0.013620820153951727, 0.014335168479091808, 0.015098119630017835, 0.015866115949649127, 0.016662635501823755, 0.017361175025506465, 0.018229038230781244, 0.019161838897651974, 0.020064566549138515, 0.02099096590865294, 0.021923170026306067, 0.022899541560391944, 0.023925880081055857, 0.024945017397370855, 0.02598905248216874, 0.027069169658166463, 0.028161399175255213, 0.029238500288125944, 0.03038640455489961, 0.03155710739029973, 0.032741815753591356, 0.03395983112277198, 0.0353333473961905, 0.036580414427889285, 0.0378581073440151, 0.03916100394590119, 0.04049785441391313, 0.041779416700019695, 0.043182043053943034, 0.044606824413402295, 0.04609447083746476, 0.047559114353740405, 0.04910054306440933, 0.050608620271093245, 0.05214439271441646, 0.05360614772850362, 0.05520864272295882, 0.05692403443827102, 0.05855675581402155, 0.060216298376479745, 0.06190458146975485, 0.06361654709649933, 0.06530740040472198, 0.06707736433732678, 0.06887042961339153, 0.07059689593323551, 0.07244829004496928, 0.07444664865740368, 0.07632032820646198, 0.07822175515216391, 0.08002695588928345, 0.08199870886575597, 0.0841209815338001, 0.0861172421153322, 0.08814248138156609, 0.0901558319101675, 0.09224304167144912, 0.09438969475451782, 0.09652415168255428, 0.0986863985046973, 0.10073457880163757, 0.10296982566450973, 0.10530544244939152, 0.10757032670481559, 0.10986115635921563, 0.11211064516209418, 0.11446242254367636, 0.11687958503961572, 0.11927195255704533, 0.12169065643233454, 0.12409315452104273, 0.1265704725346607, 0.12907672394006547, 0.1316028154231078, 0.1341544782536781, 0.13682648970851322, 0.13941828078444382, 0.1420462891818153, 0.14470040028714887, 0.1473854465847963, 0.15011445696974904, 0.1528583312574715, 0.15549773633235028, 0.15831918213058668, 0.16116273720981641, 0.1640224236274767, 0.16691326494619282, 0.16982562753118824, 0.17276486530423024, 0.1757288146245539, 0.17871567143056258, 0.181730597734195, 0.1847757527998754, 0.18784185789432856, 0.19093446679274415, 0.19418866647869445, 0.19731764519605977, 0.20033037777978965, 0.20354623686312395, 0.20678611542453187, 0.21005039748710516, 0.2133394035063806, 0.21678833009503629, 0.22011045926227027, 0.2234655213677655, 0.22682781410652333, 0.23024907207686174, 0.2337194983520163, 0.23719554661720443, 0.2407006892257318, 0.24417361955924322, 0.24774292334900327, 0.2513318132578582, 0.25494989915548255, 0.2585918835090752, 0.2621790889038834, 0.2658788968814154, 0.269719647535667, 0.2734436936322216, 0.2771951320086284, 0.28093739710329985, 0.2847464555673511, 0.28849603017978476, 0.2923628591098311, 0.296248328089621, 0.30027881645297577, 0.3041868693331646, 0.30810818002729673, 0.31207060615005866, 0.31605740799681664, 0.3200004902974595, 0.3240427160455362, 0.32803625653453766, 0.33212455950240133, 0.3362277735713099, 0.3404767618767062, 0.3445944761829688, 0.34860044534259566, 0.35278067090387805, 0.3569567126375123, 0.36116707017794725, 0.3653906106973571, 0.369686002005042, 0.3739290041136696, 0.3780920640742089, 0.38238026414180465, 0.38667868008810763, 0.3910099938175123, 0.39532646494845236, 0.39969739675608934, 0.40403163581728346, 0.4083793586411459, 0.4126925872323368, 0.4170709886763783, 0.4215029285061449, 0.4258923742531969, 0.43029207345358683, 0.43459322884214113, 0.4390245350429487, 0.44354969670808586, 0.4479726689524102, 0.45240240606634063, 0.45683573873360694, 0.46127653400643387, 0.4656267683497233, 0.4700864034317597, 0.4745428550943726, 0.47900724075962453, 0.4834554289915646, 0.48802410120406015, 0.4924497679984269, 0.4968781706205424, 0.5011660541271382, 0.5056131958780906, 0.5100258842249965, 0.514456495794725, 0.5188754645139638, 0.5233590626405012, 0.5277444129496477, 0.5320990785594787, 0.5364698204926711, 0.5408289913402022, 0.5451195035967238, 0.5494600298556989, 0.553866398091503, 0.5581612139431945, 0.5624423554916824, 0.5666186164386505, 0.5708800612412752, 0.5752135711843595, 0.5794178500219773, 0.5836040818165817, 0.5876090136478205, 0.59177566743946, 0.5960192539718668, 0.6001103098891404, 0.6041764377133234, 0.6081513828062273, 0.6121727925160971, 0.6161265278107635, 0.6200885972355734, 0.6240158817053675, 0.6279867587779463, 0.6318334348726433, 0.6355697851826648, 0.6393619904058404, 0.6431157942462086, 0.6468261743769608, 0.6505021096994305, 0.6542613318488953, 0.6578401737993981, 0.6613842114479604, 0.6648107573553133, 0.6682903313077333, 0.6716424289691267, 0.675043161263288, 0.6783932889002484, 0.6816813876856098, 0.6849310986353326, 0.6882344732038436, 0.6913664213507758, 0.6944515351463372, 0.697513236843675, 0.7004976572038679, 0.703383355937335, 0.7062741673013656, 0.7091102772119868, 0.7118661014118888, 0.7145934054291581, 0.717264355323584, 0.7198735488955962, 0.7224230115398077, 0.7248873422600144, 0.7273184755097568, 0.729751702741314, 0.7320478669621626, 0.734283593765793, 0.7363364003038991, 0.7384635289300627, 0.7405226709294013, 0.7425091166846994, 0.7444255181894136, 0.7463572378494576, 0.7481223997576921, 0.7497296528902838, 0.7513741289416204, 0.7529459022963352, 0.7544246318140573, 0.7558532074930148, 0.7573177000466127, 0.7585837229081386, 0.7597814795259596, 0.7609594096894359, 0.7620113468367421, 0.7629499336599042, 0.7638695959574905, 0.7647160411169673, 0.7654436542019762, 0.7661474934103458, 0.766836803855948, 0.7673775594351308, 0.7678440989007773, 0.7681548321623222, 0.768481353526131, 0.7688016363087136, 0.7689580796547847, 0.769038630175667, 0.7689259125375116, 0.7688682226298178, 0.7687044580472556, 0.7684831087097468, 0.7681781794091407, 0.767817376594101, 0.7673439595071052, 0.7669186089001143, 0.7662690503542288, 0.7655471600961995, 0.7647431842926745, 0.7638756103710819, 0.7629130280204031, 0.7618981173531236, 0.7608066689353817, 0.759591423207922, 0.7583528257759489, 0.7571093128717867, 0.755703572508151, 0.7542238637995927, 0.7525711364849689, 0.7509557825304253, 0.7493642843184348, 0.7475775743647377, 0.7457188621522364, 0.7436284878713393, 0.7416460721524417, 0.7396121890928882, 0.7374661798529238, 0.7352440283777926, 0.7330120421922053, 0.7306325817964566, 0.7281005644453995, 0.7255933731621387, 0.7230130881746195, 0.7204958274196194, 0.7177557979147486, 0.714872700527519, 0.7120186665323692, 0.7090980349184183, 0.7060554104797946, 0.7030111830135406, 0.6999064592112707, 0.6967282019241884, 0.6934856545931714, 0.6902789418007924, 0.6868987973033853, 0.6833239326564856, 0.6798511556387208, 0.6763159804416677, 0.6728122120257176, 0.6691453171339429, 0.6654235616282432, 0.6616524137870347, 0.6578299491478288, 0.6539029931754724, 0.6499871571785305, 0.646053226231865, 0.6420308169580455, 0.6379611504343001, 0.6338834999441788, 0.6297176316927002, 0.6254761054850873, 0.6212314479634289, 0.6169446185322057, 0.6125808093720929, 0.6082177236214653, 0.6038994708998207, 0.5994458353180911, 0.5949593587696189, 0.5903666033920485, 0.5858262233250421, 0.5811906413550485, 0.5765905325663865, 0.5720860617832494, 0.5674018662905626, 0.5626941171359043, 0.5578151902991157, 0.5530815762094917, 0.5484401203026005, 0.5436347631770123, 0.538811192708608, 0.5338534779750161, 0.5290113421469443, 0.5241768172203278, 0.5192897956949029, 0.5143868232542297, 0.5095370254299838, 0.5045985542252912, 0.4996685135982395, 0.49471442991961295, 0.4897559569623623, 0.48474906043029853, 0.47979037164321553, 0.47477375642296216, 0.4698154114979986, 0.46485292160045816, 0.45994659039459274, 0.45497384812782804, 0.4499515721351379, 0.44499571308796065, 0.44004363043806916, 0.4350564696513324, 0.43012188497792775, 0.42514855777107474, 0.42023394280023835, 0.4153265827026214, 0.41053869342479493, 0.4056378582958825, 0.4006392543270038, 0.39579238073020473, 0.3909597989684412, 0.38615007071677043, 0.38135056684983765, 0.3765596493397809, 0.371802721287244, 0.3670679100966352, 0.3624983497120748, 0.3577941513145215, 0.35296451323169564, 0.3483490965608255, 0.3437592983437366, 0.3393248872409569, 0.33477477468301053, 0.33026196249455975, 0.3257867595275726, 0.3213495348023358, 0.31696645288271036, 0.31260450788151595, 0.3082086120937222, 0.30393699422324166, 0.2997023554878437, 0.2954203359321866, 0.29127371328809165, 0.287160195462896, 0.2830862286009566, 0.27905069436037516, 0.2750775275341784, 0.2711202456675755, 0.2673348711059766, 0.2634497912474044, 0.25961750357578345, 0.2557748605610464, 0.252055658626764, 0.24842812445347215, 0.24480192339549756, 0.24122809822662042, 0.23764383550573143, 0.23418321837784223, 0.23081921461259344, 0.22745212881754723, 0.2241384898634558, 0.22084256900341373, 0.21764113599407878, 0.2144379204610942, 0.21134823365488817, 0.20830874640443187, 0.20530235816092987, 0.20236812309826566, 0.19944499512433167, 0.19661982548740478, 0.19384542250508568, 0.1912351476344899, 0.1885506891989946, 0.1859234550349533, 0.1833579051824351, 0.18085107612281875, 0.17841169213524818, 0.17602036266291052, 0.17359976296290325, 0.17133607241639223, 0.16912525840903622, 0.1669025008937651, 0.16480679639087895, 0.1628197288542725, 0.16081765146070823, 0.1588702667720551, 0.1570360119664784, 0.1551904648470889, 0.15345436082828173, 0.1517170606795917, 0.15003909839704177, 0.1484216874446697, 0.14685907299424203, 0.1451843294051361, 0.1437552290341124, 0.14237146778878315, 0.14108756690169505, 0.1397891659516098, 0.1386393291233526, 0.13742737969528926, 0.13627002030251603, 0.13504915224975214, 0.13401234533788592, 0.1329752761339315, 0.1320335149687886, 0.1311337194090257, 0.13030525870079313, 0.12948598497999733, 0.1287711076628225, 0.12803109570111576, 0.12733728417011048, 0.1266661737559605, 0.12606458840790136, 0.12554767632365557, 0.1250237808421404, 0.12454262131906604, 0.12401307448237889, 0.12362528810919075, 0.12326052752541804, 0.12294233697375752, 0.12265698253750232, 0.12253673905920714, 0.12229898095359223, 0.12200786913215911, 0.12185780575940829, 0.12173816812622712, 0.12161894903802108, 0.121561517906751, 0.1216496705484937, 0.12162934354419846, 0.12164082897962655, 0.121543033668661, 0.12163086722926085, 0.12183688270736268, 0.12195033828907148, 0.12208784104645906, 0.12227510008634583, 0.1224534845876111, 0.12254349626664625, 0.12277805382200882, 0.12302548849036826, 0.12342031036746522, 0.12367509921112517, 0.1239263803660736, 0.12422028292607057, 0.12452860555920742, 0.12483200879612294, 0.12516744966394655, 0.12544043139227418, 0.12580291026182178, 0.12616872942429408, 0.12660489641369857, 0.12696743113881626, 0.12722985241895418, 0.12761576648044698, 0.12799905122030436, 0.1284986449596625, 0.1288607590705458, 0.1290999980012619, 0.1294827300270048, 0.12985865503617236, 0.1302477108982658, 0.1306064825020876, 0.13097645503666916, 0.13131871013307136, 0.1316538320438861, 0.13205517306153178, 0.13236405824988545, 0.13263365115407685, 0.1329342237463032, 0.1332245012608895, 0.13339549622018304, 0.1336757434444319, 0.13395235433149777, 0.13419177391930612, 0.13441245900473403, 0.13467477402458058, 0.13484919998209888, 0.1350565779870605, 0.13519074041545284, 0.13530926832467022, 0.13528718025714365, 0.13538628265705482, 0.13546141810462772, 0.13550773196137864, 0.1355322504705057, 0.13552520934602771, 0.13549168579845014, 0.13542461978051915, 0.13533801902280262, 0.13525053274314944, 0.13510445423348025, 0.1349313572140299, 0.134816128999805, 0.1345764943813544, 0.1342837411531237, 0.1339988334638143, 0.13368609973015025, 0.13340324512593987, 0.13302522930768737, 0.13249461279978195, 0.13207813255067527, 0.13162590517133965, 0.13126177886583, 0.13072286197812433, 0.13001609103328923, 0.1294370392485096, 0.12882000470469143, 0.12814064985187507, 0.12745192722387239, 0.12672038916388423, 0.12595606406779083, 0.12515403914539341, 0.12439341776407806, 0.12350716922083183, 0.12262466030281985, 0.12166901333488596, 0.12068246619279507, 0.11959699686181322, 0.11855559548906072, 0.11751406207049622, 0.11639609601806986, 0.11524446031406389, 0.11411979798231335, 0.11289295221739726, 0.11162673023296776, 0.1103398050261336, 0.10902117717965282, 0.10754470546520627, 0.10617805708810776, 0.10477223453519274, 0.10332824142021448, 0.1018470105039044, 0.10036539405816257, 0.09880769226837506, 0.09732516949733588, 0.095688717829431, 0.09402642577624555, 0.0922546527288791, 0.09055001711372568, 0.0887711705634546, 0.08700951573274034, 0.08521506675113677, 0.08345618049334798, 0.08159024372360968, 0.07960115425702184, 0.07769478874314475, 0.07575707649062495, 0.07389481732043932, 0.07188429187854747, 0.06975702860473676, 0.06771396839074383, 0.06564356893092943, 0.06354455399306735, 0.06142263820305576, 0.05924232568808645, 0.05707623255772983, 0.05488532155316417, 0.052708924075196735, 0.050466788234440764, 0.0482523470823983, 0.04596582084496299, 0.04366370382546554, 0.0412967881235909, 0.03897059835376559, 0.036653976694082414, 0.03429034088376093, 0.031912397534963007, 0.02947123847132943, 0.027072657969495265, 0.02468798913429709, 0.022256084228236522, 0.019812502722845515, 0.01741193999338892, 0.014940349329024355, 0.01249152113686253, 0.010003584993880805, 0.007511468557128739, 0.004882658460092295, 0.0023995483993422186, 0.0