0.049874476172505046, 0.04955868954966853, 0.04924692167541854, 0.04891341398297706, 0.048611218677309484, 0.04830083777790984, 0.04800182588401989, 0.04770306221654933, 0.04743631019414063, 0.04713388648039159, 0.04677108678772546, 0.046480115685946226, 0.04618706945022625, 0.0458962299530778, 0.04559941624845529, 0.04535857528930043, 0.045052695873950395, 0.04474007284255474, 0.0444401319338064, 0.04414163694115267, 0.043791414814364604, 0.04350208205457062, 0.043279757851443494, 0.04297821083869247, 0.04267925259362731, 0.04235873845543347, 0.042067157373134025, 0.04175089798203568, 0.04146352580783004, 0.04117527393647142, 0.040898293484090825, 0.040607415894872614, 0.04035801852943582, 0.040062788282236896, 0.039770377370357345, 0.039411583689293955, 0.03913273750868232, 0.03885477407601997, 0.03857243396284957, 0.03828918762558208, 0.038054354950067815, 0.037763890261569316, 0.03750384184629645, 0.037214813178417905, 0.036929542260782336, 0.03657342007379093, 0.03630395861338707, 0.03609936630641151, 0.03581906073433841, 0.03554172805259475, 0.035271088667843356, 0.03499846551992036, 0.0346581189686204, 0.03439924295127615, 0.03413859547628902, 0.033942878949569676, 0.033671541856451694, 0.03334895092064424, 0.033090436795663314, 0.03283153002490381, 0.0325738193554689, 0.0323147206062474, 0.03209842629290359, 0.031834914607477525, 0.03157450029817992, 0.03125467994308986, 0.031007751273756174, 0.03075458528135507, 0.030506824187438886, 0.030258522682596718, 0.03006170449565486, 0.029806731413672075, 0.029500642037376498, 0.02925880437275788, 0.0290167772376635, 0.028786773874125895, 0.028543674538240336, 0.028362776616508364, 0.02811451485002136, 0.02787107278672401, 0.02762539953006025, 0.027391215602571094, 0.027148427287520302, 0.02692217082489893, 0.02669813855314991, 0.02644444204843804, 0.026228665975198392, 0.026088694556952157, 0.025864082461160197, 0.02564437235512375, 0.02537876267754479, 0.02517398702167016, 0.024972808759933393, 0.024769719527893863, 0.024567974815100424, 0.02432259818589676, 0.024129509244829726, 0.023969957681078093, 0.023771098033297484, 0.02357407496154191, 0.023409443250975895, 0.023212436228131586, 0.02298469930411892, 0.02279932305795004, 0.02261538431693711, 0.022466153144645524, 0.02228128246480975, 0.02212657677842367, 0.021945492791277207, 0.021769233119815087, 0.021557692635621014, 0.0213951358585802, 0.021221028725967823, 0.021063659752490558, 0.02090744899613378, 0.020788380362241322, 0.020630526259171916, 0.02046046065540087, 0.020311860743576018, 0.02016579087300721, 0.01998250622819867, 0.01984658696562541, 0.01970175073716532, 0.019568068728837665, 0.01943486904393031, 0.019354185668967534, 0.019216388631035974, 0.01909877535431249, 0.01896733114330673, 0.018840695711880042, 0.0186960560017057, 0.018581082477860084, 0.01844637729927118, 0.018339848595381524, 0.01823484179747001, 0.01816334475783203, 0.018057864430722145, 0.017968085338635604, 0.017868501479003443, 0.017773098060812037, 0.017696252090626113, 0.01760677997760705, 0.017438260399020047, 0.017368013607210787, 0.017297065673642597, 0.017235173979661303, 0.01716302928334582, 0.017091972963211906, 0.017022251845621717, 0.01695407903397769, 0.01694993660445665, 0.016877504425440018, 0.016801307627726424, 0.016740685189547633, 0.016684315794766705, 0.01658159415481657, 0.01653941821397119, 0.016491408272879336, 0.01645189600041668, 0.016413250682556984, 0.016403539532946626, 0.01636377007883063, 0.01630979749967115, 0.016278183058170196, 0.016248472114038195, 0.01625784418713756, 0.016227428905517233, 0.0162210382068709, 0.016196122614863376, 0.016175952130910717, 0.016153521798641945, 0.01614258989675128, 0.016072722976806893, 0.016076187700102714, 0.016079126589797342, 0.016129595786748326, 0.016126419294602054, 0.016086517475975205, 0.016094286114963236, 0.01610255243785545, 0.01611812979575816, 0.016127083500732026, 0.016129431624835672, 0.01614214383669741, 0.016155859211507063, 0.016238274827350307, 0.01624571729099365, 0.01621842351524696, 0.016240453605513065, 0.016264337364162752, 0.01625155776045061, 0.016283782057482484, 0.01631415753932344, 0.01634574508552014, 0.016377183550484616, 0.01643251674985607, 0.016461163116502017, 0.01646495336274632, 0.01650016925333706, 0.016535371036832856, 0.01661309985881006, 0.016643258929605585, 0.016681387245928558, 0.01671592602482305, 0.01675288532268685, 0.01678535712669491, 0.01682717959257833, 0.016830517638173198, 0.016879772082243553, 0.016927771680337204, 0.01696939847146565, 0.017016080901410394, 0.017123974953297493, 0.017160749733478066, 0.017200195315534173, 0.01724588044257896, 0.01728898157669175, 0.01727157054695904, 0.017325792382219863, 0.01738297926327483, 0.017432090113016083, 0.01747959312599426, 0.01752561181924952, 0.017570245911844702, 0.017616224585806653, 0.01765796920758558, 0.017698655783214518, 0.0177343115541998, 0.017773384540130954, 0.017890685135288083, 0.01791710032218516, 0.017946673342118285, 0.017889937816456317, 0.017935155147208413, 0.01798340645989805, 0.018020845551891308, 0.018055519572937398, 0.018106108299315724, 0.01813324942179413, 0.01818149866907026, 0.01820284761061389, 0.0182238531611463, 0.018221710823295947, 0.018244090108434155, 0.01825748991022847, 0.018275977711815328, 0.018291685151569873, 0.01836295284885643, 0.018365768286965456, 0.018312102008265888, 0.01832267538985233, 0.01832965640867948, 0.01835565309773264, 0.018352807224002468, 0.018333229839415058, 0.018327775999385607, 0.018319064023974374, 0.01835082382536116, 0.01833002281886678, 0.018342829410546085, 0.018315580762790766, 0.018288693521621723, 0.01823905469657564, 0.018214068940656296, 0.01816940543214227, 0.018141490413449105, 0.01810975683965502, 0.018063573104866594, 0.018025464500257313, 0.018035891057283506, 0.017982174729704786, 0.01792707441193451, 0.017863587357171213, 0.01780547723421686, 0.01770485249685629, 0.01764607350943752, 0.01758194276371026, 0.01759216191213501, 0.017507765007708107, 0.01738052041292081, 0.017300104098552916, 0.017215900648284446, 0.017183525935582557, 0.017084552046278817, 0.01694368680653471, 0.016847832057031817, 0.01674798195347819, 0.016698455977234385, 0.01658367313934635, 0.016503681431783497, 0.016381939968752965, 0.016260394350942318, 0.016115900900081897, 0.015995851283420424, 0.01595930795251902, 0.01582286113477131, 0.015688239029328716, 0.015537392929206749, 0.015406265082531198, 0.015244721648672863, 0.015114410146730298, 0.014980550002182512, 0.014946530090723782, 0.014792519747844755, 0.01461431727102751, 0.0144675257267576, 0.014320144066260995, 0.01417979371837717, 0.014029299774453564, 0.01395872176287017, 0.013795911508807702, 0.013636331063777238, 0.013512362642017451, 0.013352909465621478, 0.013156874172545754, 0.01300812953696266, 0.012859086032464755, 0.012761302688180291, 0.012604773902865138, 0.01252483268553305, 0.012363235962071213, 0.012207454552346703, 0.012073894694078739, 0.011925234146766536, 0.011769370751644572, 0.011631099550739663, 0.011495860628439452, 0.011375334065003094, 0.011243985535212128, 0.011172826416411518, 0.011040530795930373, 0.010914445010253708, 0.01076892996985757, 0.010657194836988852, 0.010623438484142853, 0.010509858710496776, 0.010404327970676995, 0.010259993289324266, 0.010175159322515155, 0.010139783559973062, 0.010058246509825057, 0.009984089270737786, 0.009959639530281726, 0.009894680371813555, 0.009857968530063555, 0.009809794535143981, 0.00977194344779094, 0.009785275936050972, 0.009762272368194937, 0.009727602267244385, 0.009731676235466998, 0.009746056510217437, 0.009758873108051926, 0.009795609834686173, 0.009876788211858986, 0.009929428504274111, 0.009994616117478948, 0.010087006883385298, 0.01017572376039582, 0.010333855435461793, 0.010443117555215873, 0.010569493791919854, 0.010718031762774777, 0.01087729708889418, 0.01102034624817177, 0.011217601647149173, 0.011429903933205957, 0.011666889641946357, 0.011909209118067011, 0.012234511006867017, 0.012502205961108594, 0.012791034466531563, 0.013051804808945636, 0.013388741613084443, 0.013758436990903707, 0.014130354692282304, 0.014522214993519487, 0.014956919308489303, 0.015386938393873515, 0.015827394523937766, 0.016303892890293024, 0.016802597827590457, 0.01735837066854623, 0.017898339326765197, 0.01845573023930416, 0.01904761276105295, 0.019664782083523593, 0.02033537593290147, 0.021000530257401326, 0.021690860833944614, 0.022412149522154885, 0.023161450052328135, 0.023925756255815805, 0.024733535048254124, 0.025576047176064657, 0.02643963814542486, 0.0273325915415652, 0.028321581904193628, 0.029266087458488736, 0.03023429818584988, 0.031248656895944592, 0.03229658931983719, 0.03336495535603923, 0.03448210265780876, 0.03561665196535555, 0.03680277085252312, 0.038022010862635125, 0.03927620153308581, 0.040563024292814685, 0.04194286476682749, 0.04329218255078022, 0.044680422548059484, 0.04609300483497819, 0.04756098744225793, 0.04907252913115758, 0.05061661225790198, 0.052199784453613306, 0.05385013407428382, 0.05550874217156701, 0.05719423447831185, 0.05893769466463655, 0.060764414239573565, 0.06258446537519542, 0.06444829104179138, 0.06634921728746412, 0.06830134228927334, 0.07023192794534147, 0.07227922886625564, 0.07436660559979125, 0.07653718711940677, 0.07870144317733149, 0.08084520560388758, 0.08310682707797984, 0.08540974289350264, 0.08778785723130518, 0.09017140537174245, 0.09258430929390209, 0.09506071079564637, 0.09758209912600524, 0.10018997413649323, 0.102797333491138, 0.10548094944565514, 0.10818161484792083, 0.11093224471206199, 0.11367032429918433, 0.11652815013653071, 0.11944383159222403, 0.12239238111542583, 0.12538824723463138, 0.12845284661629763, 0.13154126692859763, 0.13469730952029738, 0.13788148629478653, 0.14111571608371212, 0.14440114873212553, 0.14773480686525445, 0.15106509236444468, 0.15450460583851827, 0.15799051217756652, 0.16153769036164123, 0.16511538571484996, 0.16878213722296284, 0.1724506136278777, 0.17616942913249903, 0.17991836863297309, 0.18373939744304227, 0.18760870388804318, 0.1915261607428121, 0.19549163037158923, 0.19949568555308944, 0.20355789663595403, 0.20762867900371257, 0.21178966291071358, 0.21599525849614554, 0.22023634206809733, 0.22453273934860343, 0.22893051506679596, 0.23330853135335008, 0.23773419719761257, 0.24214868531159953, 0.24667551876784513, 0.25129825732238653, 0.2559041377720353, 0.26055578654079203, 0.2652460246020418, 0.26998839872874764, 0.2747519945379616, 0.2795842406420029, 0.28445799496432134, 0.2894087260091326, 0.2943599801696628, 0.2993218885072726, 0.30436140432786274, 0.3094402236477241, 0.31451550923787497, 0.31967701026863937, 0.3249151855246543, 0.33014250219216207, 0.3354073323505192, 0.3406944843379489, 0.346034337561558, 0.351381173740014, 0.35679364727591323, 0.36223827525191654, 0.36777036100101496, 0.3732711007091566, 0.3787939297751632, 0.3843632534197396, 0.3899640157396603, 0.3955595870557827, 0.40122522746304573, 0.4068859559259701, 0.41260885731154273, 0.41835570898777835, 0.42414733497688883, 0.4299381865103801, 0.4357912722279121, 0.4416241144520251, 0.44748140383452756, 0.45336336279815265, 0.4592660828928179, 0.4651131730997413, 0.47106703433268693, 0.4770356808751148, 0.4830226441445662, 0.48901895246444244, 0.49503403013357333, 0.5010559315680972, 0.5070902060976767, 0.5131493004419931, 0.519204184076584, 0.5252537490695942, 0.5313308061250224, 0.5374155186976644, 0.5434778142309312, 0.5495787641033506, 0.555716057944558, 0.5618184787720988, 0.5679244137217716, 0.5739638245641321, 0.5800821615817153, 0.5861676281633313, 0.5922816571664787, 0.5983891124054983, 0.6045054165450109, 0.6105961733062688, 0.6166490528999077, 0.6227280310724146, 0.628796153905886, 0.6348845343822721, 0.6409247574152698, 0.6469085464763825, 0.6529305960720516, 0.6589364558657308, 0.6649756889558688, 0.6709403248071477, 0.676839972358453, 0.6827775605746591, 0.688693743622996, 0.6945305822985387, 0.700408298848756, 0.7062836643880872, 0.7121025440677821, 0.7178940588277293, 0.7236745048102798, 0.7294062662323479, 0.7350384617271027, 0.7407193054921458, 0.7463645397807929, 0.751944383030534, 0.7575201520719338, 0.7630406982485666, 0.768539265625047, 0.7739963862471068, 0.7794035079071174, 0.7847768669911946, 0.790093060988275, 0.7953795394670558, 0.8006198322204015, 0.8057999448922071, 0.8109472680550444, 0.8161115582799433, 0.8211511050735217, 0.8261434568667329, 0.8310156357036964, 0.8359184796035194, 0.8407832385308205, 0.8455725398938084, 0.8503059898300821, 0.8549799927925157, 0.8595992299253806, 0.864147672435034, 0.8686497404076174, 0.8730903742409806, 0.8774329270993195, 0.8817526331147459, 0.8860434077906714, 0.8902257364186904, 0.894342878977291, 0.898356761531006, 0.9023453577516802, 0.9062956548977693, 0.9101393832785756, 0.9139135187949098, 0.9175349623196773, 0.9211775704839935, 0.9248254610352796, 0.9283036802698058, 0.9317091534847082, 0.9350011418689196, 0.9382632678390163, 0.9414595353015043, 0.9445640304907289, 0.9475903093121185, 0.9504979561700482, 0.9533708919416395, 0.956210511069305, 0.9589122339293034, 0.9615337440831653, 0.9640637102714418, 0.9665239888983034, 0.9688271519086337, 0.971130501544739, 0.9733457379160788, 0.9755432121609141, 0.9775735838050214, 0.9794695635461756, 0.9813376600129073, 0.9830872606975869, 0.9847830761514663, 0.9863889222322977, 0.9879327386162706, 0.9893554014469922, 0.9907203525262133, 0.9919625527242595, 0.993117852835401, 0.9941301451614045, 0.995117419263118, 0.996022767387555, 0.9968265957472574, 0.9975399972154544, 0.9981298675730326, 0.9986667073465271, 0.9991378777703397, 0.9994873171645269, 0.999746661823365, 0.9998854784434771, 0.9999686606875067, 1.0, 0.9998952759224211, 0.9997018379915757, 0.9994104026164431, 0.9990407289135298, 0.9986084167386686, 0.9980572630434931, 0.9974188107876125, 0.9966201599861129, 0.9958163891283804, 0.9949823612007483, 0.9939891529400726, 0.9929095745413133, 0.9917133305670932, 0.9904654829787519, 0.9891090446693003, 0.9876896711978607, 0.9861828467667635, 0.9845641295314603, 0.9828878049371483, 0.9811128839388433, 0.979265654462808, 0.977332901459275, 0.975326194568473, 0.9732239199698127, 0.9710037388189784, 0.9687425585829228, 0.9663988555031334, 0.9640187809766296, 0.9615075496621502, 0.9589221259857148, 0.9562575042630548, 0.9535174763562417, 0.9506642629650947, 0.9477802926975889, 0.9448804718087923, 0.9418390132738353, 0.9387274941840544, 0.9354854919885239, 0.9322432684299664, 0.9289519070959469, 0.9255646834062845, 0.922109420534698, 0.9185764955409983, 0.9149894507217611, 0.9113725408176676, 0.9076507667605139, 0.9038675577706005, 0.8999534841599257, 0.8960587964472759, 0.8921622916507196, 0.8881358136727965, 0.884052931684416, 0.8798522880053717, 0.8756673325343819, 0.871420095212792, 0.8671233842725334, 0.8627724276786202, 0.8583952449416659, 0.8539369398041501, 0.8494104271408492, 0.8448591957702313, 0.8402609470729954, 0.8355985024414329, 0.8309126866730382, 0.8261908592509783, 0.821417598318336, 0.8166037713653472, 0.8117295444563204, 0.8068413766759611, 0.8018996312174048, 0.7969396416251032, 0.791944078170422, 0.7868946398354134, 0.7818351484932331, 0.7767767368779221, 0.77165057516288, 0.766497439326216, 0.7613305386383118, 0.7561257802348064, 0.7508534748782354, 0.7456106276397487, 0.7403451241370654, 0.7350717708729052, 0.7297638955881145, 0.7244983021680388, 0.7191494962043505, 0.7137893455498872, 0.7083961548369506, 0.7030187275084111, 0.6975889295573434, 0.6921981071823158, 0.686797262341353, 0.6813547702351486, 0.6759425758665437, 0.6705136607933347, 0.6650894402484836, 0.6596605661867834, 0.6543042370082205, 0.648861375001551, 0.6433870685796166, 0.6379582933300866, 0.6325336288561368, 0.6271368249093793, 0.6217211678707874, 0.6162707537695206, 0.6108795945242093, 0.6054969699019549, 0.6001176193926322, 0.5947569657542068, 0.5894336508783621, 0.5840954358067746, 0.5787733806953821, 0.5734274345850409, 0.568146007223274, 0.5629425036994847, 0.5576886124111761, 0.5524577337953626, 0.547180373931646, 0.5420066958982158, 0.5368438074902039, 0.5317156229869892, 0.5266109057992138, 0.5215879844833222, 0.5165269253542939, 0.5115056180093678, 0.506505027516993, 0.5015368279100394, 0.4965976736239024, 0.4916966629801187, 0.4868058853108425, 0.48197676528074485, 0.4771817770141946, 0.47237805733978566, 0.4676594723734985, 0.4630254886716553, 0.4583701482594727, 0.45375409724188426, 0.44916734345841713, 0.44463303841358537, 0.440071632609315, 0.4356275418618876, 0.43122146618909807, 0.4269394021676474, 0.4226020313276515, 0.4182311339149866, 0.41399606041805, 0.40980300690837196, 0.4057151688794635, 0.40160089557074724, 0.39753196745272584, 0.3935142187123796, 0.3895447165672302, 0.3855706669665918, 0.38170504022903773, 0.3779251237444831, 0.3741470022119414, 0.3704182856685451, 0.36668881494018807, 0.3630658967982634, 0.3594941291436221, 0.3559656344588069, 0.352485629936142, 0.34902007547676966, 0.34564262740997176, 0.3423181565069896, 0.33903594389379543, 0.33580273852238807, 0.33262288248010385, 0.3294882253430788, 0.32645806584536213, 0.32341700693760544, 0.3204294396575481, 0.3174141535889744, 0.3145427477460926, 0.31174844194532253, 0.30896956330399167, 0.3062408618932158, 0.3035835103575081, 0.3009523430507924, 0.298352459729198, 0.2958258436527006, 0.2933195191567395, 0.2908953479903676, 0.2885186703130935, 0.2862332626377345, 0.28394609169839946, 0.28170086472857975, 0.27951402959931587, 0.27737571933186894, 0.2752736070305195, 0.2732326549345746, 0.27119725052336086, 0.26925444447842206, 0.2673552963689285, 0.2655660446310937, 0.26374566048416725, 0.2619683904391645, 0.26024195531816563, 0.2585609375036226, 0.25684646547178885, 0.25526418304601656, 0.2537872367957472, 0.25227468424526633, 0.2508048172710323, 0.24931730539995986, 0.24793831031195662, 0.24659529635337935, 0.24529089213289595, 0.24402328268665394, 0.2428239911562252, 0.24162503192799362, 0.24046761834132782, 0.23934261475805882, 0.23825403861063194, 0.23714151942649678, 0.23613117238841605, 0.23523656873742665, 0.23427707025436828, 0.23335269082534682, 0.23240141373156878, 0.23155188811399352, 0.23077079816159352, 0.22997312743843942, 0.22920540854362145, 0.22848402953753635, 0.22777151579327562, 0.22700391490082347, 0.22635784876342302, 0.22573363807230185, 0.22515888601532144, 0.2245741059344532, 0.22406355867943534, 0.22351669131729932, 0.2229939925119033, 0.2224585983270673, 0.2219855747937669, 0.22157003714428858, 0.22112956246912205, 0.22070891935190776, 0.22027529202183005, 0.2198953581319785, 0.21948416588896044, 0.2191397126019972, 0.21880647485068166, 0.218557063156576, 0.21823610962977474, 0.21792148584005774, 0.21762908986267884, 0.217348540533078, 0.21700738224907828, 0.21675696729989735, 0.21658339701037463, 0.2163342300863739, 0.21609382477138675, 0.21578174175018658, 0.2155662211196024, 0.21538285025666162, 0.21516661703900838, 0.21495333591574936, 0.21473717332825326, 0.21452886007042588, 0.21431361931785534, 0.21410784387539858, 0.21390159850241874, 0.21372224389213332, 0.21351009900786563, 0.2132697438613566, 0.2130596348841152, 0.21284614033251412, 0.21268181060739852, 0.2124534221389663, 0.2122125868089634, 0.2119809397286873, 0.21174507800602335, 0.21145390184404084, 0.21121382272077602, 0.21093279816948995, 0.21067824489214998, 0.21041229006840476, 0.21014817285646173, 0.20985764335404403, 0.20954566721045292, 0.20923454549955867, 0.20891147225484735, 0.20858818178773442, 0.2082390889262001, 0.20793506277275864, 0.20755455609333565, 0.20716462606676952, 0.20669156799233773, 0.20628966595470216, 0.20586804651584922, 0.20543511977861906, 0.20498611361696734, 0.204536876559961, 0.20405350685309792, 0.20354544077413594, 0.20303217204801463, 0.20250249656600194, 0.20194565939492223, 0.2013840567511447, 0.20081559970050772, 0.20021767280212405, 0.19960274202316197, 0.19896931725876385, 0.19832005996283109, 0.1976346964749234, 0.1969525583797934, 0.19625157973301838, 0.19559277178252302, 0.19484650640399834, 0.1940650287388319, 0.19329014699056507, 0.1924979361501659, 0.1917253127520707, 0.19089318826009619, 0.18999627110940923, 0.18913844258445292, 0.18826136024905876, 0.18739561863827006, 0.18647650167144186, 0.1854818567838225, 0.18453558188923583, 0.1835686212741933, 0.1826556208529195, 0.18163912753505793, 0.18055426775299038, 0.17951353694070113, 0.17845404187971753, 0.17738269529999146, 0.17628568416739399, 0.17522016660587225, 0.17408207406035886, 0.17292963026171787, 0.17172820930736318, 0.17055098790276058, 0.16938631489635697, 0.16817244602730108, 0.16694413985990658, 0.16562853956624457, 0.16438075271233263, 0.16317167995690687, 0.16188085262975457, 0.16057636101085226, 0.1591974206362529, 0.15787389871131416, 0.15658031267759462, 0.15521874784531395, 0.15384475994855112, 0.1524692338566345, 0.15106991233707087, 0.14962649975625888, 0.1482096888035107, 0.14678053869608307, 0.14531439598249535, 0.14386532972072202, 0.1424080345039121, 0.1409347446636476, 0.13945081656191127, 0.1380204645619601, 0.13650895917633096, 0.13499473461297884, 0.13347216618276894, 0.13194444824979917, 0.13034671112506793, 0.1288171897629935, 0.12730176992529615, 0.12575325058585599, 0.12419896104187553, 0.12260888431864737, 0.12104831357679718, 0.11948430717389588, 0.11791192847530614, 0.11633497882191772, 0.11476865299891985, 0.1131825349362158, 0.11160768855555278, 0.11001635624818348, 0.1084246380677176, 0.10688587013449422, 0.10528763331698568, 0.1036810339861681, 0.10209135852865613, 0.10050182806543316, 0.09891821042175661, 0.097337538726799, 0.09573750219037347, 0.09416626775450893, 0.09258553244028689, 0.09102114032793861, 0.08945945616671104, 0.08788513743510079, 0.08633255470621896, 0.08477945256897217, 0.08323493090514374, 0.08169490103360938, 0.08023155892218847, 0.07869328701072151, 0.07709371373967415, 0.0755850058337068, 0.0740825267332044, 0.07265450455430068, 0.07115778259667352, 0.0696026137711728, 0.06813837630511982, 0.06668202422489475, 0.06523419004840972, 0.06379546810341744, 0.062346534578103366, 0.060930195093030305, 0.059523432845253015, 0.05821435951971677, 0.05681752738667407, 0.055379934494425735, 0.054022580596713984, 0.052677913757664875, 0.051347614742641164, 0.05002920459997977, 0.04874843508878081, 0.047454871162241334, 0.046177016210966884, 0.04493881469177015, 0.04368962924196023, 0.04239680991520122, 0.04118993967672383, 0.03999687027537876, 0.03888435170903254, 0.03771188947550537, 0.03655826144431969, 0.03542330586100742, 0.03430689758309963, 0.033171829169063215, 0.03209695744309064, 0.031066187781345653, 0.030020607898018806, 0.028993395293685605, 0.027989870025695397, 0.02699878584044182, 0.025984032629928114, 0.025035806638328495, 0.024103957582382825, 0.023210052169479994, 0.02230931427445674, 0.021384695234309584, 0.02052647667120185, 0.01968457513058055, 0.01885542263108674, 0.018047832199958886, 0.017275968328411908, 0.016500668276883648, 0.015744131060827296, 0.014967980874058888, 0.014254003310368479, 0.013612440207306856, 0.01292522931473027, 0.012258472386152144, 0.01157747619523927, 0.01095530622103189, 0.010377508235285403, 0.009787785230153456, 0.009217535415489744, 0.008616198857769508, 0.008090696278156673, 0.007671412930191449, 0.007166903843272168, 0.006683932349983009, 0.006207322044809132, 0.005767531670805488, 0.005264634649302914, 0.004873040676706901, 0.004495239485640031, 0.004185930528533072, 0.003829836711726288, 0.0034954284239186685, 0.0031739840663983047, 0.0028699445170911365, 0.0025551836333244046, 0.0022886089656236398, 0.0020794414638648845, 0.0018374354345493972, 0.0016126777594417483, 0.001349060734128595, 0.0011645530512931707, 0.0010379931038112813, 0.0008736183288760199, 0.000724754681740987, 0.00054199005281557, 0.00042925733226159866, 0.00036665260344887586, 0.00027249234549780554, 0.00019224979256825115, 0.0001627088383715437, 0.00010462181085276851, 5.22782468573683e-05, 2.4791948756878837e-05, 1.0613970935038596e-05, 0.0, 1.2237964876642898e-05, 4.123565516899575e-05, 7.538983182024674e-05, 0.00012064894766620158, 0.00013954043445527127, 0.0002106382990514473, 0.00025922687346926696, 0.0003501019617647944, 0.0004471477952449296, 0.0005902839232830473, 0.0006950497481747552, 0.0007727292378979584, 0.0008991079990765785, 0.001031544450885068, 0.0012336308949455828, 0.001370004020389711, 0.0014627814606543222, 0.0016240658804302763, 0.0017905517752976321, 0.0020098125236670825, 0.002180210354207903, 0.0023500358516761527, 0.0025356137416239887, 0.0027269844817331256, 0.002905129962380656, 0.003109069379939031, 0.0033376420243399134, 0.003545491287017463, 0.0037574351923305906, 0.003986293584982221, 0.004203463741200435, 0.004376502950128033, 0.00460639209270878, 0.004836238911995569, 0.005129614949968284, 0.005351148225584406, 0.00557597947002113, 0.005803478658563553, 0.006033062252306838, 0.006223097959579149, 0.006460460514795994, 0.0067438081384679, 0.006971564457248325, 0.007200041985793513, 0.007424752501318954, 0.007653678550501022, 0.007843239055082257, 0.008074799246696551, 0.008302551087751915, 0.008539730600183367, 0.008758114280233114, 0.009025019112379865, 0.009230344580529019, 0.009435050206946254, 0.009683616253117915, 0.009879675155050775, 0.010000481790400776, 0.01020589409861945, 0.010405845180094641, 0.01062283359842283, 0.010808901425331963, 0.011054274648216815, 0.011223427024558917, 0.011391385475801511, 0.011558768141990134, 0.0117221282977497, 0.01189440687507942, 0.012049734384105998, 0.0122017767084315, 0.012320889214249493, 0.012468659317587892, 0.012722903466529035, 0.012843954677516327, 0.012964983200846547, 0.013025381850112198, 0.013151155094752816, 0.013297554440543126, 0.013408066963925422, 0.013513934170828254, 0.013638721998013675, 0.013731453246759616, 0.013870517039135432, 0.013948459497326468, 0.01402456073353197, 0.014173740229331863, 0.01423480054486128, 0.014263505463216575, 0.014329347922505169, 0.01439231487389564, 0.01451693009684687, 0.014564740094680529, 0.01457384870059039, 0.014625278755454761, 0.014707444277597922, 0.014746890428514167, 0.01478426399282353, 0.014844419548647115, 0.014873555834759581, 0.014901281965055782, 0.014927287608109727, 0.014951345557973731, 0.014987883213894234, 0.015005807906981531, 0.01511114233540412, 0.015114943142710995, 0.015122198113324544, 0.01509642283452344, 0.015113160474922, 0.015183996230650325, 0.015193323985605484, 0.015205430236000508, 0.01526766974031584, 0.015278309791431948, 0.01531216663156821, 0.01532930568249584, 0.015351317647043637, 0.015391060779290007, 0.01542006524341395, 0.015444544870183681, 0.015484030599325486, 0.015527443021269542, 0.015569529737992692, 0.01562167807080672, 0.01568573927149638, 0.015745060697686095, 0.015809343308307577, 0.015950428918702145, 0.01601641071874094, 0.0161134721511914, 0.016196296420841277, 0.016289839135447827, 0.01635412376424002, 0.016473593832401823, 0.016643610493168048, 0.016774342391785286, 0.016916341686492788, 0.017048474444572654, 0.017215975010021388, 0.017433719789281325, 0.017617559402925264, 0.017814949608454814, 0.018047227667761564, 0.018269479209063588, 0.018500388752760957, 0.018754153593118324, 0.019023098798386123, 0.01936448925841034, 0.019657430639401577, 0.019910018275321763, 0.02024900314364823, 0.02060384268467984, 0.021057266973153563, 0.02143507474802783, 0.0217965691881493, 0.022223390691790707, 0.022670065024564673, 0.02317274765307786, 0.023655729636436324, 0.024155123858642685, 0.02468517408180214, 0.02523824635854457, 0.025784157242892375, 0.026388072940653314, 0.02704214415879869, 0.02768781771764261, 0.028358640781474254, 0.02905633591000029, 0.029778500159507594, 0.03053110901322797, 0.0313061404727139, 0.03210874302010535, 0.03295259569660308, 0.033809947878204245, 0.03468896678507906, 0.03560691057512316, 0.036554739633637916, 0.03752627180073957, 0.03853605116941481, 0.039608507531932756, 0.04067650445317459, 0.0417781673906165, 0.042920367830425694, 0.04408928201801491, 0.045330153480112254, 0.04656431784248994, 0.04783594529592648, 0.049085388790488, 0.0504395412792805, 0.051865081141815324, 0.053283708794773336, 0.05473991274228111, 0.05623264485468943, 0.05776501630761689, 0.05937950669869375, 0.06098342692992137, 0.0626288368167048, 0.0642507710773373, 0.06598737384478044, 0.06783481249241025, 0.0696386909514069, 0.07148581594412294, 0.07331386341299448, 0.0752553257214458, 0.07723260622091287, 0.07925474476896512, 0.0813175867123579, 0.08350253431337405, 0.0856381605738306, 0.08773705077403354, 0.0899765714598081, 0.09225781247769327, 0.0945985627004495, 0.09696269146211854, 0.09937634715537808, 0.10182854544044993, 0.1043258260431906, 0.10686441961665369, 0.10945297518885154, 0.11210155002804321, 0.11477933621641814, 0.11750375534632411, 0.12026954965383685, 0.12308803531000663, 0.12601527968217163, 0.1289188833556423, 0.13187258469809002, 0.13486533381787932, 0.13791928513225804, 0.1409406920488979, 0.14410126491749234, 0.1473051824951451, 0.15057014144775147, 0.15385989891675497, 0.1571911942191647, 0.16057262630635152, 0.1639996000522547, 0.16746559345929105, 0.17098476932945683, 0.17454667484236394, 0.1781570042079022, 0.18181264243345685, 0.1855719190499674, 0.18931078605359872, 0.19304248072016, 0.1968848247198052, 0.20077145107896144, 0.2047473680288967, 0.20871664865029607, 0.21274439223537497, 0.21680471334884105, 0.2209112183956356, 0.22507657943313972, 0.22927205028198477, 0.23341600283315947, 0.2377135662887162, 0.24204970817441937, 0.24645908690892004, 0.2508685348416311, 0.2553692213944132, 0.25985373987896215, 0.2643813298808455, 0.2688915872300162, 0.273510620319119, 0.27820694920826533, 0.2828958053227011, 0.2876239602763193, 0.2923589876093383, 0.29716792176548185, 0.30204434239013805, 0.30692024410467716, 0.31183285469162547, 0.316725822341641, 0.3217168508976994, 0.3267871453221097, 0.3318350027569635, 0.336916563533611, 0.3420006141971807, 0.34715125508188394, 0.35228928623990463, 0.35750441450154247, 0.36274595561178574, 0.3680176703231506, 0.37331081418128886, 0.378686731838065, 0.38402377429116735, 0.38938884473887525, 0.39472394116206294, 0.40014927348455215, 0.4055739256748603, 0.41104530275153545, 0.41653619676486764, 0.422081972840561, 0.4276060408885053, 0.4331541554935741, 0.4387169763285651, 0.4442890310949637, 0.4498891112288926, 0.4555052991927168, 0.4611062319014545, 0.4667558469470888, 0.47243707005780083, 0.4781069498905544, 0.48378828527105205, 0.4894801647291778, 0.49518166225083815, 0.5008613516489737, 0.5065831100378232, 0.5123099224080514, 0.5180596185825398, 0.5237919708449007, 0.529469798823984, 0.535216138116221, 0.5409610236895948, 0.5466972921388704, 0.5524384339479019, 0.5581640189808387, 0.5638987509627381, 0.569627803099752, 0.5753452003604137, 0.5810614881022892, 0.5867788955855735, 0.5924769109995002, 0.5981656805877923, 0.603864146576574, 0.6095290632957285, 0.6151789782950366, 0.6208211801099436, 0.6264498024335899, 0.6319841863937118, 0.6375923224438212, 0.64320289352156, 0.6487646792093529, 0.6543053327619853, 0.659829334290731, 0.6653245503709679, 0.6707274327960006, 0.6761835881736632, 0.6816105249526215, 0.6869826145948705, 0.6923528850012295, 0.6977466261575836, 0.7030449942157081, 0.7083132810710326, 0.713533191989704, 0.7187402980969052, 0.723829637474769, 0.7289778420057579, 0.7340851982907535, 0.7392110498023382, 0.7442281580481019, 0.749206576366654, 0.7541452670111165, 0.759043186962777, 0.7638648270675792, 0.7686824256662792, 0.7734038135497826, 0.7781353345601357, 0.7828166299965152, 0.7874976562085289, 0.7920708215882101, 0.7965951462680426, 0.80106962728113, 0.8054932662236765, 0.8098412118018328, 0.8141632154661682, 0.8183691138431302, 0.8225877917454923, 0.8267463596033797, 0.8308325843783971, 0.8348714634704387, 0.8388431586875805, 0.8427585613821835, 0.8466109632069476, 0.8504171527795606, 0.8541399992212059, 0.8578152590746104, 0.8614084109557585, 0.8649375579992652, 0.8684058365609875, 0.8718039642396531, 0.8750907644202613, 0.8783612431573805, 0.8815612989875755, 0.8847064155169939, 0.8877623235851974, 0.8907062782377151, 0.8936250510835988, 0.8964694491108759, 0.8992736731617228, 0.9019641446115967, 0.904593228025161, 0.9071349377698706, 0.9096027816868618, 0.9119245052645538, 0.9142516695087307, 0.9165268509980796, 0.9186908500405562, 0.9207765342326962, 0.9227796182410247, 0.9247082477286123, 0.9265772939830117, 0.9283442042603983, 0.9300322198054971, 0.9315666847212924, 0.9331050414063207, 0.934630712718889, 0.9359917403041537, 0.9372729690260757, 0.9384236126626431, 0.939550399472143, 0.9405722120478012, 0.9415342439278006, 0.9424114938806143, 0.9432227557869418, 0.9439287753122986, 0.9445954214324767, 0.9451296924215546, 0.9455833324413054, 0.9458711789803224, 0.9461733461604236, 0.9464582112077609, 0.9465797042221399, 0.9466197941783439, 0.9465240057954748, 0.9464078143563187, 0.9462122046628643, 0.9459263268355004, 0.9455568574669648, 0.9450895657423648, 0.9445558012990896, 0.9439201066160559, 0.9432224020144241, 0.9424411896966873, 0.9416088697703946, 0.9406583587942261, 0.9396344488835406, 0.9385233207240877, 0.9373331063794976, 0.9360243026649483, 0.9346817587744304, 0.9332547907976073, 0.9317525189626975, 0.9301708919648344, 0.9284999790670813, 0.9267629920466024, 0.9249891372320346, 0.9230917731404442, 0.9211202160622438, 0.9190615952696655, 0.9169445165585378, 0.9147749665055372, 0.9125084395625453, 0.9101706266661608, 0.907691734191967, 0.9052216478572624, 0.9026804766588846, 0.9000637189380554, 0.8973756087178831, 0.894629121892964, 0.8917999128621612, 0.8889110441858551, 0.8859464936198707, 0.8829165544130742, 0.8798273534642567, 0.8766684511563457, 0.8734178016939066, 0.8701382290719066, 0.8667960791705668, 0.8634162933125732, 0.85994920557129, 0.8563737206819501, 0.852797806344496, 0.8491627751109668, 0.845522947725609, 0.8417668459088217, 0.8378934576085801, 0.8340416829049229, 0.830135532846968, 0.8261896329309939, 0.8221771301772608, 0.8180805370083901, 0.8139743037442592, 0.809818829755113, 0.8056513261411186, 0.801397070249262, 0.7970838221148905, 0.7927464291630746, 0.7883671128575285, 0.7839245065685883, 0.7794676862424382, 0.7749897144590961, 0.7704524594705998, 0.7658791692597915, 0.7612524174479374, 0.7566127942012985, 0.7519925038889512, 0.7472800792951803, 0.7425394808531254, 0.7377198320342695, 0.7329319173805989, 0.7281075449173184, 0.723264968220702, 0.7183881488939371, 0.7134953624639233, 0.7085785417541507, 0.7036496692994395, 0.6986875454282315, 0.6936728953188541, 0.688677398774954, 0.6836630712005118, 0.6786645098244717, 0.6736126659920146, 0.6684950853855209, 0.6634255908786101, 0.6583425613544556, 0.6532435263817457, 0.6481383956642105, 0.6430265239669101, 0.6379036689615093, 0.6327743172589188, 0.6277007336987228, 0.6225545193651716, 0.617385148256918, 0.6122440665848402, 0.6071038060825674, 0.6019507566931888, 0.5968168986715038, 0.5916541559241715, 0.5865312740812855, 0.5814117183985524, 0.5763007936932562, 0.5711913282042447, 0.5661184292621313, 0.5610212608943583, 0.5559354512946033, 0.5508406722583157, 0.5457829042413794, 0.5407273465206296, 0.5356976020336002, 0.5306821623823854, 0.5257338184962347, 0.5207437088729252, 0.5157541197161359, 0.5108079242812872, 0.5058822298065269, 0.5009354215199491, 0.49605849623990195, 0.49121799825497264, 0.48638123942060635, 0.48156811810620664, 0.47680075910985303, 0.4720349555992299, 0.46728870155401714, 0.4625795820327406, 0.4578988639541678, 0.45325390811045413, 0.4486313427356884, 0.44403573797600815, 0.43947619305767827, 0.4349486424692198, 0.43038349524156017, 0.4259307877071872, 0.42150675240189617, 0.4171153945638908, 0.4127562489876907, 0.4084926501666665, 0.40419308453946273, 0.39985789024677226, 0.39564524175966026, 0.3914676941373363, 0.3873884809051256, 0.3832759873958677, 0.3791304506135345, 0.3751099439559065, 0.3711269215553914, 0.36719149540122165, 0.36328469525045476, 0.35942348839179183, 0.35559715619105803, 0.351812476367772, 0.34803142921643326, 0.3443361389128533, 0.3407225887678912, 0.3371040282015528, 0.33352960860540004, 0.3299955193104571, 0.32651036546124446, 0.3230748798567004, 0.31967793769212205, 0.3163259397098209, 0.31302558341546277, 0.3097628333604049, 0.30651243463115624, 0.30334483302360715, 0.30022081534153366, 0.2971180821131484, 0.29408474424619496, 0.29110624048785844, 0.2881575057600643, 0.28525289475684446, 0.2824176924211677, 0.2795984095092088, 0.2768447431804791, 0.27411421274081044, 0.27143012601144145, 0.26879741646041605, 0.2662044561605191, 0.26364259372667825, 0.2611424611633207, 0.25868645653784567, 0.2562491638019601, 0.25388389984210735, 0.2515328024626812, 0.24925501417656454, 0.24701753555724235, 0.2448695215033001, 0.24270673644494922, 0.24058055164570416, 0.2385046188793157, 0.23647066349345525, 0.23450083841790995, 0.23254684132319497, 0.2305567233090506, 0.22869620571293264, 0.22687224411854437, 0.22513263764516833, 0.22337592951289933, 0.22167440903134555, 0.21999376633986645, 0.21835232180033345, 0.2167335480249338, 0.21517065935866414, 0.21363894464612568, 0.21214921576371376, 0.21069473128352684, 0.20929493666926494, 0.20790710165252516, 0.20646016328827815, 0.2051536083940696, 0.20387551620277178, 0.2026604851102744, 0.20143527722194185, 0.20027640286669648, 0.19910737564456868, 0.19797010346908028, 0.19687313444169777, 0.1957960179584167, 0.1946933439534864, 0.19368271790498015, 0.1926975444899167, 0.19175210685729374, 0.19081506074439933, 0.18985687844563096, 0.18897568358593847, 0.188116068894984, 0.18735605381690945, 0.18652909427104214, 0.1857021905750779, 0.1849279235571153, 0.18417557356155045, 0.18342853283019397, 0.182719928701718, 0.18206339821119966, 0.18138791798556653, 0.18073210760972752, 0.1800235458381141, 0.1794136208003621, 0.17881424169061946, 0.17823084793364152, 0.1776600551041963, 0.1771877477957954, 0.17663039761354882, 0.1760020522177607, 0.1754876588202041, 0.17498273572713502, 0.1744909874404466, 0.17400364584091257, 0.17352506565582196, 0.17305483584414239, 0.17259252194934108, 0.17220659639186184, 0.17175001896500092, 0.17125079353449613, 0.17082061403588186, 0.1703957883163543, 0.16998243271200966, 0.16956594031850336, 0.1691191700989491, 0.16871483779285218, 0.16831162693709711, 0.16791058618894827, 0.16750859345875208, 0.16710954080948454, 0.16670743413037498, 0.16630503620810067, 0.16595363610406394, 0.16554289369750894, 0.16513617380685464, 0.16472700141670635, 0.16431772361165123, 0.16384660356080247, 0.16344258073439907, 0.16303287455940652, 0.16261733869592046, 0.16222231261410403, 0.16179123168162596, 0.16135523594179582, 0.16094835072061858, 0.16049686760743576, 0.16005571243304853, 0.15959320733034224, 0.15912597020269792, 0.15859498117696408, 0.1581236188455719, 0.15769269316636733, 0.15719502296525692, 0.1566900859599737, 0.15609917232097253, 0.15558811708552026, 0.15512763540582777, 0.15458266905944812, 0.15402864833085164, 0.15348111769171394, 0.15290591976039622, 0.1522473279190829, 0.15166277445151535, 0.1510641069584768, 0.15052316381638042, 0.1498879589298227, 0.14917704586754502, 0.14853093383818627, 0.14787086943363922, 0.14726862600944976, 0.14657216498591075, 0.1458410900434267, 0.14512850254902845, 0.1444042211971315, 0.14369328435671727, 0.14294201264022238, 0.14210983071249314, 0.14134583699895148, 0.14056670783890457, 0.139823171325293, 0.13900844470115617, 0.1381439491117032, 0.13731129056951683, 0.1364649053403321, 0.13559839497438725, 0.13472606809378074, 0.13381908285179342, 0.1329227850059387, 0.1320123278128157, 0.13116233213173187, 0.13021531576238451, 0.12919841943100543, 0.12824101476821337, 0.12727076541274826, 0.12635425619070742, 0.1253508500720647, 0.12433787921990944, 0.12331790234903789, 0.12228915036278865, 0.12119183755879055, 0.120152712654772, 0.11908130928464304, 0.11802038032787497, 0.1169468637119396, 0.1159488337811425, 0.11484081381332181, 0.1136856878441022, 0.11257062099079504, 0.11144686979206975, 0.11034250583685476, 0.10919858410786833, 0.10803767426231686, 0.10688236736390416, 0.10572020219286463, 0.10454077223323315, 0.103366844211552, 0.10215032507439345, 0.10096765562402131, 0.09977685553412627, 0.09863423068193714, 0.09742200104839001, 0.09619994824007604, 0.09498226659012936, 0.093761252552015, 0.09247880029354379, 0.09125916673029252, 0.09012377251160414, 0.08888169189828543, 0.08764021339326239, 0.08632769413108511, 0.08509633008577185, 0.08386814306681008, 0.08262969915158558, 0.08138946373044868, 0.08018244639024197, 0.07893588964714704, 0.07768310494303557, 0.07644122068985355, 0.0752010684703062, 0.0739059693565346, 0.07267745064672251, 0.07147362752959693, 0.07024174298138113, 0.06901232468565112, 0.06777924064930692, 0.06655706195265339, 0.06538215503942699, 0.06416200568135012, 0.06294882224034982, 0.06171222895278237, 0.06051719262498997, 0.0593278233239402, 0.05814455044623838, 0.05696779229414429, 0.05576879534480268, 0.054609967479271306, 0.05350493104125195, 0.05235282984349855, 0.05121067132383428, 0.05009054506649683, 0.04896726006341213, 0.04787102161720621, 0.04676811501221827, 0.04567748259289467, 0.04454877981833945, 0.043489173703132815, 0.04249486001045897, 0.04144797682365962, 0.04041485299251372, 0.03935044215083424, 0.03835063109737985, 0.03738076358508674, 0.036401847334145726, 0.035436272464417946, 0.03443129199913249, 0.03349992235966456, 0.03265661155336757, 0.03173856971081496, 0.030837345896305657, 0.02987734934453942, 0.02901923435463579, 0.028242597656193476, 0.02740151718905003, 0.026578093611619377, 0.025768335317327307, 0.024980704602362687, 0.02414159697422245, 0.02339765393056496, 0.022667447358875607, 0.021970178048982766, 0.021266965826016063, 0.020571000046522687, 0.019902331952063985, 0.01925027977392846, 0.018676154945877745, 0.0180506033198963, 0.01737309741640025, 0.016798413158482878, 0.016240122623239202, 0.015746344916545012, 0.015215963465021182, 0.014655350327283843, 0.014171502525215863, 0.013704755741411858, 0.013317725125244262, 0.01287820939587885, 0.012464094249417985, 0.012066624989478367, 0.011690235853514676, 0.011289586103743761, 0.010960263906761365, 0.010631521636184802, 0.010340164300239686, 0.010065950758561253, 0.009859501063675048, 0.009613917706382319, 0.009339895375485902, 0.009141458465767418, 0.008960363490730603, 0.008810030599006438, 0.008662404007699276, 0.008525304447238249, 0.008415606759429725, 0.008323855294891356, 0.008242097362547907, 0.008187225098034637, 0.008202816056955995, 0.008176133792750081, 0.008169863616102394, 0.008211378901978806, 0.008241059126725892, 0.008294073388907268, 0.008364187795482212, 0.008453992133887948, 0.008558989309268412, 0.00868715830388282, 0.008752501721222782, 0.00892658363522618, 0.009113439704627939, 0.00933327823966483, 0.009544083938970953, 0.009830551143542357, 0.010063019694045517, 0.010298983835989694, 0.01056890333604254, 0.010855028376590728, 0.011145072974409288, 0.011464063935197928, 0.011824076695510619, 0.012168518839626049, 0.012528518822386737, 0.01289303568895125, 0.013284205685297285, 0.01364933156122759, 0.014072684209589915, 0.014506955962078407, 0.014962792326808552, 0.015417649325254879, 0.015850900736072857, 0.016332868134314546, 0.016824202198018886, 0.017326316826377666, 0.01783643377746193, 0.01837865121938185, 0.018904999264249635, 0.019442038073319495, 0.0200013980065389, 0.02055740692586522, 0.021093376475968793, 0.02167372636922328, 0.022262003742049452, 0.02290312888514149, 0.023501098114346225, 0.024139502861925174, 0.024752943868711606, 0.025376932120483177, 0.02596696558465449, 0.026615353862401346, 0.027317432514608782, 0.02797147210531628, 0.028633641374575036, 0.029221110894762252, 0.029908033749597007, 0.030599314613226562, 0.031289452362535976, 0.031981669274389994, 0.03273828654315792, 0.03342681337699014, 0.03412087409746374, 0.03481989001677093, 0.035523318170832006