0.03188764127163455, 0.031534132444000405, 0.031318693119577565, 0.03103614321904129, 0.030726215764050886, 0.030522118497480055, 0.03034181912359169, 0.030126982862820076, 0.029990791578754263, 0.029892410514011886, 0.02977381647976734, 0.02966487854942277, 0.02952897081797906, 0.02944006039298578, 0.02941912466698696, 0.029330814255705676, 0.029250086540958297, 0.02914996080714907, 0.02908636773784932, 0.02906664336311329, 0.02900842549605339, 0.028957866128616217, 0.028842655811253108, 0.02881671759790428, 0.02879119558383255, 0.028774450742365128, 0.028763156314191213, 0.0286911329783939, 0.028701763414966965, 0.02881007943460258, 0.02881858270543501, 0.02883906574316319, 0.028794292085263178, 0.028849713069778623, 0.02895098437053594, 0.029020356955400905, 0.029102591966580164, 0.029178866710449794, 0.029290999095148533, 0.029351294927931596, 0.02949920779152092, 0.029658160970041602, 0.029797495924231514, 0.0299857288245692, 0.030152689979329416, 0.03037072434606629, 0.03060115710001655, 0.030845122900629064, 0.03110363568200886, 0.03139347822163379, 0.03168169793344301, 0.03198779334678614, 0.03228582166229496, 0.03263251957293656, 0.032991724413575035, 0.03337528604537475, 0.03377748203975834, 0.03416179212191183, 0.0346074687072513, 0.035173452419993013, 0.035642860048310174, 0.03613731251320743, 0.03663185243501638, 0.03717878793092531, 0.037688769360919874, 0.03828941981518423, 0.038909905098412634, 0.03955963993488736, 0.04022041820176897, 0.04094375759806333, 0.04164378646275731, 0.04236887492706252, 0.042995579652417674, 0.04378656182605691, 0.044708788209930954, 0.04552328728446328, 0.04636458379486934, 0.04717623706671631, 0.04807833062862526, 0.04896713136639694, 0.04992196744225308, 0.05089954811832062, 0.051946528502598795, 0.05296610059503801, 0.053990240764869676, 0.0550679660485029, 0.05617240691199553, 0.05730929145558415, 0.05846777946671056, 0.05966510801502533, 0.060879102832109754, 0.06212260363563823, 0.06338348936483688, 0.06468824836056605, 0.06590254752509278, 0.06728180419318185, 0.0686844753107469, 0.07015240444744782, 0.07160044954635093, 0.07315876080174359, 0.07465536390378488, 0.07618675110448185, 0.07770864395054732, 0.07931468347322464, 0.08094907657192335, 0.08261959717675722, 0.08432232453134116, 0.08604517130659, 0.08781463720851317, 0.08955459590434842, 0.0913966442331351, 0.09326803778626327, 0.09522949674763424, 0.09715412998503026, 0.0990834504029521, 0.10108124810336212, 0.10311206980115044, 0.10514617164845358, 0.10724753515574012, 0.1094461436796322, 0.1116035854997532, 0.11379737658720007, 0.116007861041348, 0.11827606862550802, 0.12049415304250251, 0.12284212294219883, 0.12521977865355527, 0.12771593352675983, 0.13014353627004913, 0.132603794651296, 0.13510385122840282, 0.13763919018907586, 0.1401001350981827, 0.1427189729603614, 0.1453748948546579, 0.14804974132499796, 0.150754434155719, 0.15358808735554216, 0.15634087287777224, 0.15913508093441117, 0.16195877005372764, 0.1648175499150831, 0.1676684246814956, 0.17060080391632496, 0.17350052091075774, 0.17650239916530872, 0.17953109445210966, 0.18269799664878064, 0.18576694430692323, 0.18880242588767182, 0.19194612541546893, 0.19511795209555585, 0.1982770969478149, 0.2015095763416711, 0.2047971076716504, 0.20807592881591422, 0.21138144983669221, 0.21465157104728178, 0.21801720708074565, 0.2214913797792075, 0.22489034651006778, 0.22831631833581673, 0.2316873644923498, 0.23517528060314283, 0.23875921131629288, 0.24227776815192634, 0.2458205038506808, 0.2493883563655445, 0.2529767657456894, 0.25649352618234833, 0.26013666075687947, 0.2637948191240843, 0.26750149805941553, 0.2711853165608823, 0.27492101025687365, 0.2786330291758708, 0.2823625416431089, 0.28604340786809723, 0.28981356683418213, 0.2936073273874187, 0.2973981094918853, 0.3012001349314174, 0.30505344263880513, 0.30887117926805774, 0.31270777505362984, 0.316547258910644, 0.32039702129216535, 0.3242737027236134, 0.3281388057022384, 0.3319698825885696, 0.33585586422717884, 0.33971562034286756, 0.3436122157978364, 0.34750945798737265, 0.35136097388414667, 0.3552637429586074, 0.3591982089477016, 0.36308907638336, 0.366977716617272, 0.37092339934531227, 0.3747978381891287, 0.37860062666124744, 0.38248053619686123, 0.38635287563744874, 0.39023640582941016, 0.39408917715339986, 0.3978857837766789, 0.4017265984286467, 0.4055543713558107, 0.4093932502775376, 0.41319011107625897, 0.41694351359679394, 0.4207163292983304, 0.42447217674122717, 0.42831797796831855, 0.4320241735023229, 0.43564315921372604, 0.43933082374949045, 0.4429979606323912, 0.4467177428696578, 0.45033168787633865, 0.45386649945107604, 0.45744818455766256, 0.4610043455364593, 0.46454640863445623, 0.4680471898607233, 0.47144627262210226, 0.47490018361431785, 0.47832028744175314, 0.4817608620877568, 0.4851051443481361, 0.4884560863933176, 0.49173014017700795, 0.4949721920095517, 0.49806979088081976, 0.5012580049605951, 0.5044994493436182, 0.5075912708094352, 0.5106457667887521, 0.5135911862924373, 0.5165764323379393, 0.5194816619941943, 0.5223813872247611, 0.5252333307195178, 0.5280636490024938, 0.5308157018725206, 0.5334974195934958, 0.536156876517482, 0.5387662419332447, 0.5413002773961898, 0.5438109257289945, 0.5463706950303804, 0.548761580499413, 0.5511041059954112, 0.5533863523770053, 0.555629563179905, 0.5578023816455926, 0.5599412686944296, 0.5620243576392339, 0.5640137832390664, 0.5659875282065008, 0.5679433513268308, 0.5697907726433671, 0.5715793977137629, 0.5732166788891531, 0.5748969042662139, 0.5766043453353246, 0.5781402074781116, 0.5796150213212913, 0.5809750226619945, 0.5823319574847488, 0.5836524834120956, 0.5848725501112708, 0.5860273327357894, 0.5870527838933984, 0.5880834354332188, 0.5890366382889999, 0.58992744181822, 0.590747506049002, 0.5915039154637276, 0.5921816580002036, 0.5927467033914953, 0.5932889657714225, 0.5937582479893545, 0.5942359026429905, 0.5945495267413334, 0.5947069951145081, 0.5948953036928254, 0.5950096290834593, 0.5950449247233924, 0.5950126515700511, 0.5949278954615678, 0.5947458322500145, 0.5944916614179357, 0.5942359226962194, 0.5938285455324048, 0.593330033049556, 0.592788585475965, 0.5921765993794149, 0.5914550435599206, 0.5907062763913342, 0.5899495529652025, 0.5890463126815276, 0.5880739872482029, 0.5869211637175078, 0.5858239744571846, 0.5846667383586095, 0.5834165231486095, 0.582092883973737, 0.5807370048541735, 0.5792631950861588, 0.5777694051682297, 0.5761508343561683, 0.5744661634469806, 0.572653550998543, 0.5708442752201922, 0.5689600855476717, 0.5670128597526616, 0.5649969666417374, 0.5629148452744819, 0.5607634205878154, 0.5584678367135407, 0.5561938198461914, 0.5538502553190567, 0.5514331603108235, 0.5489550304110892, 0.5465466268982546, 0.5439202746581399, 0.5412377343823829, 0.5384989977453319, 0.535704156634087, 0.5327246148614235, 0.5298344865351671, 0.526881829772778, 0.523915732684957, 0.5208363063988743, 0.5176906353308786, 0.5145021400392301, 0.5112592232349358, 0.5079099740117117, 0.5045679417307357, 0.5011644950259708, 0.49771607594810013, 0.4942157264082073, 0.4907407030689738, 0.48713105518000405, 0.48348486068379515, 0.47978778745260603, 0.4760489006392051, 0.47219657948194343, 0.4683853834588161, 0.4645940895092704, 0.4606890765530898, 0.45674683939274047, 0.45275941095705524, 0.44874643988312624, 0.444640207404134, 0.4405655381523149, 0.4364546422746573, 0.4322790718382003, 0.4281041015557289, 0.4239151395455839, 0.41967259935175727, 0.41540104916426307, 0.4111971645845906, 0.4068597632059432, 0.40248345774292155, 0.39811009158608407, 0.3937173739234402, 0.38927443457455063, 0.3848497256823562, 0.3803396291227088, 0.375887955173746, 0.37141669151792417, 0.367010553685227, 0.3624949667524062, 0.35796965661733166, 0.3534355782312264, 0.34889372008031777, 0.34436450615663566, 0.3398077180306087, 0.3352385528921264, 0.3306767023943649, 0.3261127089119269, 0.3214947265890525, 0.3169363924103426, 0.31243974543838604, 0.3078712957491187, 0.3033076619960192, 0.29871629446043446, 0.2941694646342113, 0.2895332940769018, 0.28501166356566976, 0.28049321426776064, 0.27606996020404756, 0.27155251848335754, 0.2670932183382667, 0.26259929297843126, 0.25801806979417957, 0.25357529481248464, 0.24914651155000503, 0.2448180022198657, 0.2404112384993815, 0.23602429669869557, 0.23166540656216433, 0.22733115152137354, 0.2229253134758677, 0.21865503851457418, 0.21439760490639284, 0.21017339758658868, 0.20597352466600705, 0.2019265301434417, 0.19776376390333628, 0.1934939013799514, 0.18942106817625137, 0.18537661485360474, 0.1814432224011858, 0.1774497661350173, 0.17353060213538193, 0.1696075646706146, 0.16572508022695168, 0.16188876371476896, 0.158087722394726, 0.1542933266571577, 0.1505809820292848, 0.14690937335565188, 0.14319453838962265, 0.13961723813189156, 0.13609918753287256, 0.13259671569582854, 0.12913609823998168, 0.1257535935580413, 0.12237508471878275, 0.11908724444074498, 0.11579679471993132, 0.11255637470947286, 0.10932199220894927, 0.10618756454551156, 0.10307110223648489, 0.10003690224722586, 0.0970499924998207, 0.09416047100317673, 0.09126394400708383, 0.088419410114815, 0.08562700473878812, 0.08288686234846876, 0.08021851983798284, 0.07758083993674947, 0.07492279797907583, 0.0724019043220964, 0.06993050536498735, 0.06747565026321757, 0.06510911008418682, 0.06292398683583769, 0.06063957186148553, 0.05841287516679414, 0.05620624940638172, 0.05409792470736205, 0.05200654464349119, 0.05001072385246126, 0.04806648724647554, 0.04615102862456315, 0.04431319830758554, 0.042601775028974116, 0.04085563991402946, 0.03916462439694597, 0.03743116121547263, 0.03586105266640472, 0.034363756109226554, 0.032887046810562565, 0.031460338502141715, 0.030113550329103355, 0.028782790392446703, 0.02749453703676427, 0.02626709639136542, 0.025089576536917846, 0.02402508452675443, 0.022938152559746437, 0.021958129814423587, 0.02096775634227608, 0.020030778821915837, 0.019147636711317282, 0.018313343079614224, 0.017553525162311324, 0.016814564014502292, 0.016124628457956165, 0.015443727074835918, 0.014853280128713222, 0.0143381015706012, 0.01382999142357528, 0.013365833606386306, 0.013029390169707401, 0.012639719619231092, 0.01233844852319339, 0.012034042944154182, 0.011775174610828902, 0.011591955466081714, 0.011415345991905721, 0.01126737987763543, 0.011176506647113161, 0.011124595001432923, 0.011080431541608194, 0.011106643262959454, 0.011256658974131393, 0.011338387494063684, 0.01145747026432773, 0.011668900289448756, 0.011851281401878256, 0.012026005155388701, 0.012285217858722415, 0.012575256460945507, 0.01295153150923547, 0.013293016496595115, 0.013684937690961439, 0.014084682522685315, 0.014513942878650736, 0.015013727289724966, 0.015492765906371483, 0.015999968884454666, 0.01653390921262871, 0.017093264839240122, 0.017800295458108763, 0.018391265224693167, 0.018974087873539564, 0.019625540947997105, 0.02029999569283027, 0.021022554176421997, 0.02173569487949614, 0.022494251556440505, 0.023244421851722305, 0.024014229545249757, 0.024865892262875628, 0.02566317808436985, 0.026478333431341716, 0.027313590835169006, 0.028165482858086333, 0.029101566202087956, 0.029974405069088637, 0.030889019357662934, 0.031791385992954016, 0.032709352201999324, 0.03359209551031696, 0.0345433662773056, 0.03557592143072181, 0.03653530948956965, 0.03750646718033658, 0.03848297049805511, 0.03947505458127543, 0.04046848685758939, 0.04147748799602442, 0.04249300452782326, 0.043532093292279105, 0.04455671055245812, 0.04557488616043495, 0.04661229698495807, 0.04765381345313494, 0.04870435099764643, 0.04975231168207665, 0.05087596864190171, 0.051921189398768726, 0.052973207715489495, 0.05403646295074963, 0.05509894598763127, 0.056106268796829, 0.057185346720545274, 0.05826469974993928, 0.05941489609778065, 0.060485892982442446, 0.06154174635047544, 0.06262317315418725, 0.06370675456925896, 0.06476401952773361, 0.06585478795525412, 0.06697021904235026, 0.0680578999053326, 0.06914714927304129, 0.07025200133651209, 0.07134239951636129, 0.07247912054967565, 0.07356828211685426, 0.0746619800887601, 0.07577395336032552, 0.07687389805096598, 0.07794476566961306, 0.07905756557277152, 0.08017247179824642, 0.08125082452415344, 0.0823753335954881, 0.08347914371296758, 0.0846078187948947, 0.08573685925920756, 0.08689165577108843, 0.08802035263301414, 0.08922688521163988, 0.09035411425371781, 0.09149007970736324, 0.09260462313300831, 0.09376142911527331, 0.09485798316652219, 0.09603713043326681, 0.09730813103528414, 0.09848431867779621, 0.09967086201989633, 0.10087140669475139, 0.102078626202122, 0.10326516877269004, 0.10449880881956132, 0.10574229538801973, 0.10702621887563181, 0.10828741732164412, 0.10960254972484386, 0.11088572376221233, 0.11218534751984312, 0.11334454951760081, 0.11469740185627107, 0.11609202584403247, 0.11745874042936377, 0.11883867285966214, 0.12033526916311225, 0.12173203106466178, 0.12304161225714222, 0.12449676015771678, 0.12596836449453902, 0.12757226385894782, 0.1290657399987446, 0.13047608449934125, 0.13203597607795997, 0.13361624419557463, 0.13520742187294632, 0.13683308517540696, 0.13850820229807315, 0.14017757171179518, 0.14187350633571297, 0.1436549867570667, 0.145398972691119, 0.14720503904530233, 0.14900967702488901, 0.15084866359609228, 0.15264272810823207, 0.1545608621268912, 0.15648120679602912, 0.15846472017842322, 0.16047892981206313, 0.1625902121756205, 0.1646608181811699, 0.166698368899723, 0.16885334114983944, 0.17104273420871005, 0.1733628419609467, 0.17561207113810778, 0.177796389191015, 0.18014473683729232, 0.1825300201816787, 0.18507503580728482, 0.18752194896275493, 0.18994684628836608, 0.19249593255669914, 0.1950878186555935, 0.19779188928633262, 0.20046241174970378, 0.2030842711861338, 0.2058637693364005, 0.20868619863034982, 0.21163709308908218, 0.21453718854749346, 0.2174803077040289, 0.2204814662540656, 0.2235323658250416, 0.22654846182248625, 0.2297099669626874, 0.2329468992658584, 0.23619634157770308, 0.2394945354856544, 0.24280842509273654, 0.2462097084856986, 0.2496573702767363, 0.2531557808166128, 0.2567034042161817, 0.2603254381011436, 0.2639698020444393, 0.2677154769920979, 0.27145755260433524, 0.27525454050648407, 0.2790743616890142, 0.2829842375282374, 0.28692692822525034, 0.29094368412595106, 0.29501152220408833, 0.29919581412905494, 0.3033578202257819, 0.3075535778863834, 0.3118275580142253, 0.31615421000148713, 0.32048734314920513, 0.3249241641135802, 0.3294506746075436, 0.3339806234246887, 0.33856196562321805, 0.34312725870608773, 0.3478186355573103, 0.35263048664465757, 0.35740535552689184, 0.36223087789042085, 0.3670728801587846, 0.3720019840697112, 0.37698142757041253, 0.38200332178977675, 0.387071414336889, 0.39219756369544384, 0.3973549878885945, 0.4024677650243041, 0.40772652490473776, 0.41302416776888207, 0.4184400778313803, 0.42380533636314377, 0.4291130543271423, 0.43457611107531513, 0.4400746425988463, 0.44563672180190844, 0.451202064495178, 0.45681250474625645, 0.46244860025826784, 0.4681200380072324, 0.4738559393659601, 0.47959162257513954, 0.48525222863820583, 0.4910691112878245, 0.49691169683766, 0.5028854752819116, 0.5087648970061949, 0.5146039902673598, 0.5205512822300241, 0.5265218191643848, 0.5324846864413033, 0.5385026734690598, 0.5446169008526853, 0.550661468529319, 0.5567272503023045, 0.5627085532116692, 0.5688251084437468, 0.5749434290514251, 0.5810815368672648, 0.5872281716542261, 0.5934618742213208, 0.5996129051597358, 0.605761783486319, 0.6119330490409505, 0.6181103943799767, 0.6241828524962255, 0.6303814111661064, 0.6365927758788591, 0.6427787191964133, 0.6489592784049562, 0.6551580856641425, 0.6613214855965489, 0.6674668981067934, 0.6736153728143154, 0.6797529075870874, 0.6858022214448569, 0.6919231643814641, 0.6980933482932795, 0.7041655751586103, 0.7102202114793542, 0.7161462481184471, 0.7221746226612944, 0.7282660775546156, 0.7342247713726606, 0.740158298971303, 0.7460614089635196, 0.751939883916257, 0.7576608191563978, 0.7634926253294257, 0.7692834182453288, 0.7750413636113692, 0.7807469284047356, 0.7863831968224089, 0.792005386393419, 0.7975810767671855, 0.8031392766240734, 0.8086151488589897, 0.813993624651576, 0.8193782969832749, 0.8247092849892516, 0.8300525347554102, 0.835264343045747, 0.840445709350688, 0.8455460734797512, 0.8505907909933191, 0.8555461879257606, 0.8604779201341329, 0.8653007524692824, 0.8701107052920819, 0.8748520399617749, 0.879504238189265, 0.8841074231519248, 0.8885845598112543, 0.8930471617480993, 0.897431586356242, 0.9018112686975779, 0.9060279237943106, 0.9101366235455807, 0.9142034493700556, 0.9181647402461681, 0.9220718875382681, 0.9258945573744405, 0.9296265313770885, 0.9332781189732775, 0.9369179614925328, 0.9403838311020527, 0.9437645026789175, 0.9469755186088422, 0.9501917215524487, 0.9533665895071601, 0.9563869242383063, 0.9593146351604491, 0.9621027428809843, 0.9648477150226424, 0.967460772372066, 0.9700125823169083, 0.9724628985349794, 0.9748219680142775, 0.9770669171975213, 0.9792028191542129, 0.9812441906574875, 0.9831821987581042, 0.9850411136816869, 0.9867679906189657, 0.9883704444497128, 0.9898928781850231, 0.9913096813287687, 0.9926187201259702, 0.993823392201739, 0.9948736448215268, 0.9958704620484027, 0.9967572369796386, 0.9975305665010769, 0.998198055007565, 0.9988067744145359, 0.9992480392917155, 0.9995824412140769, 0.9997902518087901, 0.99991246344314, 1.0, 0.9998952921365776, 0.9996859740685936, 0.9993415063497307, 0.9989252175775709, 0.9984012992047832, 0.9977697425555949, 0.9970305974378513, 0.9961486875328357, 0.9951991988388116, 0.9940806400758668, 0.9929211010048682, 0.9916502106762516, 0.9902654967615787, 0.9887754743612037, 0.9872845590598082, 0.9855648983596869, 0.9837446990274754, 0.9818240262836848, 0.9798030382429136, 0.9776096514216295, 0.9753979960948534, 0.9730829436364, 0.9707184762372133, 0.9681931103914765, 0.9655987123006998, 0.9628758939019662, 0.9600587249316034, 0.957085980802677, 0.9540895571468685, 0.9509900574900643, 0.9478037300850912, 0.9445234779117089, 0.941194714819002, 0.9377249706201456, 0.9341218479367311, 0.9304838463303781, 0.9267577421283091, 0.9228991017183058, 0.9190068916016101, 0.9150724087160673, 0.9110036773902228, 0.9068546178810469, 0.902665417559442, 0.898354939633402, 0.8939263839560917, 0.8894746436447039, 0.8849487300892226, 0.8802955270631166, 0.8756328997910504, 0.8709224546896124, 0.8661136993515377, 0.8612378181172582, 0.8562612662042355, 0.8512607952374417, 0.8462316807585084, 0.8411008903676257, 0.8359121009678416, 0.8306704758789537, 0.8253701527759558, 0.8200416479815126, 0.8146340681721853, 0.8091782553850363, 0.803624498063326, 0.7980830667639863, 0.7924843934712666, 0.7868529429542229, 0.781178131842402, 0.7754937124374831, 0.7697341310179621, 0.7640006270710923, 0.7581635721318274, 0.7522976610296482, 0.7464058516237512, 0.7404856584416846, 0.7344805185277018, 0.7285193510128735, 0.7225326554740492, 0.7165082789426017, 0.7104781748249054, 0.7044822685081255, 0.6984062953611968, 0.6923169235526101, 0.6861751087736516, 0.6800686904671092, 0.6739318664948345, 0.667807834065001, 0.6616755560934021, 0.6554700412721752, 0.6493358433356788, 0.6433085580778615, 0.6371505730810978, 0.6309977733952704, 0.6247403898201224, 0.6186161517363621, 0.6125003442537333, 0.6063840482537346, 0.6002757622326509, 0.5942781512784453, 0.5881794273869589, 0.5819699239651319, 0.575928330184592, 0.569901403377587, 0.5638860695537163, 0.5578957003412381, 0.5520319095617002, 0.5460716024492338, 0.5401418483902334, 0.53424361842651, 0.5283779180151716, 0.522556366870693, 0.5167575172374539, 0.510994966845819, 0.505132126389489, 0.49946263122252, 0.4939518293253892, 0.4883318010384941, 0.48275479722804954, 0.4771511612458764, 0.471671870942713, 0.46626264541565465, 0.46086498137749055, 0.45551371095232723, 0.45021000006583123, 0.44495498542654655, 0.4396598043875074, 0.4345168507048611, 0.4294207779075406, 0.42437332791486637, 0.4193761231614056, 0.4144289111222418, 0.409536851777517, 0.40469917202058536, 0.39995768497823725, 0.39522726497817023, 0.3904846404068558, 0.38588428963584614, 0.3813413265282076, 0.3768834131640128, 0.3724553806328746, 0.3681759714621089, 0.3638620824016943, 0.3596165931493672, 0.35533533310626286, 0.3512395795521744, 0.3472274015108448, 0.34325463109547233, 0.3393470681257672, 0.33555286296793996, 0.3317711996608631, 0.3279582709667375, 0.3243278923399421, 0.32076114707803416, 0.3173152909582945, 0.3138709843543972, 0.31054145876964756, 0.3072292458523853, 0.30398862602250964, 0.3007433881847217, 0.29765450437331303, 0.2946760548666234, 0.29171456222493736, 0.28882241859142643, 0.2859571052987431, 0.2832084579369454, 0.2804697444903967, 0.27786111681926334, 0.2753141029839268, 0.27283290026771173, 0.2704157577634372, 0.2681264309750847, 0.26583002458929683, 0.26352408187919324, 0.26137312904903004, 0.2592848309926041, 0.2573527532513554, 0.2553780538192158, 0.2533988636305191, 0.25156804930286863, 0.24979916332377958, 0.24815010706135573, 0.24649671656996847, 0.24492858098945763, 0.24339974405282697, 0.2419343118063656, 0.24046239554830476, 0.23912923632285424, 0.23790183406319407, 0.2366746919696331, 0.23550571108504323, 0.23428808754053435, 0.233245946369841, 0.2322514030458476, 0.2313081103381574, 0.23041377709010644, 0.22960339741441288, 0.22880156637499566, 0.22811481786952204, 0.22740353318891152, 0.22674404640614312, 0.22602910056807599, 0.22548239986877935, 0.225016243844085, 0.22454764318700973, 0.22412195280604094, 0.22375588829636517, 0.22341098388890582, 0.22303303044331807, 0.22277843947944875, 0.2225584455982872, 0.22238660794502152, 0.22223228541811027, 0.22211146705436044, 0.22202327631937932, 0.22196679432202276, 0.2219798749702308, 0.2219789995752402, 0.22192789425506043, 0.2219977595345164, 0.22209128779137224, 0.22231894175195538, 0.22244364654993143, 0.22256956626264127, 0.22275122099503744, 0.22295563309122285, 0.22310376785332822, 0.22335929611797584, 0.22361495294377592, 0.22390003605447792, 0.22419708828226106, 0.22457067878520495, 0.22488124945740534, 0.22515578250673657, 0.22549793401106502, 0.22584793726137495, 0.22622602995628568, 0.22658623967516917, 0.22693145273383816, 0.22730551819289502, 0.22768224197052453, 0.22805182096311402, 0.22843201615225528, 0.2288748995029122, 0.22924448284624516, 0.2296149132685297, 0.22991238578441234, 0.2302892827508372, 0.2306851642708712, 0.23104302254701028, 0.2313933853205681, 0.2318199307804932, 0.2321416061065477, 0.23245403834047598, 0.2327630792649629, 0.23306300208446917, 0.23326769182222912, 0.23355585144146485, 0.23381194494340632, 0.23406544331993565, 0.2342990950914503, 0.23458828978365526, 0.23477122493196959, 0.23496707438116338, 0.23511091452774371, 0.23523711805545955, 0.23536204858605622, 0.23544699800044722, 0.2354093900482003, 0.23546560899472802, 0.23549354889128402, 0.23552475476024048, 0.2354914627090903, 0.23550681356127154, 0.2354089569438133, 0.23528706698650984, 0.23511708325801634, 0.2349467360942886, 0.234712669988423, 0.23448921944585344, 0.23423401827586132, 0.23394498878340778, 0.23362557626374358, 0.23326634056038348, 0.232882012859688, 0.23246398291972042, 0.2320632108823682, 0.23157071358049355, 0.23105562012305325, 0.23049857908563517, 0.22990948558676808, 0.229263090815109, 0.22861142255181274, 0.22787191726466283, 0.22715693158713332, 0.2264037230965457, 0.22561258411670274, 0.22478377766859936, 0.22390695730126697, 0.22300484844880403, 0.2220651350648835, 0.2211551267771659, 0.2201325276252728, 0.21912271660318497, 0.21802784678632936, 0.21690190388575895, 0.2157125654670699, 0.2145268842286941, 0.21335632434741972, 0.21209580874624814, 0.21080375530055157, 0.20935279842745308, 0.20801277144184036, 0.2067338473999656, 0.20530312248899094, 0.20384037166792265, 0.20225739373824764, 0.20074181423112475, 0.1992158994363302, 0.19762425063688702, 0.19599898807863098, 0.19442889524284945, 0.19272697935644578, 0.19093284461898288, 0.18918514556249938, 0.18740663801504437, 0.18561904071937305, 0.18377789629319688, 0.1819176266388539, 0.18001988178186512, 0.17809552983381505, 0.17611144769685752, 0.17413934081810953, 0.172201780359822, 0.17016823608229967, 0.1681124846725674, 0.16613181420090659, 0.16402022551196813, 0.1618504965160565, 0.15971230630095812, 0.15755537819560464, 0.1553588045884253, 0.15316793819520494, 0.15108869545834355, 0.1488441190294228, 0.14658925914899504, 0.14432377175506314, 0.14204747176115878, 0.1398150053184528, 0.1375101703066428, 0.135197842359535, 0.13281261797352162, 0.1304933113696802, 0.12818758040500217, 0.12584369832008854, 0.12349170283016246, 0.1211569589146324, 0.11878767012157025, 0.11643321730476669, 0.11405294820553723, 0.11167048303825258, 0.10940105901262126, 0.10700147779612365, 0.1045427618537878, 0.1021635314491422, 0.09978657904742028, 0.09756073773413003, 0.09517160739249461, 0.09282341426778737, 0.09045575483591445, 0.0881353312612269, 0.08579061518763677, 0.08346116771567413, 0.0811185752922126, 0.07882284430635694, 0.07656543317065824, 0.07429432613558201, 0.0720393233817662, 0.06978678647115434, 0.06756729313373956, 0.06545653632001736, 0.06326028035898211, 0.06108788348799699, 0.058909533582124696, 0.05678930305443655, 0.054692134869289775, 0.05261877168350297, 0.05057000742964111, 0.04858725374598454, 0.04658510339815198, 0.0447006458106405, 0.042746915106362735, 0.04082887715609364, 0.03896593542789468, 0.03711695411835873, 0.03531041656352456, 0.03353525649402924, 0.031798027011158005, 0.030107894153289756, 0.028446533275173012, 0.02683193821802736, 0.025249603536115807, 0.0237084369852108, 0.02218430102616745, 0.020730326017003958, 0.019265037833560487, 0.017901865383736622, 0.016579117885743372, 0.015310464455029949, 0.01407091070316121, 0.012930958914271058, 0.011775380325512638, 0.010669871251199411, 0.009574406885312465, 0.008575836847713845, 0.007686744920733902, 0.006780511168753265, 0.005928957614206307, 0.005118350329974683, 0.004379108360196163, 0.0037549559450591697, 0.003118916779297126, 0.002542490814165885, 0.0019428524229747916, 0.0014964578117755618, 0.0011989507245487075, 0.0008524180901520425, 0.0005682866867887299, 0.0002884050517758948, 0.00013668191847897776, 3.032127134725804e-05, 0.0, 2.9669207585016085e-05, 0.00011652873675630532, 0.00026876957504005076, 0.0005234446012260505, 0.0007949167723357888, 0.0011317725406264753, 0.0015060278765262314, 0.0019779509213187214, 0.002544403681478135, 0.0031420930192633287, 0.003806933727507607, 0.004498531753389129, 0.005303350045047843, 0.006230042257845381, 0.007159075881150997, 0.008157673892932808, 0.009165826805071118, 0.010311066279699892, 0.011538340997759114, 0.012814383513808368, 0.014158411318792013, 0.015637726294332546, 0.017110014766889958, 0.01856831590741368, 0.020196082407350362, 0.02189077088800495, 0.02364044042988327, 0.025471700460905567, 0.02746374276401599, 0.029418094820688384, 0.03144561053105333, 0.03350872344206621, 0.03568573254570058, 0.037858293122261875, 0.04018384568289811, 0.042574646015016204, 0.045055850376317666, 0.04757531263106936, 0.05014841803670969, 0.05280519601076908, 0.05552893226650521, 0.0583055610677042, 0.0611650869863203, 0.06413663274704953, 0.06712267751759109, 0.07017741785391483, 0.07323511613154222, 0.07643410172691179, 0.0797919763445616, 0.0831062181165241, 0.08648945786744516, 0.08994437087465104, 0.09346263714409474, 0.09703705792514379, 0.10068935305604491, 0.10440624409494464, 0.10816767197608514, 0.112014255494004, 0.11592593564413918, 0.11989473047064145, 0.12392431565247695, 0.1280353184873655, 0.1321821679946928, 0.13636992389042613, 0.14063909739990704, 0.1449659948818514, 0.14928475911506467, 0.1537335864349456, 0.15832287657526448, 0.16286495583048816, 0.1674639427528181, 0.17207652487631575, 0.17679177899254317, 0.18156928387405982, 0.18638594797734528, 0.1912536734394996, 0.19617349511363474, 0.20114091542527365, 0.20610609823708206, 0.2111770377304061, 0.2162924276248475, 0.22149066886351843, 0.2266887590958701, 0.23182974206890491, 0.23713029286598686, 0.24246850210804197, 0.24794658879925724, 0.25334676571044845, 0.25876678283126825, 0.26425417729704836, 0.26978061736251346, 0.2753450921303144, 0.280946582315175, 0.2866017020746598, 0.2922719043271518, 0.2979770100115284, 0.30365232195360964, 0.3094317092508387, 0.3151771580944769, 0.32101931520344557, 0.3268844598838449, 0.33286053881613964, 0.3387596205781267, 0.344696134473387, 0.35064631208149727, 0.35662141897795757, 0.3625619112729106, 0.3685902720635045, 0.37459049782294507, 0.3806593125099726, 0.38674162168563975, 0.39286159784370034, 0.39896611614428934, 0.40506253334246806, 0.41119492012544673, 0.41733726307979174, 0.4234763735371807, 0.42963762243450127, 0.4358107678598674, 0.44198368605304617, 0.44816171967114493, 0.45435798257451615, 0.46054143478688075, 0.46666420094338984, 0.47286013411008104, 0.4790529323639801, 0.48531246662523486, 0.4914879249878428, 0.49762665267196016, 0.5038022366042075, 0.5099715386706148, 0.5161052248943777, 0.5222621943803955, 0.5284626234435548, 0.5345893075631608, 0.5407059686154331, 0.5467847251940444, 0.5528804550858795, 0.5589163974863315, 0.5649852068276451, 0.5710335977582489, 0.577113715473266, 0.5831121982832836, 0.5890837126858193, 0.5950419418331294, 0.6009243182291624, 0.606842159639751, 0.6127316733676194, 0.6185568080179845, 0.6243917802645922, 0.630160503859191, 0.6359336613522911, 0.6416709612515156, 0.6474072461507845, 0.6530669686759026, 0.6586295139808337, 0.6642252352553614, 0.6697801531746467, 0.6753696404948096, 0.6808318319650338, 0.6861499596858597, 0.6915478067156224, 0.6968989330496431, 0.7022929144661417, 0.7075379595671838, 0.7126340688817179, 0.7178049866194488, 0.7229242441842765, 0.7279931920631832, 0.7330075922602868, 0.7379601596639218, 0.7428690301809626, 0.7477231060921284, 0.7524741205952686, 0.7572226805340332, 0.7618976322390206, 0.7665286246341204, 0.771098534486498, 0.7756881280605268, 0.7801243947975895, 0.7844745629062471, 0.7887974406548548, 0.7930584753407076, 0.797242644527844, 0.8013790575389252, 0.805450134304594, 0.8094551095248078, 0.8133932171832567, 0.8171331480522077, 0.8209517367186556, 0.8246726813539288, 0.828341298197309, 0.8319327321734892, 0.8354454606080216, 0.8388833602537407, 0.8422108499180865, 0.8454991518854699, 0.8487084967422869, 0.8518354243784798, 0.854887412651875, 0.8578972303829885, 0.8607859541040196, 0.8635971843388904, 0.8663762282128402, 0.8690249849416163, 0.8715812477921396, 0.874077840408465, 0.8764950993215455, 0.8787158807580584, 0.8809870886973968, 0.8831827340249937, 0.8852768737126411, 0.8872843412727623, 0.889164618283767, 0.8910039883271766, 0.8927332593847478, 0.8943976951687036, 0.8959724385848542, 0.8974754166674541, 0.8988693290049402, 0.900146960793051, 0.9013682863874917, 0.9024998529302704, 0.903645874670476, 0.9045851126987485, 0.9053789579392552, 0.9061578902184452, 0.9068481586181906, 0.907410789896081, 0.9079281597757297, 0.9084442019461347, 0.9087677860888504, 0.9090054695534425, 0.90908081652781, 0.9091546299620354, 0.9091085473704867, 0.9090028349904522, 0.9088043468004733, 0.9084994201393032, 0.9081184812617252, 0.907668161553923, 0.9071001713844689, 0.9064420752330463, 0.9056923415557292, 0.9048549548909618, 0.9040092150547075, 0.9029828190621669, 0.9018719932414538, 0.9006992891972435, 0.8994156489804654, 0.8979580158553943, 0.8965173924571233, 0.8949871661143178, 0.8934332026922982, 0.8917172896195882, 0.8898519221835255, 0.8879759489195056, 0.8860122954775588, 0.8839334333821274, 0.8818000700227654, 0.8796394853105746, 0.8773250352371602, 0.8749285179185387, 0.8724132459190103, 0.8698583923997101, 0.8672629177873886, 0.8645375535961922, 0.8617331254014959, 0.8589100274984394, 0.8559411717597768, 0.8528133051416915, 0.8497065388396514, 0.8465208800905284, 0.8432660602443746, 0.8399242285294725, 0.8366302066767295, 0.833122234746996, 0.8295471844257534, 0.825814942076837, 0.8221168128438593, 0.8184435391657489, 0.8145897449569106, 0.8106711261164523, 0.8066578802327959, 0.8026140745025228, 0.7984993448491219, 0.7943256685161582, 0.7900875613643108, 0.7857311989485467, 0.7813737712198663, 0.7770591515860173, 0.7725599153164366, 0.7680046967121968, 0.7633498820947688, 0.7586898295267263, 0.7539095305469671, 0.7491451111027241, 0.7443225684530803, 0.7394435306679524, 0.7345095788054514, 0.7295398927556831, 0.724498460293005, 0.7194076098042612, 0.7143480213415635, 0.7091521726377342, 0.70390463522391, 0.6986285511779455, 0.6933121122498028, 0.6880020473979819, 0.6826017364560687, 0.6770728818331847, 0.6716149358158889, 0.666118049248416, 0.6606560968136576, 0.6550767971411735, 0.6494301363983187, 0.6437957899154023, 0.6381309004301781, 0.6324597006142193, 0.6267347300676328, 0.6209191493163914, 0.6151528897824619, 0.609359924149386, 0.6035525474089423, 0.5977099188215705, 0.5917897310930416, 0.5859135317609739, 0.5800160471066669, 0.5741609385289607, 0.568218753356934, 0.5623154421634906, 0.5563434355524948, 0.5503644575461207, 0.544278773400459, 0.5383010832196119, 0.532323987285126, 0.5263267593272285, 0.5203236385022693, 0.5142985665843092, 0.5082906007465903, 0.5023597737575709, 0.4963388967173583, 0.49032342015292063, 0.4843054159488318, 0.47830457400067333, 0.47228850007648626, 0.46630703480383795, 0.46034650093142715, 0.45438193572729707, 0.4484292312279932, 0.44249486186977044, 0.43656876066011385, 0.43058428334601734, 0.42470013369670967, 0.41882984787806016, 0.41297870932861536, 0.40714089934947023, 0.4013116238225589, 0.39551491993871085, 0.38973974794362937, 0.3839541037069611, 0.37823072061645363, 0.3726142830504759, 0.36693011124557795, 0.36127780987194336, 0.3556740742847477, 0.3500859801355252, 0.3444343657462422, 0.3389300425672002, 0.33345695079868076, 0.3280801817445862, 0.32266619304067073, 0.3171980199283722, 0.31187533431866277, 0.3065884237111248, 0.3013900536141806, 0.2961729479635454, 0.2910466616084586, 0.2859108436376817, 0.280822732855846, 0.2757828377397836, 0.27079169438458744, 0.2658516267451278, 0.2609594634807883, 0.2561178874350167, 0.2512287037526591, 0.24650259230696384, 0.2418198154469279, 0.23718929197691052, 0.23260817040999468, 0.22817473852816125, 0.22368385197413693, 0.21914373730904818, 0.21478346888746475, 0.2104760650820851, 0.2062685577585557, 0.20206449149992387, 0.19789969954794656, 0.19381600132016724, 0.18979098123078716, 0.18584823883675192, 0.1819396322658535, 0.17805229306328063, 0.17427286568401912, 0.17055372070694585, 0.16696432486949014, 0.16335899051531835, 0.1597367273900415, 0.15627380851554734, 0.15287217032971098, 0.14952719359101893, 0.14625073876888384, 0.14306355376329788, 0.1399098986371873, 0.13682153619519594, 0.13383571530490046, 0.1308738362770348, 0.12795516431101908, 0.12513204936796737, 0.12237513092239978, 0.11967564372232026, 0.11705238296829083, 0.114445544251104, 0.11196023903968196, 0.10953810335078384, 0.10719014196335455, 0.1048941926428883, 0.10272302888218318, 0.10054923411050541, 0.09844381666316407, 0.09634987521680939, 0.09438701827904535, 0.09246689949558612, 0.09063457908296238, 0.08886501891572259, 0.08726418664068164, 0.08560706164067736, 0.08391120064240185, 0.08240452385661652, 0.08095892028338864, 0.07966088982326892, 0.07832661149087469, 0.07699296651633802, 0.07579793208378709, 0.07466353257050419, 0.07365480664570692, 0.07263268240590089, 0.07156642466642388, 0.07068398888134504, 0.06985727599498781, 0.06915160734290547, 0.068428149244615, 0.06769341117506718, 0.06709673367016913, 0.06655395723467036, 0.06609668814446792, 0.06565718148658777, 0.06526387826247218, 0.06493492781202431, 0.06465926656969562, 0.06448394007360186, 0.06430704675831302, 0.06413487238730935, 0.06407139771955721, 0.06405717697194167, 0.06416039460402781, 0.06423410208384875, 0.0642637197719655, 0.06445055852881777, 0.06468074890826514, 0.06503855634182573, 0.06534344545217086, 0.06564739196417385, 0.06605041946267143, 0.06649497768844495, 0.06698731597783475, 0.06751160432530792, 0.06808416667321815, 0.0686853331358718, 0.06932461387780332, 0.0699904255949428, 0.07070427952423376, 0.0714720689874364, 0.07225162104978318, 0.0730649650490377, 0.07395688448823942, 0.07482877335045698, 0.07567912181428578, 0.07662279713377719, 0.07759375846573675, 0.0786246421770264, 0.07964328048457738, 0.08055609771263855, 0.0816432568248529, 0.08274713468940931, 0.08388176877228491, 0.08501696009914818, 0.08622026659322046, 0.08738240434463332, 0.08856330714649022, 0.08979369120184245, 0.09100499164805798, 0.09215080169679928, 0.09340613059294467, 0.09467165749201778, 0.0959344577829687, 0.09722015836629977, 0.09852935081877959, 0.09982764611074456, 0.1011331409557078, 0.10254377441044375, 0.10384859920396089, 0.10504887839968347, 0.10638674000638143, 0.10772496149657765, 0.10914759897308794, 0.1104739263605428, 0.1118386612425603, 0.11316536415908487, 0.11449440216907707, 0.11577655720123003, 0.11711161176692769, 0.1183730136841386, 0.11970609220983952, 0.1210285329876787, 0.1223452445192271, 0.12364453647999223, 0.12497099513885275, 0.12624152603689293, 0.12750142881147708, 0.12868978936269726, 0.12993323412352692, 0.13117757340942449, 0.13238489183854635, 0.13357560510853547, 0.13483376547182135, 0.1359786710681048, 0.13701983686347213, 0.13814723806886497, 0.1392532176424738, 0.14040610996143144, 0.1414591262819533, 0.14248430010826751, 0.14349931351220052, 0.14449271847486694, 0.14545303756410954, 0.14640192711660782, 0.14736486842479452, 0.1482586430458368, 0.1490296905810283, 0.1498871292733769, 0.1507132407989212, 0.15156443552226548, 0.15232058531953147, 0.1529830489195595, 0.15369000955837384, 0.15436369123227395, 0.15507638607490434, 0.15567421488464542, 0.15622495939795142, 0.1567654122180493, 0.15727403949950355, 0.15778740305652136, 0.15822626679509633, 0.1585405080349534, 0.15892823756977822, 0.15927824115413602, 0.15958715144816402, 0.15986259123874008, 0.16020632065641957, 0.16039334658152904, 0.16054889571891867, 0.16067744272028528, 0.1607670028226959, 0.16072262919202748, 0.16075752647606115, 0.16075223784320844, 0.1607582545769758, 0.16066708431531632, 0.16049715056241398, 0.16033830924082698, 0.16014034528271331, 0.16000932658831216, 0.1597203809607387, 0.15931066573528804, 0.15896707792835432, 0.15858474002451764, 0.15827855100551366, 0.15780490445407036, 0.15722906248569551, 0.1567003803907622, 0.1561348306593666, 0.15565070224386224, 0.1549967790654884, 0.15427064240756047, 0.15356154456950616, 0.15281878039937466, 0.1521003984718895, 0.15128251460322964, 0.1504480632847734, 0.14956660765468308, 0.14865452686955805, 0.14766739991075511, 0.146698800852464, 0.145772323973069, 0.14472700024738927, 0.1436529095288528, 0.14264511350384784, 0.1415009491383351, 0.14036129969891545, 0.139165470958091, 0.13794634285147533, 0.13663983898267454, 0.13538060769157245, 0.13421679012996016, 0.13288619947174074, 0.13153533189054634, 0.1301619484999172, 0.12876949675208502, 0.1274086637753022, 0.12596691253124945, 0.12450695140836596, 0.12296507820802428, 0.12147629448452643, 0.12009260291760875, 0.11854462849971178, 0.11698333625880923, 0.11540673852873226, 0.11381852150666669, 0.11225019379083812, 0.11063069783509998, 0.10899999843980109, 0.10734237455659343, 0.10569186375763522, 0.10411827892634726, 0.10243466012973174, 0.10074598821983363, 0.0990928603073369, 0.097389158771209, 0.09564081301625585, 0.09393792421372923, 0.0922306321569202, 0.09056900279254461, 0.0888487367354209, 0.0871643235608394, 0.08544118468281094, 0.08372158307273994, 0.0819176497335743, 0.08021739212704435, 0.07859113107581484, 0.07688264028171181, 0.0751808511334065, 0.07346529422316399, 0.07178174192886717, 0.07019240845630954, 0.06851450027193454, 0.06685127559596847, 0.06518015443873591, 0.06355035303882431, 0.06194587023845266, 0.060344991963574415, 0.058761071909228225, 0.057166672650623446, 0.055622645267656035, 0.054119411017869844, 0.05260932725956039, 0.05112063620048421, 0.04969661065479708, 0.048248171623412266, 0.0468016562204912, 0.04541022039181389, 0.04404534670230105, 0.04280499402226163, 0.041483788246457994, 0.040153324414998824, 0.03890757223868838, 0.0376946681123189, 0.03654357495410021, 0.03539504641117948, 0.03422152316812728, 0.03315490628407518, 0.032122835905275066, 0.03113180040915114, 0.030171717634568274, 0.029218239632224523, 0.028339970998632044, 0.02750042384368028, 0.026715011354996907, 0.02595497349272034, 0.025314060344866884, 0.024632012967208104, 0.023999556627051628, 0.023410019336070252, 0.02287884191092237, 0.022306425697559893, 0.02188841315398318, 0.0215169244299042, 0.021302695125790052, 0.021014431962638927, 0.020683905454825617, 0.020521463461436133, 0.020410605715921824, 0.020417767608219773, 0.020405253453011057, 0.020400137392512084, 0.020511674114083465, 0.020679847129874952, 0.020977891327774268, 0.02125286828565804, 0.021518807388494345, 0.021929717875447785, 0.02240030950733003, 0.022912032380985808, 0.023506960086984514, 0.024155854050611204, 0.024874599858865174, 0.02565567456047378, 0.026514014674753155, 0.027420374994282862, 0.028349816471324518, 0.02939291574199532, 0.030500116212605913, 0.03173045324336293, 0.03296088052536738, 0.034236222603490435, 0.03560914516221642, 0.03705058901987389, 0.03849738956925355, 0.04008490851838863, 0.04173127484202878, 0.043452265104835644, 0.04524021657828893, 0.04712048302062632, 0.049041119120045926, 0.05108475082721538, 0.0531390660801083, 0.0552668360225838, 0.05738663334349023, 0.05967075599849575, 0.06212531093024106, 0.06453313834528684, 0.06701557851120733, 0.0694856416976702, 0.07212663229363536, 0.07489936084037542, 0.07766902910420949, 0.08051092528304041, 0.08343348725096225, 0.0864175847472945, 0.08947504510880235, 0.0926016820981827, 0.09579915697510653, 0.09897353910478478, 0.10232321996480849, 0.10586069655638383, 0.10932370649232562, 0.11274561102470872, 0.1163656442988053, 0.1200494836865745, 0.1237990280570856, 0.12761057732123163, 0.13145620099139071, 0.13539955759134553, 0.13940500280518442, 0.14348312146010558, 0.14761131847294043, 0.15188662063342454, 0.15612863871400678, 0.1604371238336782, 0.1647650892543425, 0.169208983304753, 0.1737029251859204, 0.17826876099432376, 0.1828932874884318, 0.18754236139857725, 0.192286598370287, 0.1971791685125492, 0.20202080173469478, 0.2069215514360821, 0.21177601158380002, 0.21680422487003118, 0.22193478157264024, 0.2270547602639208, 0.23222628496504719, 0.23745016086003612, 0.24272166382754767, 0.2480454216352957, 0.2534129171589758, 0.2588272963388657, 0.2642539741383913, 0.2697631496590506, 0.27530528051044595, 0.28089829860289517, 0.2865309053091613, 0.2922463666272782, 0.29795001733082876, 0.30367897333958604, 0.3094619257120766, 0.3152808734797113, 0.32107111623608336, 0.32696649866745403, 0.33297362091245397, 0.33891546248279786, 0.344889291448237, 0.3508459620666363, 0.3568852671229461, 0.3629935107253991, 0.3690758388567693, 0.3751833019839227, 0.38127912981009504, 0.387436877033095, 0.393546327147771, 0.3997488688090655, 0.4059640425882694, 0.41228115015969996, 0.41850812006366084, 0.4246340804258007, 0.4309049864089611, 0.43718154521918506, 0.4435530799653422, 0.44982753234440936, 0.4560751862213995, 0.46236943812587844, 0.4686669555608547, 0.474924093020318, 0.4812295569987508, 0.48751429799717144