0.1284737033416655, 0.12725167840983398, 0.12615835851968618, 0.12497320406014471, 0.12390764258139582, 0.12284237886109249, 0.12171869655998224, 0.1206611721555358, 0.11981077578829934, 0.11872069515464907, 0.1176400725305067, 0.1163710508357756, 0.11533042336826418, 0.11450546598968492, 0.11342766327930835, 0.11235865447769648, 0.11120073179458434, 0.11015819710389657, 0.10919533236428305, 0.10814355301878367, 0.10709671907652886, 0.1058715373382647, 0.10485616033896822, 0.10377204159942131, 0.10275233124285194, 0.10172468529942837, 0.10092846444644597, 0.09985903160284047, 0.09881266702566079, 0.09775913320584718, 0.09671394944717719, 0.0957487305182121, 0.0947088162477117, 0.09340340208692802, 0.09241798004680808, 0.09142541491503249, 0.09046505827463647, 0.08945752460083951, 0.08853154905835967, 0.08751185535722232, 0.08649692290270941, 0.08560386932459348, 0.0845833035898795, 0.08328759109289924, 0.08232429293427102, 0.08135409339065451, 0.08045783887063164, 0.0794682503897224, 0.07850099848324177, 0.0775125037897613, 0.07652759204025061, 0.07573260701941575, 0.07473173851928729, 0.07364873687722433, 0.07268749838938737, 0.07173261963119998, 0.07070794348680773, 0.06977452326218961, 0.06892519343474399, 0.06798441604026867, 0.06705044445203055, 0.0659402180541498, 0.06504207667698805, 0.06423623421448918, 0.06331867650408389, 0.06240471413863955, 0.0615842270062652, 0.06066678516657297, 0.059610322510997134, 0.05872956705085566, 0.05784870115150802, 0.05699953291907662, 0.056116759802912364, 0.0551825173664898, 0.05431440536517185, 0.05344743397468558, 0.05279604966909098, 0.0519062427297854, 0.0510313339694022, 0.050170052159709995, 0.04932128217124306, 0.04843577737196858, 0.04761534304112812, 0.04686767848125794, 0.0460532376769175, 0.04524930626874793, 0.044489692613179185, 0.043700505889739616, 0.042842739135420235, 0.042084361117766665, 0.04133102542797855, 0.04075875724618258, 0.03999379755738436, 0.03909257352334049, 0.0383764779129264, 0.03766505387782177, 0.03685519384999562, 0.03616718849452429, 0.035734186095648775, 0.03501474597458172, 0.034311634229609374, 0.0334616624140894, 0.0328084736402074, 0.03234924297276933, 0.0316813097381749, 0.031029502151436163, 0.03034454180014867, 0.029728223162041524, 0.028891715806611012, 0.02832605804248658, 0.027757893490874146, 0.02727861969295502, 0.026699160325295505, 0.02635449541905884, 0.02576121694558543, 0.025188908055848256, 0.024360309255409617, 0.02386076455694499, 0.023425071221578955, 0.022922553509709353, 0.02242776865318863, 0.02220330489145071, 0.021692397474053382, 0.02122261194652273, 0.020755566701196798, 0.02031015031409367, 0.019809066921547915, 0.019412383318605425, 0.01891899059595858, 0.01856322249305839, 0.018214367590660065, 0.018131748959383947, 0.017766113260629567, 0.017316991808625053, 0.017010157280701373, 0.016717892814462836, 0.016453728063195908, 0.01618813564502648, 0.015923490914282964, 0.015688918241512983, 0.015467959687156325, 0.015267524153648569, 0.015072989430404799, 0.015175321841219173, 0.014973319567271371, 0.014801404390022364, 0.014709109053651869, 0.014584564661316992, 0.014332155511055005, 0.014280040887131138, 0.014243211689316438, 0.014414730859393751, 0.014384028496495655, 0.014148509019588083, 0.014198000949459935, 0.014258110435949862, 0.0144848661015544, 0.014549136906937297, 0.014721385011481337, 0.01481778412892535, 0.014939863360983806, 0.014972831658259552, 0.01515781881407125, 0.015397516297816853, 0.015611643365610675, 0.0158454328895209, 0.016164476771538844, 0.016429580810976147, 0.016680438929643507, 0.01699735417881529, 0.017335209976656857, 0.017711365010538552, 0.018089305981715174, 0.01857579492803743, 0.018987581610635667, 0.01942669255794743, 0.019971857132850372, 0.020453969682395365, 0.021021616159962717, 0.021556564596900366, 0.022123295227276792, 0.022862115616951433, 0.023471523570138115, 0.024114528612811652, 0.02479674752534441, 0.02551265614331287, 0.026257628011815703, 0.02703802815324537, 0.027635217683060823, 0.02850320379515871, 0.029388733370220254, 0.0303207907922798, 0.03124201460370384, 0.032175879485246126, 0.03314526742359744, 0.034138773566995934, 0.03531586683353422, 0.03634006373176679, 0.037547939334504093, 0.03862362287834281, 0.03974197173310891, 0.04061522216887196, 0.04185060489826922, 0.04319475564655201, 0.044465730251648676, 0.04576670939961663, 0.04721191996406873, 0.04855982705442258, 0.04974541312731631, 0.051193425626898104, 0.05294624258608468, 0.05441123761779162, 0.05591985166131988, 0.05720538430205, 0.05883139135611804, 0.060689924813921554, 0.062342472047802085, 0.06403496702211714, 0.0656289778281008, 0.06741737427971144, 0.06917465334601175, 0.07103364016280407, 0.07292171116834398, 0.0750435078255351, 0.07696751372217128, 0.0789352740411979, 0.08094602054305888, 0.08299909594173918, 0.08492498612265365, 0.08708249804461016, 0.08922661649768496, 0.09145369902388327, 0.09371167079306415, 0.09599828069048605, 0.09832192462750598, 0.10098979663027335, 0.10334286572431639, 0.10574887512623815, 0.10795773855128937, 0.11049577415327237, 0.11331626788894565, 0.11589209433389365, 0.11851754791762124, 0.12104300131974265, 0.12378255827361237, 0.1264081502806272, 0.12924271146267444, 0.13210712911335135, 0.13514082805753638, 0.13805185384451446, 0.1410734485674967, 0.14405889794676568, 0.14708969259091545, 0.15021694778276956, 0.15333015164235073, 0.15627622451893367, 0.15950894268649635, 0.16277478404811846, 0.16630242163046116, 0.1696089025800915, 0.172795240624359, 0.17621962399430546, 0.1796812921836478, 0.18329109704864377, 0.18681485650577392, 0.19033861344485253, 0.19395712850787233, 0.19761689403433066, 0.20116955417357338, 0.2049303032803507, 0.2088788801928913, 0.21268643753831734, 0.21653741414857458, 0.22037620360357177, 0.22431971245765217, 0.22836783087846152, 0.2323813311304201, 0.2364377342962583, 0.24055721623421086, 0.24469530569416467, 0.24888981229784748, 0.2531108192868017, 0.2573740921664009, 0.2616583247708078, 0.2660069392305296, 0.27041562889758614, 0.27484007306248354, 0.2793044195203225, 0.2835495845984782, 0.2881250276604996, 0.2926727775277158, 0.29730447892573214, 0.30196038489450727, 0.3066627922871868, 0.3113690610532202, 0.31610477764169315, 0.3208706866699705, 0.32566736323698686, 0.3306917709089612, 0.3355262621337715, 0.34027928886993897, 0.34521327962470283, 0.3501800093348885, 0.35503775890437067, 0.3600867543782781, 0.36525937743421155, 0.3703436631784756, 0.3754583552087259, 0.3805650583381928, 0.3857439187846507, 0.390980571885308, 0.39620875627153623, 0.4014648312583746, 0.40659643233757936, 0.41192550229658187, 0.4174408918968123, 0.4227838344244191, 0.4281544724206537, 0.43337578585237696, 0.4388205794047849, 0.4444384038310319, 0.4498923156946639, 0.45537006865082885, 0.4609290556307587, 0.46644344221367623, 0.47199173744748096, 0.47755035091748627, 0.4831300082871734, 0.4885223120545888, 0.49416575957097436, 0.4998660579636964, 0.5055135919235227, 0.5111697426406407, 0.5168755534241826, 0.5225426331179184, 0.5282056497975349, 0.5338930698991879, 0.5395877084320753, 0.5451956912323701, 0.5509141856497476, 0.5568219187623832, 0.5625155264243891, 0.5682190678391674, 0.5738996779565523, 0.5796216120808297, 0.5852706684861114, 0.5910068378845251, 0.596739137395403, 0.6023738375052843, 0.6081082307529537, 0.6140694248503299, 0.6197514966139432, 0.6254356675390157, 0.6310852993456757, 0.636771690337296, 0.6421901071930075, 0.6478962758354627, 0.6535788451950918, 0.6593005865351451, 0.6649300140928102, 0.6705201356316135, 0.6761145704477856, 0.6816883833491268, 0.687482551056338, 0.6929833357333101, 0.6982687071704093, 0.7037760012392694, 0.7092581408671896, 0.7149351990898403, 0.7203372482158404, 0.7256348743036716, 0.7310161596056811, 0.7363727075697477, 0.7415444043624139, 0.7468670801704258, 0.7523517552502974, 0.7575730827161666, 0.7627673614156688, 0.7678395785815457, 0.7729858915210549, 0.7779600130395956, 0.7830470125891318, 0.7880869637115869, 0.7932420915689288, 0.7981678028883697, 0.8029142571730133, 0.8077805362931204, 0.8125979781709066, 0.8173076700501921, 0.8220338683308739, 0.8268757359805863, 0.8314739189674314, 0.836028015188871, 0.8404225655828461, 0.8448979290319725, 0.8492835274383993, 0.8536521196540819, 0.8579623096081574, 0.8622585288064243, 0.866444987419276, 0.8706879406087751, 0.8747444673743615, 0.8787481610792218, 0.8826798967877799, 0.8865745636063939, 0.890492860674359, 0.8942573844896027, 0.8979646373602245, 0.9013540548175748, 0.9049737348477447, 0.9085368662034893, 0.9119999724495469, 0.9153706463477712, 0.918685616887105, 0.9219244660326322, 0.9251113515968755, 0.928194875612604, 0.931331004969077, 0.9342480286046434, 0.9370963570670646, 0.9399434357086737, 0.9426412069278632, 0.9450009509204356, 0.9475927885353618, 0.9500970319121409, 0.9525729602874576, 0.9548964464631357, 0.9572440930413568, 0.9593884136568865, 0.9614555837850718, 0.9633444872840005, 0.9652667143963141, 0.9669858123218354, 0.9687509789245837, 0.9704234463760859, 0.9720522704780906, 0.9735354426872878, 0.9748822925504548, 0.9761954890995909, 0.9774179170862536, 0.9787740213782343, 0.9797874508165509, 0.9806854886380048, 0.9815470990860998, 0.9823259144005844, 0.9829691653174799, 0.9835858978376613, 0.9839451591914077, 0.9844059038206511, 0.984768047235167, 0.9852740670964405, 0.9854116917684358, 0.98517412538079, 0.9851834193473754, 0.9850919485161967, 0.9851632306410489, 0.9848413212182344, 0.9844407180836036, 0.9839530098092566, 0.9833813446111624, 0.98260766901308, 0.981880589475406, 0.9809057390623573, 0.9800135531761354, 0.9790210156262047, 0.9781746524177453, 0.9769554311519076, 0.9755473760259886, 0.9741770971653998, 0.9727176362814336, 0.9711590777851302, 0.9695238541921072, 0.9678105224548563, 0.9659976257509493, 0.9640979387875543, 0.9622153681632769, 0.9601304309438897, 0.9577245878599819, 0.9555107767958659, 0.9532033771708521, 0.9508973495004385, 0.9483964509644526, 0.9456985926516711, 0.9430464831994282, 0.9403063081629611, 0.937724542985669, 0.934782156374174, 0.9315390889862607, 0.9284859980731598, 0.9253492599858293, 0.9222028719956282, 0.9188943601422077, 0.9155556046112074, 0.9120920661544486, 0.9085575479171945, 0.9048456104242755, 0.901184064066796, 0.8973470814836776, 0.893548780752055, 0.8896723424017057, 0.8857096075200189, 0.881684616261949, 0.8776973927874478, 0.87351519821289, 0.8692702967087591, 0.8650703794358902, 0.8606889775817239, 0.8562912807684336, 0.8517966603454755, 0.8472501295255469, 0.8426275310870449, 0.8379803218119107, 0.8332905741338514, 0.8285368842737872, 0.8237321700138428, 0.81890125446554, 0.8139935866318988, 0.8088006445646618, 0.8038290775711677, 0.7987983524404177, 0.7939009256527675, 0.7887361753970332, 0.7832757064719152, 0.7780629356234169, 0.7727970268204555, 0.7677327066979244, 0.7623375452797647, 0.7569049472194244, 0.7514500309762505, 0.7459652023430275, 0.7402856663881149, 0.7347641609743573, 0.7293885799113163, 0.7237725850242887, 0.718134449446181, 0.712409258576112, 0.7067370200502452, 0.7010169083509766, 0.6953016396259643, 0.6895640681347961, 0.6837471725790141, 0.6779771755769791, 0.6721380421266571, 0.6663344324857934, 0.6605111952900622, 0.654543004579674, 0.64870329173572, 0.6428363304666892, 0.6369597579475244, 0.6310681804879433, 0.6253124919157447, 0.6193798565635581, 0.6135099614766912, 0.6075717774502569, 0.6016396685196237, 0.5956830880720246, 0.5897685898791827, 0.5837877012031637, 0.577895346041912, 0.5720068709072728, 0.5662962620169734, 0.560398443004346, 0.5543084439159417, 0.5484735828175651, 0.5426453173293266, 0.5369601222609879, 0.5311339400207643, 0.5251689857192878, 0.519403172947696, 0.5136496226308482, 0.5079344835314118, 0.5022083265492184, 0.49643941850616397, 0.49076123590375237, 0.48510181464320845, 0.479528539084021, 0.4739038513789412, 0.46828273443951896, 0.4627175344203654, 0.4571807051891156, 0.45179409820518146, 0.4463022112030989, 0.4409660759613502, 0.4355364730684279, 0.4301521991465014, 0.4245815247797518, 0.4193151804301385, 0.41405547216953714, 0.40885536733706973, 0.4036878634554943, 0.39881665587114895, 0.39368603042800254, 0.38843145671629903, 0.3834261000384944, 0.3784614031004875, 0.3735831576700838, 0.3686969738592371, 0.36400846711288104, 0.3591955177364732, 0.35443804404023793, 0.3494181135014078, 0.34480972949235894, 0.34039250056772213, 0.3358387299635218, 0.33133394656443127, 0.32696839725843324, 0.3225520188975635, 0.3181672404334036, 0.31386519068581087, 0.30961719510617214, 0.3051578682237481, 0.3010519254193419, 0.2970993370512049, 0.29306044427670586, 0.289171846715899, 0.28522180759005267, 0.2813293710245095, 0.27738754338749755, 0.2736235314379715, 0.26981085502698415, 0.266162930675892, 0.26256218903955475, 0.2590444988059312, 0.25553773752699466, 0.2523561074787456, 0.24892096290294724, 0.2455549190034066, 0.24210101154143526, 0.23888756957287915, 0.2356055166532761, 0.23251874872512623, 0.22948038662765538, 0.2264809724442676, 0.2235432407537118, 0.2206934902231223, 0.21785162848905398, 0.21506294622945837, 0.21234815141906613, 0.209663205221116, 0.20702557100847438, 0.20444958591367507, 0.2019267377481223, 0.19966013498390278, 0.19721682000686996, 0.19461285350164284, 0.1923227725638153, 0.19007965933052662, 0.1881215172445202, 0.1859424328322611, 0.1838788599365908, 0.18181143721754778, 0.17980353546269903, 0.17767025039846698, 0.175798227138714, 0.17395233063715776, 0.17216906372117433, 0.17042783739891157, 0.16889060836646108, 0.16721260584305123, 0.16558526372310198, 0.16400701861504305, 0.16247642310037338, 0.16073352554518372, 0.15932698285720812, 0.15818772066858933, 0.15681079445021373, 0.15547833427103772, 0.15392352281492072, 0.15270969437430126, 0.15174582495460054, 0.1505563387696825, 0.14940707754117502, 0.14834511795648772, 0.14726666031171715, 0.14594149083828306, 0.1449767180662116, 0.14403252302628816, 0.14318575430996006, 0.14227587279278794, 0.14150693891687097, 0.14063676690768087, 0.13979960351571113, 0.13886656215096274, 0.1381076671971876, 0.1374397836123102, 0.1367161024685075, 0.13601791466067975, 0.13522363706551416, 0.13458898745247846, 0.13420480777068955, 0.13357256463127468, 0.1329694634107077, 0.13216241824592573, 0.13164075522479807, 0.1314156647181331, 0.13087874483962425, 0.13036847456302508, 0.129768694278814, 0.1293191770743972, 0.12866266481630495, 0.12826746096510055, 0.1278716703049448, 0.12776924578782914, 0.1273376206279611, 0.126772159493787, 0.12639344779205716, 0.12602019155534522, 0.12579323694327102, 0.12541141313026377, 0.12479306189723104, 0.12446436544995515, 0.12413012942564959, 0.1240598042903892, 0.1236818377679405, 0.12308003698927548, 0.122750938138094, 0.12241538174074386, 0.12208731109415624, 0.12173745235261743, 0.12132691536724621, 0.12097279659371923, 0.12060958337488746, 0.120244297104707, 0.11986230327608895, 0.119706173326859, 0.11927713873912654, 0.11885223610386339, 0.11830516324418673, 0.11789789970749302, 0.11759219092932215, 0.11715276719306186, 0.11670949495165564, 0.1163643390833997, 0.11589599185661795, 0.11518764212124757, 0.11474326936844029, 0.1142797879150955, 0.11376653058408404, 0.11326978422435928, 0.1127496390064466, 0.11221385842849563, 0.11165871695883131, 0.1112741692128898, 0.11065719137604184, 0.10987707305609908, 0.10926237389446562, 0.1086283613913707, 0.10808896114118813, 0.10740231807911349, 0.10668927781265841, 0.10597830904702295, 0.10525233562827015, 0.10478663714026351, 0.10399414117003888, 0.10318337579352378, 0.10238840639514402, 0.10158657989491775, 0.10080020606995789, 0.09997638766756649, 0.09898026550570196, 0.09815512267116053, 0.0973081966142355, 0.09640193437158427, 0.09551737484475216, 0.09471694835057792, 0.09377406204415445, 0.09281579183019598, 0.09194881095535568, 0.09094568503466308, 0.0898603433123961, 0.08884590127594695, 0.08781603534147842, 0.08687422479165345, 0.08580060399012496, 0.08465214123758769, 0.08356752101612729, 0.08246879108448298, 0.08157681122550144, 0.08042256118594994, 0.07920867540988501, 0.07805835904081093, 0.07690111221180473, 0.07587093546027521, 0.07468155327832401, 0.07361249082336492, 0.07240598304197216, 0.07120385109350884, 0.0698872170285039, 0.06870404964686799, 0.06755949833466608, 0.06635840535747722, 0.06515405171804098, 0.06394300062832466, 0.06273272721547445, 0.06147458804590748, 0.060264290588030615, 0.059049302379466595, 0.05782363898143347, 0.056602897365805156, 0.05552124356592145, 0.05427907744362101, 0.05304460078253189, 0.05177977080930506, 0.050565267756830165, 0.049415007679144834, 0.048204912167155015, 0.04700492936757098, 0.04575665352847927, 0.04458504798852899, 0.04335224178279846, 0.04220584046039846, 0.04106526849264759, 0.039928618086284076, 0.03880470019511575, 0.0377529245939634, 0.036642709085035405, 0.03554879415962627, 0.034603004705002896, 0.03352753451685276, 0.032378167995295755, 0.0313673292806378, 0.030449112835017545, 0.029470409360120898, 0.028517728965382984, 0.027749996231133656, 0.026830328359615373, 0.02575711958416629, 0.02493290074319727, 0.02413288475565833, 0.023506537985826248, 0.022739761903490918, 0.02183320853898244, 0.021160779686681983, 0.02051461340486413, 0.02003425881186492, 0.019427984770460448, 0.01869487495850206, 0.018187191921659466, 0.017709611730205885, 0.01735703352269852, 0.01693318723472561, 0.016642869702707966, 0.016288882311028697, 0.015982102905584925, 0.015605342778408663, 0.015408043057818335, 0.015193186797215543, 0.01508668039695961, 0.015020417884115806, 0.015009831018724178, 0.01502713007470007, 0.015059038770441053, 0.01517279649463069, 0.015332890185338075, 0.015802749767782082, 0.016026421317311676, 0.016094333765227186, 0.016474777923914087, 0.01690601741894413, 0.0173823328636373, 0.017919501573699072, 0.01861386494540126, 0.019246512683023777, 0.01994076819967693, 0.02080363358301313, 0.02160797699477021, 0.022511448102485742, 0.023447451878810983, 0.024452223230622187, 0.02537690811457641, 0.026536345716926764, 0.027647992278511554, 0.028940129405119853, 0.030287285846917034, 0.03171534098904206, 0.03317455760873103, 0.034929394275966766, 0.03648238513104977, 0.03811182929108882, 0.039844362385020725, 0.04162052989545239, 0.04346884217590366, 0.0453958673848661, 0.04739689719762562, 0.049264560193669364, 0.05143839827448891, 0.053811379350630635, 0.056091652756901304, 0.058443613739268575, 0.0609121386961519, 0.06340197545285259, 0.06599724123565809, 0.06863166854220787, 0.07134172460976718, 0.07401662948751728, 0.07689063396553128, 0.07968811084333596, 0.08271761613531693, 0.08580842305797245, 0.08897250000264527, 0.09218926231661134, 0.09563422000757389, 0.09896371727426284, 0.10237020209917429, 0.10577372732197306, 0.10934232390505436, 0.11312989484725967, 0.11682123770341755, 0.12059170850803555, 0.12414354386202534, 0.12810617572805388, 0.13215891552510814, 0.13623717933344504, 0.14037883769160991, 0.14463287394925417, 0.14889718471099136, 0.15323959777872218, 0.1576379900250833, 0.16210439137131447, 0.16674878520054975, 0.17133613384200957, 0.17587922657861516, 0.18062596644509796, 0.18543639391789493, 0.1903963920634312, 0.1953222747344891, 0.20032243701063163, 0.20538102794223304, 0.2105050528019976, 0.2157278195113009, 0.22097486861241683, 0.22605829386765006, 0.2314606574679354, 0.23691153513700855, 0.24260459300560516, 0.24812961895802316, 0.25354622036843205, 0.2592121866677195, 0.26492628305485544, 0.2708470921970823, 0.2766371779975093, 0.28226660525919134, 0.288195644270425, 0.29416581337569303, 0.30037041113993107, 0.30639887412923833, 0.3122035827750069, 0.3183693012750392, 0.3245680814009183, 0.3310038939191338, 0.33724445291037797, 0.34329597428426833, 0.34965533585116726, 0.3560435916662244, 0.3626575304888703, 0.3690792644860718, 0.3756238316830887, 0.3821133789163664, 0.38864393519010026, 0.3949303036115663, 0.4015713899405301, 0.4084754284209855, 0.41512199043192727, 0.42180054717182414, 0.42820548990294016, 0.4349799590650547, 0.44199758916713605, 0.448760295403164, 0.4555456167953269, 0.46234137443001155, 0.4691677709111828, 0.47575565777285866, 0.48264597347841803, 0.4895353562948688, 0.4965070072573317, 0.5033851629084969, 0.510453875162212, 0.5173163429323121, 0.5241917997653952, 0.5310259921639223, 0.5379264849412426, 0.5447022223650388, 0.5516226923708253, 0.558535258382914, 0.5654392118181484, 0.5723337467024286, 0.5793214126785559, 0.5861812744661337, 0.5930346195509054, 0.5996691818018876, 0.6065303383091932, 0.6134537200478435, 0.6202559157787669, 0.6270385860256511, 0.633648889148341, 0.6404082620007513, 0.6472153738977058, 0.6539015412622526, 0.6605603184503412, 0.6671044697988248, 0.6737161965291755, 0.6804682493671018, 0.6869861671598907, 0.6934772547477246, 0.6998979556491356, 0.7063341508933333, 0.7127003940143588, 0.7190683702741615, 0.7253956883572289, 0.7317775775791322, 0.7380074077938301, 0.7440980173236275, 0.7502599175124005, 0.7563728307863515, 0.7623425204079056, 0.7683657959640655, 0.7745934435334662, 0.7804677816249748, 0.7862981667941753, 0.791864635072627, 0.7976265607971339, 0.8034694932713292, 0.8090849983217644, 0.8145024023423129, 0.8200205325319463, 0.8254705028932814, 0.8307449320327547, 0.8360705576276196, 0.8414341428375115, 0.8465939143531613, 0.8516844680386659, 0.856832370312186, 0.8617653136212172, 0.866422814693803, 0.8712500902520244, 0.8759964942802454, 0.8808963941865557, 0.8854510031940466, 0.8897097359063858, 0.8941542685022895, 0.8985134040535487, 0.9029629024854287, 0.9071286476067738, 0.9112424830394754, 0.9152513584907929, 0.9191822136537661, 0.9228264784986846, 0.926622525838652, 0.930244956858446, 0.9338627438211702, 0.937382328709774, 0.9410596399910441, 0.9443527071627015, 0.9474706382578076, 0.9506096910593416, 0.953658205040879, 0.9566154959782907, 0.9594809105901706, 0.9621848645563983, 0.9648734090096163, 0.9674644310227536, 0.9698165815534338, 0.9722304621565494, 0.9746560780019766, 0.9768451959832608, 0.9789373515001903, 0.9810220076046808, 0.9829083324671651, 0.9844366395110787, 0.9861705824274538, 0.9877953577876138, 0.98950200044659, 0.9908884485973133, 0.9920076082971017, 0.993225463768014, 0.994337576384242, 0.9953827618129644, 0.9962811399643232, 0.9970541026229054, 0.9977532600531591, 0.9983503193978941, 0.9988491452749514, 0.9992427771160621, 0.9995597642651798, 0.9997490603340765, 0.9998394686513763, 1.0, 0.9998714510625246, 0.9993537309104706, 0.9990834922366744, 0.9987049331136083, 0.998405784916304, 0.9977915096952882, 0.997107711636629, 0.9963027434042049, 0.995404920815016, 0.9941897857738295, 0.9931337032648855, 0.992012882973167, 0.9907411078128702, 0.9893689399381425, 0.9880182398527824, 0.9864334941229287, 0.9845757243540674, 0.9828335716580368, 0.9809910411131869, 0.9790704808038108, 0.9770294448026505, 0.9748455730162925, 0.9726227099646494, 0.9703049086938977, 0.9678902009189795, 0.9653873105853145, 0.9630313941252576, 0.9603178113603175, 0.9575291343699761, 0.9545991072200936, 0.9516664944100771, 0.9485707013095542, 0.9454880244589199, 0.9423210128204206, 0.9391121987951612, 0.9357747429932521, 0.9321932076633451, 0.928720338518322, 0.9251612527346835, 0.9216733213845587, 0.9179286737404119, 0.9140748309543758, 0.9101930552676517, 0.9062391647720848, 0.9022141941985773, 0.8981191949054762, 0.8940690220451956, 0.8898227996472028, 0.8855161895169505, 0.8808804440838981, 0.8764878034845758, 0.8720654915682973, 0.8675209074484577, 0.8629096046548094, 0.8584232584855485, 0.8536605371394225, 0.8487268767661259, 0.8438791567834348, 0.8389750391760094, 0.8338746108739888, 0.8288799297052784, 0.8238217898126885, 0.8187100673184711, 0.8135430744611155, 0.8085748012242335, 0.8032721529488642, 0.7978762139713914, 0.7925115460051056, 0.7871089067947692, 0.7817689858798688, 0.776279921612328, 0.7704573710854469, 0.7649466615443116, 0.7593892201013156, 0.7538430486869787, 0.7481934889469615, 0.7424841416017469, 0.7367682398143715, 0.7310190729315952, 0.7253834191172932, 0.7195552013678229, 0.71354196613982, 0.7076962205704127, 0.7018228873700135, 0.6958826402530309, 0.6899654178514174, 0.6840896672996474, 0.6781181946614389, 0.6721304775034083, 0.6661589238141696, 0.6601388930334742, 0.6542015074089732, 0.6481498547521867, 0.6420950985500186, 0.6358686149947758, 0.6298301155624814, 0.6237768801851353, 0.6177182114381755, 0.6116519082350471, 0.6057935712350858, 0.5996903454736445, 0.593341546593567, 0.5872896332782492, 0.5812328963157759, 0.5752114827862453, 0.5691468245553852, 0.5633236584340853, 0.5572376173143957, 0.5511715441034268, 0.5449904858497603, 0.5389801054381572, 0.533029527391294, 0.5270372092418271, 0.5210613448694785, 0.5150819641413121, 0.5091438234650393, 0.5032887737029087, 0.4973785063541471, 0.4914915054768239, 0.48536275616927266, 0.47955738889241667, 0.4738896224961455, 0.4680909634833697, 0.46231485565805375, 0.456459200889446, 0.45074524923235654, 0.4451760350492724, 0.43948961086026006, 0.4338346277342433, 0.42814974225911423, 0.42256765246669226, 0.41719842650081473, 0.41165467041435816, 0.40615363870319265, 0.40063632648739805, 0.39522711826587176, 0.3897496539080275, 0.38443164945514957, 0.3789954317971557, 0.3737649452614794, 0.368562017745724, 0.36342005998386384, 0.3582752323199689, 0.3531937591821895, 0.348118485790044, 0.3430833933733902, 0.33818259034347015, 0.3332190288105458, 0.3283484670231167, 0.3234756032100513, 0.31865348743096633, 0.31374045142833956, 0.3090368805726574, 0.3043478331191976, 0.2997329754287157, 0.2951605982616304, 0.2905765752159271, 0.2860991534421567, 0.28193632328297996, 0.2775100292069074, 0.2731434459434867, 0.26873875891738813, 0.2645001583315692, 0.2601366510632495, 0.25602211076547876, 0.25194853132503103, 0.24820348113355933, 0.2441796040166211, 0.24021295319526675, 0.236309487417724, 0.23246391746373085, 0.2284131490810611, 0.22471351174395313, 0.22121981568913718, 0.21758151992539276, 0.2139955760125984, 0.21035827948638558, 0.20688935203319447, 0.20338693246651415, 0.20002027508696385, 0.19669611548541235, 0.19361206455605667, 0.19035109991937935, 0.18714640827719034, 0.18399704297778885, 0.18090213327854163, 0.17795397490944248, 0.17495385779299671, 0.17196291503859912, 0.16908240804564856, 0.166253996688008, 0.1632493604766186, 0.16055173267600528, 0.15812927345698846, 0.15547729888616765, 0.15287820686876186, 0.15029302910547418, 0.147801459989975, 0.14527845162543512, 0.14289212211398133, 0.14054818261735796, 0.1383088450021891, 0.13604220832947836, 0.13389064540129952, 0.13170697088867261, 0.1295722023028937, 0.1273645745646777, 0.12533970427444927, 0.12321600851474739, 0.121286855548987, 0.1193891535931352, 0.11767567276956714, 0.11582465474380224, 0.11384033653773258, 0.11209595163441684, 0.11038284073703535, 0.10870171651941983, 0.10705311810269184, 0.10545466814766402, 0.10386994651871867, 0.10231945422677889, 0.10098924871532143, 0.09948316980947608, 0.0978693911661706, 0.09646866485611952, 0.09509984156490534, 0.09388665143836436, 0.09256469023807268, 0.09138715475233539, 0.09012522939861287, 0.08890389401964732, 0.08745199906991458, 0.08633943820467559, 0.08531872329670762, 0.08423634409827416, 0.08317826236249146, 0.08232341048132118, 0.081290113435483, 0.08029341923441215, 0.07932409382328863, 0.0783844680702631, 0.07719016424370498, 0.07634091419300325, 0.07573888785267917, 0.07487915759761152, 0.07404388019725315, 0.07308351090071381, 0.07231213994240437, 0.07169813594311962, 0.07093369414858333, 0.0701901333814972, 0.06949385890419713, 0.06878511001051969, 0.06795410083825702, 0.06730025535692291, 0.06665528247985597, 0.06589515168924011, 0.06528384763153297, 0.0646607456497091, 0.0640560717054598, 0.06345423430114462, 0.06293176023598006, 0.062327852735657274, 0.06180844532581502, 0.06121186357177724, 0.06062741029696465, 0.05996783836855238, 0.0594154557357668, 0.05910529208302405, 0.058531216785343246, 0.05797432638694793, 0.05731173183764757, 0.05679805757768792, 0.056185331534748514, 0.05569284345159598, 0.05519762491923151, 0.05469989704919983, 0.05419980640012484, 0.05370777720434806, 0.05320183370816105, 0.052694176837878866, 0.052305328876789466, 0.05177847397135073, 0.051090602695896506, 0.0505924504468085, 0.05008718775458615, 0.049799258545461085, 0.04925231230756253, 0.04876328268909946, 0.04822049549108592, 0.047683593048279536, 0.0471059691197107, 0.04658135441529243, 0.04614153187450896, 0.045602307419168875, 0.04506483097011115, 0.044575985414337355, 0.04403189970069795, 0.043323083575618655, 0.04280016236120483, 0.04226626685772763, 0.04181138705122206, 0.04124520109787658, 0.04082228459773879, 0.040226904173081716, 0.03963401491210889, 0.03901107529419508, 0.03842277105135409, 0.037696809467802204, 0.03711844072905842, 0.0365280535846267, 0.03609175689405836, 0.03545816836116537, 0.034902842300243306, 0.034256300646375984, 0.03361162389014242, 0.03286070147427579, 0.0322297983660764, 0.0318226697129532, 0.03114821095000227, 0.03047979977098107, 0.029636485713323196, 0.02899814432548598, 0.028382606052820357, 0.02772435827937272, 0.027060580015370282, 0.026625975537805664, 0.02592222508017419, 0.025264827728755428, 0.02457156570713408, 0.023885984176395973, 0.023265318295103508, 0.02258378428295571, 0.021692553668029132, 0.021052359844196414, 0.020405357224455998, 0.019769782291662572, 0.01910993959584365, 0.01864369372015703, 0.017953880346203408, 0.01727367919970254, 0.01665742771981537, 0.015987164886633914, 0.015413854094907808, 0.014753417460553635, 0.013989973498940989, 0.013371705292289766, 0.01275910153238877, 0.012304158276061763, 0.011684613290682674, 0.010925131144678473, 0.010354909367010888, 0.009789906212215744, 0.009448224804795007, 0.008868816484225899, 0.008009461818880544, 0.007507187436117026, 0.007006586304279327, 0.006619939756518791, 0.006114431226945573, 0.005780848198579964, 0.005282608726795767, 0.004807988552568015, 0.004156439005003403, 0.003752829503693464, 0.003636260150257, 0.0032216504720098123, 0.002836617005413209, 0.0022113276917117824, 0.0019170155613616995, 0.0018075448532669793, 0.0015181458760176018, 0.001254415381501791, 0.0009476143020926227, 0.0007446799084504095, 0.000605795529959367, 0.0004439434437346658, 0.00030900338244171585, 0.00035673760078822563, 0.0002578216386796838, 0.00013777215442974, 0.00012065032735044114, 0.00013672239635263163, 0.0, 0.00010670544411882658, 0.00026803705953043044, 0.0004199162919866631, 0.0006008186948860862, 0.0008569753429164927, 0.0010943934995623773, 0.0014604315493767764, 0.0017579452736460964, 0.0020978362591459105, 0.0023525680282076413, 0.0027935505762953254, 0.0033080322378053477, 0.003816635685453429, 0.004365417748103243, 0.0051000304406188385, 0.005713332742565214, 0.006101522899584354, 0.006850775545302619, 0.007634611509165022, 0.008668867325014649, 0.009500828872800817, 0.010164346977716749, 0.011128534369392663, 0.012132361704134698, 0.013301740888004834, 0.0143743389043408, 0.01558463334213317, 0.016749676981567756, 0.01797177313475267, 0.01934369806935487, 0.020667253276883665, 0.022011008139548444, 0.023462125988523937, 0.02497101196503668, 0.026268524827201517, 0.02792646637902175, 0.029843983731607755, 0.03156134582177855, 0.03333742244768077, 0.0351998419387829, 0.037090031110371104, 0.038889013116585054, 0.040919328600728125, 0.04300154193112266, 0.045316195492767775, 0.04748314625211519, 0.04963614677123272, 0.051943324496167786, 0.054310473580704836, 0.05659996548711666, 0.05910537156927742, 0.06172937672893102, 0.06433404020323406, 0.06699805487107117, 0.06988403516783434, 0.07264786297138834, 0.075491964799814, 0.07839342545877272, 0.08136367165790431, 0.084260542489287, 0.08738396547998804, 0.09071787246660834, 0.09394025776923032, 0.09723106938963899, 0.10039301182079444, 0.10384334893064089, 0.10726286233938472, 0.11083590499076569, 0.11446144534485951, 0.11812371270159308, 0.12186063055644149, 0.12600114225392225, 0.1298057412657901, 0.13368712976203806, 0.13737771494027218, 0.1414401857284002, 0.14548300601356837, 0.14966807405753657, 0.1539061534734042, 0.15830855191792906, 0.16264143136163933, 0.1669428038967935, 0.17141023052407103, 0.1759331841408447, 0.1806671203991556, 0.18528226855147067, 0.19004149654678348, 0.19477489354855435, 0.1995750404904395, 0.20441946912541495, 0.209350525973418, 0.21405257823141277, 0.21914027029678698, 0.2242699017664496, 0.2295426737099209, 0.2347469258783922, 0.23989132715330905, 0.24521026566010484, 0.2505729400467345, 0.2562177647605356, 0.2616391420784753, 0.2670461761440795, 0.27259094719747057, 0.27818603780633844, 0.28375103105251986, 0.28945346890113194, 0.29511227820355873, 0.3009103219329415, 0.3067451472397964, 0.3127685828244134, 0.3186579798400663, 0.3245994802186328, 0.3305769120685464, 0.3365969648651296, 0.3425236792262957, 0.34864156501387605, 0.3548832866078998, 0.36105057914671623, 0.3672531336120056, 0.37350349356343865, 0.379771086173102, 0.3858227179715564, 0.3921849533277254, 0.3985628703709357, 0.4051985060509131, 0.4115790429438538, 0.4178142764388765, 0.4242762294277628, 0.43075509332482564, 0.43715394040721883, 0.44367756616593157, 0.4502629032572122, 0.45680002749159193, 0.46334997293608016, 0.46982927083912684, 0.476413077225209, 0.4829888316105034, 0.4895855399728552, 0.49618641413054393, 0.5030667956549392, 0.5096394695288196, 0.5159436844905974, 0.522584917188133, 0.5292218148646048, 0.5358573733506627, 0.542483670007548, 0.5493075058827136, 0.5558954326208672, 0.5624870816428964, 0.5688315264149311, 0.5754541465406134, 0.5822692729472928, 0.5888293302865975, 0.5953825876219159, 0.6020129610055749, 0.6085349518122077, 0.6149863229145573, 0.6214963265956243, 0.6279889968628712, 0.6345244711020366, 0.6409689100158578, 0.6474042553663386, 0.6538062693450547, 0.6601023020919984, 0.6664662158269518, 0.6727981418781851, 0.6790933827127206, 0.6853580216818073, 0.6915143226245876, 0.6977150394790478, 0.7038733179791175, 0.7098781718508325, 0.7159635062961358, 0.7219739095291658, 0.7279607380575756, 0.7338953139845118, 0.7397396175506227, 0.7455740529725697, 0.7516085345923655, 0.7573002710654971, 0.7629506414502889, 0.7684398661507702, 0.7740148311232447, 0.779658749785284, 0.7851064436622756, 0.7905034756792398, 0.7955993498735285, 0.8009198677979993, 0.8063556383545334, 0.8115108198035986, 0.8166055419484067, 0.8214174341861371, 0.8264141249721974, 0.8315537580339357, 0.8363673362510051, 0.8411159181422653, 0.8456321671667579, 0.8502662868084767, 0.8547657265083806, 0.8592475497431894, 0.8636461706072655, 0.8680167749049671, 0.8722419378374004, 0.8765108101778303, 0.8805586723130587, 0.884531525641242, 0.8882586019078174, 0.8920974711464633, 0.8959880983482698, 0.8996297110794119, 0.9031892549614524, 0.9065687426792614, 0.9099721149884584, 0.9133046056341678, 0.9165217873925109, 0.9196476637091379, 0.9227022730328627, 0.9256409765105199, 0.9283220919008176, 0.9310967657583178, 0.9337685094094426, 0.9363310230616702, 0.9387994335985245, 0.9412245483252856, 0.9434820181516489, 0.9456413631898991, 0.9478953242976851, 0.9498329371726594, 0.9514856344928491, 0.9532694250381515, 0.954950158268538, 0.9564278699214975, 0.9579151923029322, 0.9595662512034137, 0.9608025690480363, 0.9619469249538276, 0.9628011421930492, 0.9637817054707987, 0.9647480169421114, 0.965502573507816, 0.9661558864581052, 0.9665765563085242, 0.9670428918886776, 0.9676479519833299, 0.9678646736804523, 0.9679874166034116, 0.9678666249357712, 0.9678164835236472, 0.9675159137831276, 0.9672732946157818, 0.9669177953629925, 0.9665372108861111, 0.9659496890966209, 0.9653757316934275, 0.9645665707445819, 0.9636613595401675, 0.9624182996395186, 0.9613503241515015, 0.9602028245595536, 0.9589116387056084, 0.9575151427819055, 0.9561146281329552, 0.9544986739481962, 0.9527073615205902, 0.9509096009738846, 0.9490119244344706, 0.9469808491074968, 0.94489065876391, 0.9428980522820183, 0.9405862851432893, 0.9381889161035047, 0.9354709894831816, 0.932930766303268, 0.9305045760991992, 0.927739669714227, 0.9248905936934244, 0.9217503869826321, 0.9187590333959565, 0.9155927470940316, 0.9124221151656716, 0.9091551960768298, 0.9058254097240993, 0.9023689928275985, 0.8989247213460434, 0.8952816702961017, 0.8915597164542899, 0.8878975378618499, 0.8840026435989728, 0.8797976049334548, 0.8757954370495787, 0.8717106490476896, 0.8676832038718307, 0.8634217610448265, 0.8589912916709594, 0.8546051097155373, 0.8501457209925098, 0.845687163345714, 0.8410770539820303, 0.8362543158434191, 0.8315351852190093, 0.826745330391715, 0.8221318086646722, 0.8171761769197381, 0.8119079356143138, 0.8068843266812538, 0.801795624717786, 0.7968270115740679, 0.7915921978940224, 0.786271575016853, 0.7809464426951864, 0.7755726923170999, 0.7700480207835982, 0.7645935766259171, 0.758991710541858, 0.7534498153386033, 0.7478557417298444, 0.7425294506215632, 0.7367989692042985, 0.7307798281317416, 0.7250290477913385, 0.7192367159609786, 0.7133740761880919, 0.7075093017770907, 0.7017181341561572, 0.6957682196675335, 0.6897922176225031, 0.6837947780508872, 0.677769801577369, 0.6718295179430893, 0.6657478904797305, 0.659652611686601, 0.6534820697554226, 0.6473688265408507, 0.6411022614132278, 0.6349769626197731, 0.6288311603734391, 0.6227776621114136, 0.616584193177487, 0.610411070555333, 0.6042009051254766, 0.5979876089807051, 0.5916964141073568, 0.5854897624578572, 0.5793239464305188, 0.5731054657100122, 0.5668891002580719, 0.5606589777653929, 0.5544531314737698, 0.5483008218607781, 0.5421009133762863, 0.5359119888150687, 0.5295248053486084, 0.5233877446746772, 0.5174738983927288, 0.5113168661467278, 0.5051802775991675, 0.49888554766739385, 0.49281472334595217, 0.48688072944020966, 0.4808219223552788, 0.4747872691016594, 0.46867782383697537, 0.4627072741299772, 0.45693083446665334, 0.4509837629924901, 0.44507170512196975, 0.43915012585989427, 0.4333147215783766, 0.4273853606039569, 0.4216342169797016, 0.41584580546179784, 0.4101613711924454, 0.40450525388953923, 0.3991451857448168, 0.39351865297690375, 0.3878725758986678, 0.38235323308701247, 0.37687884584681897, 0.3715257217692917, 0.3661330434178809, 0.3607324241514746, 0.35544845411034826, 0.35021185762742474, 0.345047373009651, 0.33990429484974777, 0.3347221487564793, 0.3296920186624706, 0.3247083648234472, 0.31964827655461386, 0.314776859722699, 0.3099346090926842, 0.30515286529561864, 0.30041714401301517, 0.29570507431814846, 0.2910695759004371, 0.2865318167408658, 0.28199063456232243, 0.2775044473032076, 0.2732085322324474, 0.26881765565143945, 0.26432253153800433, 0.2600819303143399, 0.2558956159572495, 0.25191973762056635, 0.24782521986072573, 0.24372735883603602, 0.2397722222378347, 0.23587775043537523, 0.23216818035114611, 0.2283796439685298, 0.22442108849011344, 0.22079749059098389, 0.21722666234175503, 0.2139787261217964, 0.21048279184446272, 0.2069957217712339, 0.20364808174100427, 0.20036521315461925, 0.19718096796957643, 0.19402145352455138, 0.19078900063755663, 0.18777613954138173, 0.18481908174705527, 0.18180107556153288, 0.17897181155081404, 0.17629296384483567, 0.17355308397083874, 0.17087141812938197, 0.16820316255556, 0.1656435994150379, 0.16304653225180746, 0.16061014932439713, 0.15822448408612017, 0.15608686925423973, 0.15377999334047265, 0.15159536202479096, 0.1494070753962061, 0.14728326786518378, 0.1449844271227944, 0.14301499037972448, 0.14120945981059005, 0.13931916390876664, 0.13748320438730005, 0.13573199271484424, 0.13399890464203343, 0.13236136756836855, 0.13073048598695197, 0.12915430008042159, 0.12746954235620606, 0.12601967124709104, 0.12483261448939281, 0.1234393557604006, 0.12210097755438097, 0.12061227393388063, 0.1194041903530357, 0.11825529179635086, 0.11712176700465175, 0.11602814323650928, 0.1149431736834071, 0.11393255433800122, 0.11316265895803128, 0.11220070925872334, 0.1112870107022149, 0.11029544415259583, 0.10948810834701567, 0.10887852910028795, 0.10812145672121944, 0.107407870079173, 0.10647716632653256, 0.1058773977316802, 0.10529756200554717, 0.10474544346960886, 0.10421725709026534, 0.10373041848692353, 0.1032483070153142, 0.10277398791055883, 0.10234379070647776, 0.1019369139195783, 0.10177023873789165, 0.10138140863932925, 0.10103025465508166, 0.10070712993996934, 0.10041395708979205, 0.10003835989567228, 0.09981306552085241, 0.099760977539249, 0.09955137011911383, 0.09936694717800952, 0.09892637230326008, 0.09882165696573378, 0.09885178651695152, 0.09873874635547725, 0.09863792226634355, 0.0985175136147331, 0.09844273496224305, 0.09846920625086343, 0.09839842425969617, 0.09833991450329502, 0.098144061964276, 0.09812486856285019, 0.09807129787023389, 0.09805669855605745, 0.09804022481042038, 0.09811854331617642, 0.09808636224959609, 0.0980818992463043, 0.09805287409980133, 0.09802689317430235, 0.09788560909879834, 0.09787724500777872, 0.0979690242498257, 0.0979336003273343, 0.09789724739401826, 0.09783131986279707, 0.09779345833937124, 0.09769489799698695, 0.09765223972614945, 0.09759953879372486, 0.09778136081627253, 0.0976768317881121, 0.09751996265724681, 0.09742574281904849, 0.09732682531724493, 0.09730450235578512, 0.09718146838318804, 0.09698195861507086, 0.09685817388569068, 0.09672289158265628, 0.09666491499035287, 0.09649283855427596, 0.09602234008829434, 0.09586796385501163, 0.09568598409426253, 0.09546041109771224, 0.0952289871081461, 0.09525844511935153, 0.09494114809696907, 0.09461632724183375, 0.09420994128816833, 0.09387450932540921, 0.09355413916494087, 0.09318227360613031, 0.09279510414683673, 0.09238503500744183, 0.09196611400492719, 0.09145033938468423, 0.09100593496918334, 0.09053875751043806, 0.09016637252767971, 0.08963978629108975, 0.08918066313668917, 0.08861233910675913, 0.08803208141048385, 0.08743182395080532, 0.08682522594115881, 0.08595156585428154, 0.08534542555224103, 0.0847085922427127, 0.08412539733692519, 0.08342128962311682, 0.08277471616919803, 0.08201752487054745, 0.08124395638020668, 0.08066068907696276, 0.07982764407373578, 0.07895489851161898, 0.07811406479810046, 0.07726291106513862, 0.0761867059062836, 0.07533926597814337, 0.0746464625382826, 0.07372826382467179, 0.07273234498370557, 0.07179765414426535, 0.07084646429233624, 0.06995845432875857, 0.06896538232153718, 0.06797869308709206, 0.06696152941269441, 0.06593418082515437, 0.06487925878826623, 0.06383337346959331, 0.06291754651083566, 0.06183141607422879, 0.06074247424379138, 0.0595809843607407, 0.058493000359304784, 0.05739999720746703, 0.05629492597624734, 0.055182213973949866, 0.05400707282000062, 0.052887253724927, 0.0519959204010106, 0.05082812890016942, 0.0496661909419536, 0.04857465316541764, 0.04741346183933999, 0.046297479215966, 0.045145166480700716, 0.04400072060277105, 0.04268063660865226, 0.04157298338856081, 0.04062337247914725, 0.03948850066621219, 0.03836129671352586, 0.03732102234935328, 0.03619913105807406, 0.03511031067241685, 0.03401025431260237, 0.03292328821991989, 0.03171478663681512, 0.030670711331635705, 0.029797693422461996, 0.028745142529660355, 0.027710110236581667, 0.02647189101165552, 0.025499853677779943, 0.02472636060575705, 0.023742927108380794, 0.022779888092704915, 0.021730675998126454, 0.02082299632626495, 0.020017130470543827, 0.019131183190179868, 0.018268452772684667, 0.01756058623025086, 0.016729623583297534, 0.015858800846451, 0.015101769378771297