0.028364202936009195, 0.027857738347057126, 0.027376911806879574, 0.02696454251322016, 0.026568053044591585, 0.026222161574535875, 0.0259002552812229, 0.025640839253743358, 0.025351104038197222, 0.02501970815249733, 0.02476866803346095, 0.024564089422069686, 0.024324994969138102, 0.02409473990435884, 0.023799657818222495, 0.0235934256284288, 0.023436455622089448, 0.0232293249600339, 0.023027771527436864, 0.022775587390350086, 0.022592488335972234, 0.022463756623728272, 0.022280546530885438, 0.022104593280767755, 0.021894088589182154, 0.021739131694677942, 0.02151766864030354, 0.021384978432402182, 0.021255971642412122, 0.021221052563384073, 0.021092162478524523, 0.020942970915181103, 0.020843612402302262, 0.02075568617670817, 0.020632991152677638, 0.020575805474455748, 0.020571489644887087, 0.02053131115599523, 0.020506021628210507, 0.020458602387364265, 0.020469221830792007, 0.02047523367375587, 0.0205172116662479, 0.020573649942325453, 0.020614850735719767, 0.020706283755723663, 0.020840686796463146, 0.02095910632815536, 0.02109555088165205, 0.02122705425022482, 0.02140387175267847, 0.021584639424965232, 0.02179981723325695, 0.022033300826813873, 0.022316143952192006, 0.022584120968478515, 0.02287375523381141, 0.023185267660831996, 0.023518877489341814, 0.023842000885504474, 0.02422461145009055, 0.024550819030159474, 0.024985531258423784, 0.025437771270798718, 0.025964828985603254, 0.02644808498390591, 0.026987711721500565, 0.0275142960468005, 0.028066956785101762, 0.02859654317062539, 0.0292077636183828, 0.029816759197974017, 0.03047885566702132, 0.031164065505690283, 0.031933982558983935, 0.03265969222059248, 0.033315412670783626, 0.03411046322298887, 0.03492855700979046, 0.03584323338066792, 0.036700868887945784, 0.03754594773946938, 0.03846827387668431, 0.03941811309113833, 0.04047094104046791, 0.041467793961724626, 0.042467328260792865, 0.04353414273529855, 0.04463210179976375, 0.045733270188395556, 0.046897634236885734, 0.04812495933349543, 0.04934594318261186, 0.05059981145288819, 0.05189140534717568, 0.0532109333814247, 0.05454069568487798, 0.05593068123563548, 0.057353363300966416, 0.058771636307345936, 0.06026558988427062, 0.06177016301779192, 0.06333084614843411, 0.06492330166449921, 0.06655762539252912, 0.06821454805723974, 0.06997839016302526, 0.07169517157509397, 0.07345122183305663, 0.07519480760842226, 0.0770353941041481, 0.0789353409456877, 0.08084515531807043, 0.08279285087457293, 0.08478320683828196, 0.08680635204681136, 0.08884917652268286, 0.09095159276873128, 0.09309148952851277, 0.09527375922697025, 0.09748862377484423, 0.0997488216765991, 0.10203951737679218, 0.10436912167071877, 0.10672360476430366, 0.10913288326471345, 0.11154285846510795, 0.11403336884967503, 0.11656017921203835, 0.11918458670861569, 0.12177736865710542, 0.12437334257401737, 0.12705195246929532, 0.12976860570700205, 0.13256318808484507, 0.13535102511586575, 0.13812767295567177, 0.141002398656855, 0.14391391485711288, 0.1468998086233818, 0.14988041916090883, 0.1529165003455868, 0.1559728582134893, 0.15906857550763362, 0.16215634885178806, 0.16533540136076982, 0.16857099439878862, 0.1718182650949447, 0.17510209202924618, 0.17842455502045573, 0.18178039656661255, 0.1851767865286204, 0.18860344218295377, 0.19206557742074776, 0.19551595535831315, 0.19905384218343744, 0.202653893402626, 0.2062513193657157, 0.2098820674295624, 0.21353873984782262, 0.2172358987792797, 0.22102340757285785, 0.22477634702412064, 0.22856360603816325, 0.23232339188884227, 0.2361844119898891, 0.24002696284936734, 0.24395040961632994, 0.24789901747207013, 0.25196184724782394, 0.25594951446778375, 0.2599367244737941, 0.26398734108046024, 0.2680644649914082, 0.27215811482773994, 0.2762876020565153, 0.2804154425146235, 0.2845958812512882, 0.2887978593747459, 0.2930350445310578, 0.2972771088080005, 0.3015074008469189, 0.30579505088181913, 0.3101006242961126, 0.3144940146387298, 0.3188253016911614, 0.32315368437794595, 0.3275278845329001, 0.33191912347231284, 0.3362796854194357, 0.3407083645413562, 0.34519809571079463, 0.3496437719225654, 0.3541030556022792, 0.35851874926579014, 0.36300947502226155, 0.36748669798706907, 0.37199476969033196, 0.3765082114480137, 0.38104300576293976, 0.38556379294372195, 0.3900917704732984, 0.39462122994422366, 0.39915418448987194, 0.4036945150087417, 0.40823142781987565, 0.412713380503966, 0.41725904246344253, 0.4218009932091573, 0.4263738978113393, 0.4309024728330506, 0.4354323587047495, 0.4399526461256714, 0.4444679186334706, 0.4489185918262238, 0.45342821153674895, 0.45799209452855805, 0.4624701820836772, 0.4668621219906742, 0.4713311361802242, 0.47578460672416684, 0.48027353608189005, 0.48468770354932716, 0.48903819766813056, 0.49342851853989167, 0.4977993554610106, 0.502192161961839, 0.5065164911383516, 0.5108331315471784, 0.5151159980556614, 0.5193777849112013, 0.5235961636119164, 0.5278147591016629, 0.5319840098097529, 0.536152736954569, 0.540292228981763, 0.5443876124338743, 0.548467943994398, 0.5524829386459861, 0.5565015886066907, 0.5604843129264518, 0.5644539916662402, 0.5683601964887389, 0.5722042097093056, 0.5760399553389386, 0.5798360591674434, 0.5836011949447156, 0.5873147009805133, 0.5910079871177942, 0.5946353511715129, 0.5982208587067637, 0.6016931681414994, 0.6052007163613745, 0.6086945055987905, 0.6120993612010494, 0.6154563520365636, 0.6187576256788999, 0.6220173001026397, 0.6252192010202087, 0.6283774981987315, 0.6314830956436347, 0.6345750948958113, 0.6375680568130595, 0.6404591369498913, 0.6433518985652694, 0.6461871271091484, 0.648945483577662, 0.6516662193375043, 0.6543429517278937, 0.6569403302382919, 0.6594772539500251, 0.661929645316749, 0.6643466831263772, 0.6667398502989873, 0.6690239995409356, 0.671245772263167, 0.6733903157538909, 0.6754867614812254, 0.6775294679358784, 0.6794929345317053, 0.6813904423818351, 0.6831861948723515, 0.6849543059418223, 0.686652619892967, 0.6882808535277245, 0.6898387159696355, 0.6913212255267506, 0.6927380494659816, 0.6940364878318197, 0.6953159315896906, 0.696520707803647, 0.6977142016969051, 0.6987619694497086, 0.6996779483969496, 0.7005911875854939, 0.7014291919790521, 0.7022318673715403, 0.7029145631419143, 0.7035431587574076, 0.7040774919642776, 0.7045394558242557, 0.7048981959999481, 0.7052181371066114, 0.7054137538366837, 0.7055896646722064, 0.7056876827390564, 0.7057644504245414, 0.7057007647184337, 0.7054978646230954, 0.7052951265858207, 0.7050148748420045, 0.7046411784128196, 0.7042093541580157, 0.7037215093035447, 0.7031333297066062, 0.7024702483363726, 0.7017606822956064, 0.7009451438072508, 0.6999962668760651, 0.699043676871752, 0.6980154516689009, 0.6969473807425234, 0.6957653452086959, 0.6944880719782924, 0.693165680932787, 0.6917707824470283, 0.6902828185860009, 0.6887471601804341, 0.6871511168649498, 0.6854704823438617, 0.6837198017945828, 0.6819020045805929, 0.6800126991316404, 0.6780154213839276, 0.6759954583362424, 0.6739063045643318, 0.6717629500300674, 0.669536406281557, 0.6672441830245316, 0.6648870353366593, 0.6624657194107252, 0.6600442575694996, 0.6574888904299446, 0.6548798882051601, 0.6522075585068324, 0.6494777884780085, 0.6466276911834098, 0.6437922345780598, 0.6408924269996673, 0.6379393062783942, 0.6349283946310209, 0.6318725018516875, 0.6287478007511726, 0.6255457918901907, 0.622317276439255, 0.6190355313826905, 0.6156783076373962, 0.6122965956410679, 0.6088849290404639, 0.6053997987903068, 0.6018674431996431, 0.5982866234162446, 0.5946634235111097, 0.5910196038663723, 0.5873064601014407, 0.5835528185849356, 0.57971274773326, 0.575886848947565, 0.5720253683249518, 0.5681197149983844, 0.5641767773910804, 0.5602376729614128, 0.5562189704544883, 0.552159656817688, 0.5480805849250183, 0.543971624443972, 0.5398174293757675, 0.535653947473527, 0.5315261314348414, 0.5273006879282883, 0.5230536561175209, 0.5186826564413797, 0.5144076889469265, 0.5101615576074189, 0.5058313741602057, 0.501482514730477, 0.49711848295385314, 0.49273546198316515, 0.4883209908899077, 0.48391110064282883, 0.4794875548319242, 0.4750750793124185, 0.4706251323443202, 0.46615731951765094, 0.46169264003003047, 0.4572210924767276, 0.4527204136932115, 0.4482415941935813, 0.4437651201993689, 0.4392773958208983, 0.4347880585029172, 0.4302772644981698, 0.42579108285126943, 0.4213526496115093, 0.41686368377786254, 0.41238093288840105, 0.407877201850706, 0.40341321693122256, 0.39890513188974996, 0.39446374683317076, 0.39002927191385905, 0.38563138725184465, 0.38121179774453295, 0.37684735758283877, 0.3724495280592983, 0.36806930162726964, 0.36362542479617443, 0.35929305290725044, 0.3550228559206659, 0.35071664485871284, 0.3464124781982265, 0.3421511586914638, 0.33791144891686, 0.3337108155704948, 0.32951541408274543, 0.325317524120336, 0.3211777734380156, 0.317063739444755, 0.31297880605148315, 0.308918991053975, 0.3049161440338785, 0.30091138360971964, 0.29693883517635977, 0.29299443226003946, 0.2890887587389707, 0.2852145470067197, 0.281377430766217, 0.277575281098823, 0.27377594552330986, 0.27004981436074565, 0.26640323750164246, 0.26274242201701375, 0.25912083824020454, 0.2555084486477473, 0.25197044864974794, 0.24848764362853176, 0.24502582439653903, 0.24160502018867844, 0.2382163278278825, 0.2348801308464677, 0.23163498889030926, 0.22837676995749362, 0.2251641336565229, 0.22191512463818916, 0.21880420248919855, 0.21572042627101912, 0.2126944608982983, 0.20971038211206847, 0.2068486024465587, 0.20394039425787616, 0.20102902144762988, 0.19822399495246135, 0.19546427437970187, 0.19278535289812396, 0.19011280264247216, 0.18748845635638262, 0.18491226658925292, 0.18238418709399237, 0.17989011251618525, 0.1774598877043446, 0.17511900950036935, 0.17277784917847094, 0.17048631488891508, 0.1681972193100109, 0.1660099056720198, 0.1638288386685134, 0.16173882225590566, 0.1596928196544292, 0.15773335839327535, 0.155771034877826, 0.15383250455691858, 0.15196740073032072, 0.150147808241519, 0.14841118104705323, 0.14667772632375725, 0.14500338054780432, 0.1433627837309874, 0.14176934644294692, 0.1402155046758063, 0.13871568370868673, 0.1372610595947021, 0.1358511853323765, 0.13448561278001223, 0.13314280376143592, 0.13186714550529624, 0.13060512495066906, 0.1294162354836098, 0.12826690450309577, 0.12716169496206356, 0.1260904658143376, 0.12502338717484973, 0.12403488590411875, 0.12308305323780364, 0.122275571311483, 0.12138308456771883, 0.12044378664447916, 0.11964585841812544, 0.11888291554105133, 0.1181546304116941, 0.11746063136645629, 0.11685205387453058, 0.11621883675020823, 0.11562145555695814, 0.11503789544053093, 0.1145120940467339, 0.11397839900014119, 0.11352081580064599, 0.11309154085902166, 0.11269018988470396, 0.11231633430417806, 0.11198356369547219, 0.11166147846157558, 0.1113661651689465, 0.11109694271276702, 0.1108531171809583, 0.11062929709393149, 0.11043473170407282, 0.11026315489366904, 0.11010449968077786, 0.10997798931705799, 0.10989056867841726, 0.10980172887731654, 0.10973296974305202, 0.10965065617530959, 0.10962371502118048, 0.109633621578442, 0.10963498272249733, 0.10965215693946345, 0.10968437194175765, 0.1097308554495467, 0.10982832499012658, 0.10989629240400393, 0.10997832281140241, 0.11000305763346929, 0.11011894208384453, 0.11026763635302723, 0.11039394429067143, 0.11052791637540658, 0.11068528437073243, 0.11083049765636872, 0.11097290275117072, 0.11113161865651286, 0.11129476725217735, 0.1114288410997801, 0.11160289410662169, 0.11175635326029214, 0.1119336353571627, 0.11210935179018552, 0.11229256992835747, 0.11246301451391012, 0.11265950417912979, 0.11282176268539186, 0.11298253495970144, 0.11313170382437716, 0.11328847066154664, 0.11342698227152585, 0.11357651314744152, 0.11371982552454676, 0.11387282868964654, 0.11400014824077358, 0.11411130635789651, 0.11422559781468673, 0.11433132096902848, 0.11438811688025584, 0.11448016595773224, 0.11463951619650556, 0.11469658295278418, 0.11474535997950425, 0.11472404759100635, 0.1147613654583116, 0.1147915330564738, 0.11479937432154548, 0.11479295866605362, 0.11478134754808074, 0.11474429896952505, 0.11473241596063116, 0.11466061214746377, 0.11457561813273927, 0.11437600159493974, 0.11427537718549692, 0.11419385329175392, 0.1140470061632113, 0.11388215857822871, 0.11374836301192659, 0.11354083309388473, 0.11330119575740695, 0.11306377304071029, 0.11280866490190919, 0.11248868445032703, 0.11220318121679877, 0.11195035761964901, 0.11161574894505985, 0.11126319154598231, 0.11082673514720913, 0.11044557996135769, 0.11010044908344845, 0.10966707321336434, 0.10921497940151248, 0.1087650122979683, 0.10827212138615723, 0.10774232244378804, 0.10721515837088927, 0.10666819628369437, 0.10607559293404789, 0.1054921091687537, 0.10491067430528625, 0.10428167116217565, 0.10363300968212837, 0.10297407235995028, 0.10228496145217054, 0.10161898785810822, 0.10088646571253279, 0.10013729514014777, 0.09932432804840258, 0.09854699240962649, 0.09777314445017733, 0.09695323521811057, 0.0961363402997253, 0.09527771504883994, 0.09440242243419115, 0.0935034161763973, 0.09259567218671988, 0.091694379503071, 0.09074988020706265, 0.08979007671707363, 0.08885483331096182, 0.0878595292331738, 0.08684201924307507, 0.08582207554264801, 0.0847885333756693, 0.08376722906437563, 0.08270347197111295, 0.08165602140398513, 0.08056508865633555, 0.07946398836117775, 0.07839713639915825, 0.07726984622489803, 0.07612778591762691, 0.07498566239355216, 0.07383502640062865, 0.07271337968433084, 0.07154109331218624, 0.07039780400512169, 0.06920869371209976, 0.06801533433690263, 0.06683627996403821, 0.06563158963788772, 0.06452419705717076, 0.0632998115072526, 0.06207762600858989, 0.06088976769800973, 0.05966598441169558, 0.05846112875834398, 0.05723986189810821, 0.05602127638284089, 0.05485662654777814, 0.05363614944135005, 0.05242077910893297, 0.05121018958429298, 0.05000420528356201, 0.04881449933157598, 0.04761623550970943, 0.04648671029605645, 0.04529157615778233, 0.04410591337038967, 0.04293659096197582, 0.04176863423626453, 0.04062216045366565, 0.039472393583931134, 0.03833342062154801, 0.037285129456338176, 0.03615842837227976, 0.03506196731091251, 0.03396566020515871, 0.03288607521170943, 0.03184659249009796, 0.030797456585335472, 0.029787636086267326, 0.028772365558019885, 0.027776761344570605, 0.02677514925594671, 0.025822534251028192, 0.024968387047136848, 0.024043874629716754, 0.023143812135478146, 0.02227522874038823, 0.0214232835173538, 0.020610546705109683, 0.019807348273596922, 0.01903061502312432, 0.018311063092150484, 0.01758424989370845, 0.016919389738427285, 0.01624692899748869, 0.015605935025833644, 0.014991800203068686, 0.014414657618335555, 0.013894986168542808, 0.013378332342392914, 0.012895582065073304, 0.01247978451061229, 0.01206149766575921, 0.011651763647337325, 0.011310523011786727, 0.011004751500628355, 0.010767767398672183, 0.010530359848616841, 0.010385775353426397, 0.01021973773237547, 0.010096340697615929, 0.00998978198009384, 0.009954926406124708, 0.009961430031548195, 0.010009701606034168, 0.010100181892180093, 0.010216936636009305, 0.010395331152331402, 0.010588358486534877, 0.010856457394318874, 0.011167021122133936, 0.01157245745153871, 0.011963976388010783, 0.01237520517162482, 0.012866269490941443, 0.013404274880155154, 0.014001532635371723, 0.014633710317857686, 0.015345684802115777, 0.01607313744975188, 0.01685253648930705, 0.017674706787089562, 0.018559798754972722, 0.019492283872829714, 0.020482459651215635, 0.02152512130203294, 0.02259252865988618, 0.023744842585664994, 0.024956209301417644, 0.02621226795072919, 0.02752188186706531, 0.02887848279423654, 0.030297454181453985, 0.031784954680679094, 0.033311536580604845, 0.03489424265428346, 0.03653335065894971, 0.03822912665888421, 0.03996073734168404, 0.0417732665441451, 0.04364200737651843, 0.04555563237524904, 0.0475394081458498, 0.0496126071109893, 0.051705864436424026, 0.05385832088065954, 0.0560747118845852, 0.05834512079708472, 0.06064233226695647, 0.06303610481223641, 0.06548765290034625, 0.0679714716910632, 0.07054260170734973, 0.07320591187465335, 0.07588704506340617, 0.07862788776278062, 0.08140265783885599, 0.08426614164931907, 0.08718079975261989, 0.09016174367828761, 0.0932007881585325, 0.09630042518626135, 0.09945578181319756, 0.10262518319206063, 0.10590331387864342, 0.10923751776713463, 0.11269137676738955, 0.11613061507501163, 0.1196044547238554, 0.12316731787415419, 0.12678835013714987, 0.13043927329925764, 0.1341796940310692, 0.13802536561456707, 0.14187166425913134, 0.14577673772894584, 0.1496440432846515, 0.1536773913021685, 0.15775803264689603, 0.1618962502758209, 0.16608672892157278, 0.17037416683680792, 0.1746639972803793, 0.17901123287900841, 0.18341048958577297, 0.18786411888315283, 0.19236697985782378, 0.19692856913067605, 0.20152411958545405, 0.20619303461208843, 0.21091267538028716, 0.2156194414489599, 0.22044748531019073, 0.22540828493210352, 0.23031756782880788, 0.2352778395018701, 0.24021567118082843, 0.24528473426190703, 0.2504147620001984, 0.2555706963369566, 0.26077168541843976, 0.26605712152965616, 0.2713418254902593, 0.2765646055434958, 0.28195378329059395, 0.2873810421650365, 0.2928979440341358, 0.2983947893370106, 0.3039370425720742, 0.30951406118270675, 0.31510022424107476, 0.32075953940314106, 0.326455206277697, 0.33216792995109196, 0.3379369743137828, 0.34367393077303754, 0.3495177827059508, 0.35539037064396006, 0.36138063316701435, 0.36729903239021794, 0.37322946526691914, 0.37921566175288296, 0.3852315810270487, 0.39124115029536677, 0.39731816386369123, 0.40343650626142025, 0.409560616464524, 0.4157091597370629, 0.42186248753339767, 0.42805953340173275, 0.4342631273876481, 0.4405023516004198, 0.44675973408072917, 0.45302747989465325, 0.45931972773379615, 0.46560154426126293, 0.4719269099213703, 0.47826448123540877, 0.48465339798299345, 0.49100821017655455, 0.49735178999451546, 0.5037327937454233, 0.5101223438092605, 0.5165007128906739, 0.5229067525996336, 0.5292704054079901, 0.5356904198270562, 0.5421104436659009, 0.548522855297299, 0.5549419328863444, 0.5613398814977475, 0.5677558166566861, 0.5741667656070232, 0.5805509289147617, 0.5869523671395805, 0.5933218695627512, 0.5997085314575996, 0.6060838458231664, 0.612451825491211, 0.6188017532025033, 0.6251664643490871, 0.631485247070898, 0.6377903771917616, 0.6440267196374787, 0.6503076134744649, 0.6565586930415845, 0.6627990493372357, 0.6690167016384664, 0.6752201479868308, 0.6813885294746297, 0.6875249222341994, 0.6936431776344619, 0.6997338597624845, 0.705805250311457, 0.7118363023049784, 0.7178064988055687, 0.7237793758160832, 0.7297176710945081, 0.735664901481059, 0.7415253673310472, 0.7473155053940777, 0.7531086067082535, 0.7588616883988972, 0.7645783215697127, 0.770247413721453, 0.7758475948871927, 0.7814324879134502, 0.786970429448007, 0.7924206104556992, 0.7978667303688132, 0.8032981528976284, 0.808634441547268, 0.8139191573619226, 0.8191441509830228, 0.8243232460516046, 0.8294680929013907, 0.8345327823239026, 0.8395411791042415, 0.8444381480280669, 0.8493370593951968, 0.8542198412846465, 0.858986094449709, 0.8636904494255891, 0.86833640089633, 0.8729128149531351, 0.8773631662420187, 0.8818158331833377, 0.8861976367898351, 0.8905618443611828, 0.8947932015526898, 0.8989500604240189, 0.9030412360395278, 0.9070600692895106, 0.9110195699113525, 0.9148888204789, 0.9186529879088544, 0.9223757566029148, 0.9260200575324254, 0.9295757511404944, 0.9330620040090049, 0.9364318297120101, 0.9397592891830485, 0.943002144352462, 0.9461693751199746, 0.9492406275239806, 0.9522499642590212, 0.9551470130646957, 0.9579589255934855, 0.96066855072728, 0.9633100369136118, 0.9659007712015127, 0.9683604833954574, 0.9707329609176747, 0.9729822192658679, 0.9751822031491585, 0.9773351231147481, 0.9793458946440611, 0.9812667510260822, 0.9831039604921998, 0.9848418701029351, 0.9864928251139168, 0.9880462009440718, 0.9895069341277848, 0.9908111709416273, 0.9920928985170294, 0.9933424245112592, 0.9944203129661294, 0.9954042005557211, 0.9962982872404897, 0.9970921785013259, 0.9977980689289663, 0.9984006483498064, 0.9989079192922871, 0.9992586459427193, 0.9995821088311851, 0.9998599476662577, 0.9999778967771825, 1.0, 0.999905041425731, 0.999737781003696, 0.9994591862225083, 0.9990993268167019, 0.9986417732977915, 0.9981079420883737, 0.9974533274968965, 0.9966868098445513, 0.9958434511301028, 0.9949040738805215, 0.9938854618923991, 0.9927531362204287, 0.9915151914257968, 0.9901968392255395, 0.9887845600385682, 0.9872905317694446, 0.9856903266427939, 0.9839350420091818, 0.98215963628223, 0.980289765726046, 0.9782866080832479, 0.9762358428742486, 0.9741873856724893, 0.9719382125067632, 0.9696031252741293, 0.9671450142617889, 0.9646440329740119, 0.9621102278332256, 0.9594298455232201, 0.9566674679102444, 0.9537907252842392, 0.9508698724497668, 0.9478104499382919, 0.9447329241798492, 0.9415717086644578, 0.9383750533826232, 0.9350446669351314, 0.9316654116427578, 0.9281784295310495, 0.9246179302139923, 0.9209190703486186, 0.9172221751343367, 0.9134950512448283, 0.9096444816053779, 0.905724541301693, 0.9016894259019321, 0.8976398726344463, 0.8935801628986737, 0.8893872651045482, 0.8851319600154981, 0.8807918424731769, 0.8764178091482859, 0.8719434369666288, 0.8674547734013878, 0.8629154493289202, 0.8583072331005819, 0.8536428812198865, 0.8488911676263393, 0.8441234140261453, 0.839285989383731, 0.8344155910514671, 0.8294946080854433, 0.8245553856439518, 0.8195349946848257, 0.8144900043352088, 0.809382081814051, 0.8042349218345194, 0.7990124158142591, 0.7937956847487342, 0.7885558781715155, 0.7832648474333863, 0.7779409447633994, 0.7725506227227599, 0.7671702159861977, 0.7618394266644362, 0.756390738137201, 0.7509202097402508, 0.7453188996276754, 0.7398222153995053, 0.7343269866624201, 0.7287806203913307, 0.7232157386269328, 0.7176295278313295, 0.7120337938475069, 0.706476355229726, 0.7008494245062771, 0.6952157569362627, 0.6895204770069874, 0.683884548609229, 0.678254599915237, 0.6726076061893844, 0.6669592727788116, 0.6612574332270726, 0.6556183874922648, 0.6499964957320494, 0.6443589850619801, 0.6387272853330875, 0.6331618119704394, 0.6275398025713251, 0.6219276002884311, 0.6163364228599844, 0.6107620075705174, 0.6051260292203251, 0.5995992422821415, 0.5940747459091641, 0.5885844490797807, 0.5831136689591657, 0.5777042256550882, 0.5722733307101642, 0.5668980468979824, 0.5615200432705877, 0.5561740075624926, 0.5508166143673123, 0.5455437310426583, 0.5402500303778532, 0.535051677915814, 0.5298864731622459, 0.5247750816570436, 0.5196794732639429, 0.514586069198721, 0.509576101799419, 0.5046066978051135, 0.49971705633872343, 0.4948290841325102, 0.48999803258431557, 0.485205144133529, 0.48046264388196064, 0.4757996862496783, 0.4711575018076421, 0.4664906765769924, 0.4619693670726747, 0.45750012984079275, 0.4531780977905617, 0.4488053096051996, 0.444491517650816, 0.44024214754452773, 0.4360549030438415, 0.4318810991252705, 0.42782590373750873, 0.4238410541037508, 0.41990757823010194, 0.4160374740505255, 0.41217530561521637, 0.40844141632036207, 0.4047794137162104, 0.4011705236499123, 0.39762689726763956, 0.39417756195027615, 0.3907635721533603, 0.38738615387283426, 0.38411555305113954, 0.38091344137482697, 0.3778273775054289, 0.374758349200388, 0.371724860346053, 0.3688067732349894, 0.3659598925399563, 0.3631331010724749, 0.36043639324425025, 0.35779274510126813, 0.3552377379544161, 0.35275258567966417, 0.3503449701383692, 0.3480004975933226, 0.3457279415915218, 0.343527620820699, 0.3413997809076647, 0.33936334366415194, 0.3373785633102018, 0.3354817180050355, 0.3336427596774768, 0.33187812506121034, 0.33016639220152233, 0.328552049978858, 0.3270191621371801, 0.3255475783890414, 0.32414812075660177, 0.322818070806372, 0.3215620076095363, 0.32034626965424173, 0.3192351887144277, 0.3181922758257804, 0.317228994118744, 0.3163201210231954, 0.31547914495184204, 0.31470555428409375, 0.31399880021640364, 0.31333486762554613, 0.31276296159424133, 0.31230392675289015, 0.31185263824888193, 0.311466734684053, 0.3111171050097533, 0.31086254538055613, 0.31064303970181834, 0.31051262553863035, 0.3104400235912316, 0.3105183330279927, 0.31054758057100085, 0.31051134425675375, 0.31067714269313645, 0.31089387053840883, 0.31118687939265627, 0.3115008514284812, 0.3118914453679324, 0.3123029782305479, 0.3127650083660752, 0.3132833965834719, 0.313842015373533, 0.31440580980761806, 0.3150632023926635, 0.31576305359236273, 0.3165700384700101, 0.3173436724065383, 0.3181277140563946, 0.31899032851166925, 0.31989116506582427, 0.32077740611310473, 0.3217573835455174, 0.32278759350160124, 0.3238272912032551, 0.32489769695672605, 0.3260234326800976, 0.3271485092664549, 0.328311566906354, 0.32949123255489127, 0.33069714889432744, 0.3318551676763217, 0.3331182413212172, 0.3344458452907632, 0.33573743509624987, 0.33704746704191535, 0.3383487740847532, 0.33969476504252966, 0.34100904209811156, 0.3423850745988762, 0.3437689938022024, 0.34518099778475975, 0.34657529029353756, 0.3480109418528217, 0.34941198328248546, 0.3508187194614247, 0.35224130578478563, 0.3536532887946888, 0.3550459115438729, 0.35646241576320886, 0.35787629376843594, 0.359304917292329, 0.3607070604107719, 0.3621082158694581, 0.36349691630808717, 0.3648772283277192, 0.36621954900617104, 0.3675822110977557, 0.3688532166968122, 0.3701958109444204, 0.371517381827313, 0.37292515692768474, 0.3741893183262827, 0.37534524977566336, 0.3765856463487284, 0.37784540452975096, 0.3790290880146535, 0.3801885316686965, 0.38132253369785707, 0.3824299089812945, 0.38349777461536616, 0.3845498932836075, 0.385571280785954, 0.3865210887428156, 0.3874830099646018, 0.38846751994110135, 0.38934939401783547, 0.39019721137392244, 0.39099807394603503, 0.39177575339432935, 0.39251763971202797, 0.39321778578101085, 0.393878025057211, 0.39446931205346875, 0.395050536568837, 0.3955758644662279, 0.39606959418673804, 0.3965172596198285, 0.3969277192225263, 0.39728052450512547, 0.39761435484925706, 0.39786882717083877, 0.3980766104948107, 0.39824628589566824, 0.3983571778466604, 0.3983985798922711, 0.3984145986636157, 0.3983796128583157, 0.39830721525808366, 0.398167072017792, 0.3979660226366607, 0.3977234972852157, 0.39742795440710943, 0.39706264947570363, 0.3966621455840315, 0.39617395986310483, 0.3956677223944135, 0.3951045311718581, 0.3945079840517644, 0.3938284072757389, 0.3930983325218626, 0.3923077355674735, 0.39146211714681467, 0.3905848491181877, 0.3896260743751223, 0.38858772000860753, 0.38752442289430106, 0.3864055847219041, 0.38522431199997953, 0.38399570787164106, 0.38273272452994594, 0.38139077580078495, 0.37999506958118856, 0.3785363511686688, 0.3770347061785869, 0.37549798938965245, 0.3738866469613642, 0.3722231766587105, 0.3705195004240316, 0.3687509576071527, 0.36692701012187273, 0.3650578634415678, 0.3631382675025304, 0.3611685996282064, 0.35914927799127805, 0.3570057814017542, 0.35489803971752304, 0.3527379153686512, 0.3505992077527075, 0.3483285844869053, 0.34597319312792524, 0.3436182031457643, 0.3412170252799303, 0.3387916248502984, 0.3362980390379929, 0.3337597432255192, 0.33118243536621755, 0.328564086441273, 0.32584456252005645, 0.32315421305224135, 0.32049446052399083, 0.31771218984615734, 0.3148945942042281, 0.31203063694569394, 0.30914595039095816, 0.3062133814790062, 0.30326371446618755, 0.30028123671706475, 0.2972763668836155, 0.29423022787209463, 0.291169020155741, 0.2880638395958997, 0.2849323174193686, 0.28175896087236585, 0.2785795838663753, 0.2753546666398609, 0.27213017014635094, 0.2688822823886875, 0.2656193329214787, 0.26232765918780504, 0.25900278576774255, 0.2556758084497557, 0.25233129965858603, 0.2489775952220351, 0.24560103737209335, 0.24217606632679578, 0.23877862089400456, 0.23536833602216803, 0.2319537150668107, 0.22852124488728418, 0.22507126319643697, 0.2216250074109758, 0.21817267901686796, 0.21471093080381412, 0.21125103773752232, 0.20778171293767947, 0.20431920109629093, 0.20085646053491954, 0.19747680139150464, 0.1940071138581411, 0.19052922179505516, 0.1870785650957039, 0.18363637049970088, 0.1801495545891464, 0.17673354974285166, 0.17331611908064729, 0.16991851215614345, 0.16653093133782884, 0.16322734038995723, 0.15985457463389594, 0.15643886176236493, 0.15311037735068855, 0.1497977535707296, 0.1465021878157584, 0.1432248462982992, 0.13994343474942986, 0.13670888474881132, 0.13349456835330928, 0.1303204720298773, 0.1271479296209559, 0.1240471159726983, 0.12091933682954913, 0.11782094017542079, 0.1147641752734614, 0.11172469018652392, 0.10867240245247109, 0.1057024826049461, 0.10276281611438226, 0.09984728356947127, 0.09697171430013157, 0.09411224934963944, 0.0913046499069808, 0.08853037113576044, 0.08583956748902521, 0.08312851103767203, 0.08039298256097584, 0.07776792382757167, 0.07517894774370878, 0.07266916732048044, 0.07014977624482815, 0.06768786964662202, 0.06524899676808911, 0.06285297025990964, 0.06046491896754007, 0.05815985823498335, 0.05590353668746758, 0.0536815707839799, 0.05150279869455405, 0.04939811297743893, 0.047303147109954445, 0.04515823242609489, 0.04316775040168794, 0.04121820419879748, 0.03933624617872918, 0.03746785054633093, 0.03572150687978954, 0.03393319468228633, 0.032194696626733486, 0.030477571102173414, 0.028841312593768383, 0.0272430307296919, 0.025702633865419523, 0.024209006540856625, 0.022750464390581326, 0.021351927753453317, 0.019924550171189465, 0.018627824836230045, 0.017373107944434044, 0.016219567456761032, 0.015043128015573573, 0.013995452913658566, 0.012901983029407723, 0.011859496199419641, 0.010771042843824845, 0.009840075015263528, 0.00897564532226418, 0.00812797159376304, 0.007306001355151, 0.006549335197965159, 0.0058355208605525505, 0.005155024567219103, 0.004527570050796076, 0.004014461783921381, 0.0034610350503865217, 0.002952928398419062, 0.002404908145177027, 0.0019954889714154664, 0.0016709595781680365, 0.0013315506642464505, 0.0010324927631185457, 0.0007450473999721154, 0.0005283732923454603, 0.00036966978258562135, 0.00022367396625900502, 0.00011486441410346607, 3.554888300737232e-05, 0.0, 1.562092625492564e-05, 4.689445388090025e-05, 0.0001125577482837797, 0.00023992018437887753, 0.0003683859670402492, 0.00048822184574530116, 0.0006880754920628567, 0.0009170630243668162, 0.0011932814149471648, 0.0014762017615484594, 0.0018365043594227265, 0.002168698674238007, 0.0025301121136860126, 0.0028773145647627133, 0.0032987826981540017, 0.0037926836088899873, 0.004253602527907202, 0.00473893443272505, 0.005301375251844832, 0.0058251780886674235, 0.006408103719576938, 0.006973903641342136, 0.007562711762221901, 0.008172893308683772, 0.008802916811847708, 0.00941385449465646, 0.010084068820560786, 0.01076794539074673, 0.011553607104935902, 0.0122508319262715, 0.01296872477230323, 0.013695750103184858, 0.014435982391570104, 0.015211440616534861, 0.015970977566831676, 0.016757458658566784, 0.017534645689948655, 0.018320659701574166, 0.019210237956349355, 0.019997860826224075, 0.020763164408503957, 0.021574035141201393, 0.02238997274284522, 0.02327762311545444, 0.024091289375063978, 0.024910202666184645, 0.02573277082530379, 0.02655753778243817, 0.027451118728024106, 0.028267800787138996, 0.029131330747507282, 0.029945460781959077, 0.030761400996803606, 0.03162669504997595, 0.032435215631986106, 0.033253171782188146, 0.03405902018865867, 0.03486239778645936, 0.03562210108044152, 0.036421603158208665, 0.03733454133979597, 0.03810116945206933, 0.03886497155263546, 0.039633799417717795, 0.04038637529122969, 0.04111150141069015, 0.041852889393510506, 0.04258460598905068, 0.04334812001043101, 0.044053128791268305, 0.044814570560644335, 0.045492126841813973, 0.046162672919634794, 0.04686489991109984, 0.04751311610301776, 0.048130138322526064, 0.048764735216419934, 0.04938829224084426, 0.05006114496748919, 0.0506532645321597, 0.0512081756908577, 0.05178485616988549, 0.05234937644979045, 0.05293186068176475, 0.053467280458747934, 0.05400787078119994, 0.05451838648496168, 0.05501794221815078, 0.055510890113160766, 0.055987018927194876, 0.05645873202847436, 0.05691094852680495, 0.05735191629821076, 0.05783781054136327, 0.05824905961395848, 0.05865925582731278, 0.05905311645359126, 0.059438722510974304, 0.05980182213004187, 0.060172208756842045, 0.0605051237652029, 0.060860527739828266, 0.06120539769657621, 0.06159881285962135, 0.06191673363537874, 0.062252397199681515, 0.06255606035329314, 0.062855584690249, 0.06315803101417382, 0.06344856783574021, 0.06367946607594965, 0.06397050785894307, 0.06425546864194097, 0.06455154045629054, 0.06482463893760591, 0.06512307087947014, 0.06538771249701053, 0.0656524973636599, 0.06592258720616577, 0.06618853755774522, 0.06647753896185521, 0.06674531132605552, 0.06701739262471135, 0.06728253471834192, 0.06756617074802075, 0.06791593695127215, 0.06820300127460549, 0.06850014429878293, 0.06873266463258153, 0.06906036040594456, 0.06936688763525262, 0.06971314573988235, 0.07006698345968973, 0.07043440004054435, 0.07080670532959162, 0.0711906806441399, 0.0715874963867936, 0.07199829903919613, 0.07241952734056156, 0.07286225141898507, 0.0733079589925064, 0.07378765382923083, 0.07428580145194644, 0.07480358801981532, 0.0753421700850325, 0.07591204971682795, 0.07649440303729249, 0.07710139712396738, 0.0776871593086662, 0.07835231710286876, 0.07905179822842229, 0.0797670139429055, 0.08051033442464751, 0.08130635302228587, 0.08210637355521223, 0.08294154297877346, 0.08380775728018179, 0.08470866245333186, 0.08564979774308931, 0.08662205047525315, 0.08759900992441257, 0.08865124025428064, 0.08974076287286305, 0.0908780274245884, 0.09204414895847983, 0.0931715602672013, 0.09443057169248466, 0.09572786668303548, 0.09711416333370573, 0.0984862487006344, 0.09990598151759973, 0.10136923140790424, 0.10287959586627757, 0.10438631116442199, 0.10599975260660185, 0.10765267575017029, 0.10936116492427894, 0.11111797405742581, 0.1129288466223217, 0.11478480745893414, 0.11670872657585855, 0.11866655845125233, 0.12069488212364707, 0.12275942499813876, 0.12488016016061354, 0.1269755000188616, 0.12922023877069522, 0.13152482799305984, 0.13387536951875542, 0.13628113099185185, 0.13873120897913593, 0.14125125381838624, 0.14384448297368624, 0.14647672029771963, 0.14916799083289545, 0.15187889364727045, 0.15469451479019666, 0.1575962095378359, 0.1605248107028186, 0.1635141105896663, 0.16652920640271002, 0.16964503668580272, 0.1728858094033503, 0.1761124279136604, 0.17940281478101686, 0.18268408174590753, 0.18611043321428225, 0.1896449300967088, 0.1931832767265215, 0.1967839186940934, 0.20038104213471447, 0.20411392804478207, 0.20792583704114448, 0.21177219155141688, 0.21567810739490378, 0.2195896232680891, 0.2236212094483233, 0.2277651952632419, 0.23190221262738236, 0.23609887018350265, 0.2403523893281218, 0.24466728695201734, 0.24900749442267964, 0.2534422600605303, 0.25793225652914104, 0.26239985984606995, 0.26700912288207684, 0.2716681835859127, 0.2763771819593122, 0.28113612760774864, 0.2859683406869862, 0.29082377623946015, 0.2957181039697086, 0.30067563033075856, 0.30568183239267216, 0.31071967493114877, 0.31582333406374347, 0.3210031114096583, 0.32619354772424075, 0.3314299054248249, 0.3366736277803764, 0.34200333559537355, 0.34735013953651633, 0.35276301187979897, 0.35821332940468237, 0.36372842325565824, 0.3692476412518313, 0.37479392553509394, 0.3803859781831754, 0.386011455597995, 0.39167617109368574, 0.39736392327676195, 0.4030044132353008, 0.40876067912542596, 0.4145398788680118, 0.4203693219386537, 0.4261883129673572, 0.4320806516192046, 0.43793541923871304, 0.44381222017262734, 0.4496342650139165, 0.45555919011660956, 0.4614613931203941, 0.467414429840347, 0.4733754896131422, 0.47934822993701, 0.48532156515850305, 0.49129045992155257, 0.497273525294846, 0.5032582953065404, 0.5092387182954783, 0.5152233316398366, 0.5212238551301743, 0.5271989342024914, 0.5331691903255943, 0.5391305404301949, 0.5450862060770075, 0.5510363235399437, 0.5569691520076406, 0.5628884410821356, 0.5687384567116216, 0.5746319428884299, 0.5805736062956919, 0.5864125476928267, 0.5922304069741324, 0.5979618214734594, 0.603739241063324, 0.6094694017712176, 0.6151856606995564, 0.6208670607600244, 0.6265589970251129, 0.632160307383369, 0.6377248514449646, 0.6432506592678446, 0.6487357761186463, 0.6541501457896697, 0.6595516328563628, 0.6649683419771731, 0.6702640824319059, 0.6755119880200797, 0.680663001944494, 0.6858146332633314, 0.6908742342860413, 0.6959148816859448, 0.7008933541139807, 0.70579421817384, 0.7106459614303141, 0.7154727008214964, 0.7201834112320225, 0.7248265936160454, 0.7294192538858062, 0.7339198155884209, 0.7383229759003029, 0.7426817170717771, 0.7469637777187047, 0.7511746519829015, 0.7552978710442171, 0.7593402405424571, 0.7633002134601642, 0.7671762673992204, 0.7709575328744348, 0.7746624679099802, 0.77825042715268, 0.7817798558612925, 0.7852161787237144, 0.7886707827465862, 0.7919034264472645, 0.7950015006540643, 0.7980576776507291, 0.801017435565706, 0.8038910800075861, 0.8066523468111567, 0.8092973916555634, 0.8118597535028608, 0.8143187622469229, 0.8166592774689785, 0.8189101531587997, 0.8210982835528756, 0.8231281580008608, 0.8250516029509095, 0.8268627828885756, 0.8285705860215383, 0.8301473759776625, 0.8316370909829868, 0.8330139492699038, 0.83428436175858, 0.8354327968066791, 0.8364834180068459, 0.8374007764898517, 0.8382037377976105, 0.8388799663698481, 0.8394538117346734, 0.8398945119982445, 0.8402365859832448, 0.8404603213163246, 0.8405796325411281, 0.8405645060455529, 0.840429130364187, 0.8401783090435576, 0.8398091351937925, 0.8393449648828486, 0.8387359399490385, 0.8379675993304514, 0.8371294839311392, 0.8361716408938342, 0.8351599985005193, 0.8339553902506368, 0.832607642410368, 0.83117639869557, 0.8296283539392213, 0.8279286174807198, 0.8261522327067734, 0.8242884560193658, 0.8222732076727316, 0.8201432133822286, 0.817931752826658, 0.8155695985435718, 0.8130750284440255, 0.8104932417675693, 0.8077997381897888, 0.8049530241269646, 0.8020435143302972, 0.7990572608889688, 0.795920695404083, 0.7926765517782046, 0.7893350988477663, 0.7858773487801053, 0.7822942830557125, 0.7786316967454747, 0.7748562854224798, 0.7709892029537819, 0.7670206173632055, 0.7629682841210247, 0.7587986990183714, 0.7544600147082413, 0.7501079656192721, 0.7456579746483982, 0.7411424402577093, 0.7364984935650832, 0.7318085453421269, 0.7269795331502912, 0.7220657166218781, 0.7169863577990363, 0.7119171681165353, 0.7068187864117847, 0.7015737312419624, 0.6962505663062716, 0.6908344761954002, 0.6853619584242736, 0.6797824688580213, 0.6741675796300473, 0.6684803331088254, 0.6628001634814864, 0.6569647486151567, 0.6510652658308765, 0.645108149835625, 0.6390921523020944, 0.6329321860543031, 0.6268142631202659, 0.6206071205742141, 0.6143779921437577, 0.6080932785844623, 0.6018024708012567, 0.5954084882547787, 0.5889997187205497, 0.5825134771678283, 0.5759878735294262, 0.5694153841029016, 0.5628178218036185, 0.5561297852164618, 0.5494728715726471, 0.5427826187856837, 0.5360873058809844, 0.5293345903454124, 0.5225316034888408, 0.5157353364024619, 0.5089174898644829, 0.5021109058490467, 0.4952531653412535, 0.48833575196341494, 0.4814603675312955, 0.47457365689350245, 0.46769915114044563, 0.4607944101510948, 0.4539031352457711, 0.4469926070512604, 0.4400843665270311, 0.43312418168169003, 0.42623363579645834, 0.4193552675234071, 0.4124765919497229, 0.4056083274150966, 0.3987715155133748, 0.3919285525330451, 0.3850991350005306, 0.37829525619442217, 0.3715133866569437, 0.3647625889578169, 0.35802992799293737, 0.3513093056004942, 0.3446375116598887, 0.3379970494702151, 0.3313337011198339, 0.3247690269516634, 0.3183181431417024, 0.311814021161312, 0.3053531546865887, 0.2989300796890701, 0.2925613126908984, 0.2862424549685645, 0.2799701497879063, 0.2737487824710533, 0.26752838818792196, 0.26142014936614094, 0.25537872195277583, 0.24937616500335938, 0.24343098720173398, 0.23750740404387724, 0.23168678889403432, 0.22597093433338314, 0.2202670371498933, 0.2146295219907471, 0.2090363012958386, 0.20353851223042138, 0.19814018959636964, 0.19277800308312923, 0.18748935931837246, 0.18220974071280438, 0.17707972100540298, 0.172086024443759, 0.1670956740621944, 0.16218493822940722, 0.1573617082426794, 0.1526118809680228, 0.14788601609963198, 0.14330941852985649, 0.13881354639281662, 0.13432928762569576, 0.13000721346943053, 0.1258191133230243, 0.12165190759362993, 0.11757070018373432, 0.11358098898289148, 0.10967355334162009, 0.10586867271642106, 0.10213703261209253, 0.09849578286656951, 0.09494293930395563, 0.09148380573421303, 0.08809949388634898, 0.08482514584471819, 0.08164159154445966, 0.07850697359007566, 0.07551123669052302, 0.07267500585234574, 0.06984930384080795, 0.0671176563900544, 0.06439311886390457, 0.061859775548531615, 0.0594593457921966, 0.057097565331257996, 0.054827375312612246, 0.052641585799910816, 0.05055493512343189, 0.04858697213027595, 0.046677663851872546, 0.044859964484394006, 0.043046609457369996, 0.04142135563270626, 0.0399232453523571, 0.03846265719191257, 0.037089417199387215, 0.03580303526507944, 0.03460296772969145, 0.033448787473624356, 0.03242455066875116, 0.03148246172252335, 0.03063147563923178, 0.029851161960994726, 0.029173112435563028, 0.028551758126571958, 0.028011249844067686, 0.027588065140545195, 0.027201443206796568, 0.026847782724431616, 0.026625327443202226, 0.026477265747530527, 0.02638383998013116, 0.026383852193987013, 0.026472781670389054, 0.02660978157220113, 0.026815974146063196, 0.027050279402214578, 0.027396118957994906, 0.027814452598788463, 0.028284333733214675, 0.028815761433034184, 0.029362995708837426, 0.03001943170931751, 0.030801400908607578, 0.03155843297142242, 0.03237257046747429, 0.033228032368250546, 0.03415299116661883, 0.035150187896984215, 0.036173171960610574, 0.03724525650783239, 0.038362290715515265, 0.039527457016433065, 0.040689329837396336, 0.041945787526782345, 0.04323964646750508, 0.04461169253240838, 0.04597080778500752, 0.047339616520209155, 0.04877107163780573, 0.05023284885257629, 0.05173971873139625, 0.05325515474356108, 0.05475471054775671, 0.056326255177588824, 0.0579181030779794, 0.05958736210939277, 0.06120796533943948, 0.06279140787398539, 0.0644552241163395, 0.0661309035754199, 0.06780754456110993, 0.0695035186727233, 0.07122021834593696, 0.07292622064040857, 0.07463893752486163, 0.07635169430066112, 0.0780655638529722, 0.07981865810995964, 0.08152455737498739, 0.08324036434566429, 0.08493913488315517, 0.08663273646394416, 0.08829101469509558, 0.0899717731140596, 0.0915742202982185, 0.09323619929564364, 0.09487847908619958, 0.09649058216704932, 0.09809128344559133, 0.09968470391958577, 0.10123480877503511, 0.10275979583738033, 0.10432156494872129, 0.10578421802773805, 0.10715558045806131, 0.10857326624573546, 0.1099578627469838, 0.11132218551743572, 0.11263508891991562, 0.1138814818842656, 0.11512476498604877, 0.11632756317014192, 0.1175567333483906, 0.11866668342184102, 0.1196991683288302, 0.12073224789676928, 0.12171999973302738, 0.12270103370793078, 0.12358945269775515, 0.1243749568851933, 0.12517566059265794, 0.1259236692822804, 0.12659467388643428, 0.12723762542782827, 0.1279083019093216, 0.12842667304293603, 0.12889181417855142, 0.12923910572138272, 0.12960179841298697, 0.12992497312004797, 0.13016317689323967, 0.1303407435384599, 0.1304358231476642