0.03070284508352192, 0.030498882638456706, 0.030329423660973038, 0.030166401074134326, 0.03005471765489571, 0.0299709736771783, 0.029895709727904025, 0.02983542335040767, 0.02978267315664466, 0.029746451081296317, 0.029737049050238364, 0.02971489203846572, 0.029700210914296383, 0.02966374123610115, 0.029664858692310433, 0.029675960386739822, 0.029683184239051075, 0.02969405356765931, 0.029690537516774262, 0.029710968815254712, 0.029721341646677876, 0.029749339838271403, 0.029780141219540902, 0.029774403580683496, 0.029817397871554012, 0.029858660991001772, 0.029907239221748684, 0.029959372377250517, 0.030033848626475783, 0.030093137551893977, 0.03011036915603292, 0.030189942913925325, 0.030274575759245165, 0.03034712953173043, 0.030446668510164775, 0.03057577430446638, 0.030686046757712967, 0.030805588147157482, 0.030902739848094187, 0.031046292694038743, 0.031198647178668874, 0.03136043923989039, 0.03153224388851963, 0.03170301026446802, 0.03189781357087156, 0.03208925450156501, 0.03230788487276053, 0.03253741329983583, 0.03275777390017752, 0.033013161865452285, 0.033289944881805554, 0.03356678568800609, 0.03385632516607665, 0.03416019521828687, 0.03447597532802566, 0.03482604116268374, 0.03516690119981134, 0.035523111953263325, 0.035866438287042085, 0.03625708129403749, 0.03665265734296149, 0.03707260253408182, 0.037506553530584276, 0.037940702687157, 0.0384054336174075, 0.03888302782831616, 0.03937660676182532, 0.039885008971913494, 0.04039186523519939, 0.040933036931642706, 0.041482632460902134, 0.042054739566955164, 0.04264214352057653, 0.0432259706507938, 0.043847609232722094, 0.04448203599555193, 0.045135203321255556, 0.04580451513863105, 0.04651097170483573, 0.04721122723631262, 0.04793125907527803, 0.04866850757083693, 0.049424664549622944, 0.05019217531143912, 0.05098760220759557, 0.0517428426166273, 0.0525838758130595, 0.05344097994054742, 0.05435983635417912, 0.05524537903388472, 0.05613209644601066, 0.057061142931680096, 0.05800985714926118, 0.058996535171718496, 0.05998317895572625, 0.06096818876458952, 0.0620008691108137, 0.06305395095127685, 0.0641161487591094, 0.06521233100905317, 0.06635862852939715, 0.06749248170948481, 0.06864914986503164, 0.06978494860491986, 0.07099286270572776, 0.07223409508064688, 0.07348170109706102, 0.07475123781854921, 0.0760184909166811, 0.07733559545077148, 0.07865969444737836, 0.08002121018924434, 0.08140372695408979, 0.08282691323850033, 0.08425009585656347, 0.08569379874564569, 0.08716358356955563, 0.08865648541097983, 0.09018672611348011, 0.09172429481530883, 0.09326667542705527, 0.0948547911778624, 0.09646575149738075, 0.09813948041227971, 0.09979127666092141, 0.10142587402156877, 0.1031331806778196, 0.10486273865897724, 0.10660305199532416, 0.10837877532451429, 0.11022510687435139, 0.1120382582134971, 0.11387606941792124, 0.11572275721740706, 0.11761079407687043, 0.1195409055655514, 0.12147190934489724, 0.1234264349993187, 0.12539129324298778, 0.127393506462664, 0.1293841420109537, 0.13143409303194623, 0.1335036397694587, 0.13557614291140954, 0.1376871786431927, 0.1398388389987312, 0.1419847504403827, 0.14415081378766575, 0.14632529366306107, 0.14853261188463948, 0.1507794554399964, 0.15302195909554198, 0.1552842981022389, 0.15753141898422685, 0.1598367920975042, 0.16221173249028756, 0.16454408061433765, 0.16689606141983868, 0.16925810674066558, 0.1716488051674403, 0.17404155562103737, 0.17646872123911989, 0.17891161871576972, 0.18134422298391684, 0.18382088561727775, 0.18635714443113696, 0.18885443650894476, 0.19136731330788037, 0.1938463321843208, 0.19639480611385163, 0.19896725670496862, 0.20153618721494326, 0.20411660309332283, 0.20668502435619673, 0.2092903010806223, 0.21189954521184637, 0.2145234808334686, 0.21715577497536584, 0.2198206080513827, 0.22246575113494643, 0.22511591315548554, 0.22777874628361552, 0.2304491351366723, 0.23311240956612936, 0.23579810567853046, 0.23848252716898932, 0.24117890557802513, 0.24387918042048323, 0.24660221031946541, 0.24930653745564488, 0.25201449558761946, 0.2547254384485822, 0.25743872117660427, 0.26017298491935154, 0.2628865793089479, 0.2655489563475055, 0.26827140803564214, 0.2709908230960829, 0.2737145799759167, 0.27642590308702414, 0.27910908111748994, 0.28181555867934965, 0.2845249298349732, 0.2872177171083689, 0.28990418179846994, 0.2926018327810038, 0.2952718818235378, 0.2979029368976953, 0.30056264470203387, 0.30321229729363297, 0.3058655971023111, 0.30849200102866875, 0.3110884498783899, 0.3136953147450833, 0.3162891456155015, 0.31885144695517253, 0.32141997132952366, 0.32400246012910744, 0.32653561627007455, 0.3290539546240551, 0.33153361137773335, 0.3340230758726804, 0.33652254840404117, 0.338971355505423, 0.34140239673381356, 0.3437698814522545, 0.3461687150802214, 0.3485860590698978, 0.3509340370700194, 0.3532608745224802, 0.3555207877145065, 0.3578086909969442, 0.360055187872847, 0.362292703894544, 0.3645025822503538, 0.3667449321577473, 0.36889090636462213, 0.37097685830142296, 0.37307569510103267, 0.37514549383323237, 0.3771535504211526, 0.3791676432001041, 0.3811826182855398, 0.3831270795271221, 0.38504020725993043, 0.3869419255133315, 0.3887878548030556, 0.39052326723536723, 0.3923141428613827, 0.39406698434539084, 0.39580483621712287, 0.3974783400282691, 0.3990966683726893, 0.4006976744158209, 0.4022596404786748, 0.40378998316492026, 0.4052719771056451, 0.40670025898645445, 0.4081044783789785, 0.4094674818666816, 0.4108120910031724, 0.41208875983232307, 0.41331293428661575, 0.4145086732563167, 0.4156617633121573, 0.4167666404646607, 0.41783382320340384, 0.41889538848709595, 0.41986895785517914, 0.4207997823343854, 0.42168462543445273, 0.42252833402103634, 0.4233324309509311, 0.42408546191326524, 0.42479302420710496, 0.4253980565865805, 0.4260203923667699, 0.426604284390035, 0.42712519258359266, 0.42759683888598127, 0.42803071788469266, 0.4284021417843046, 0.4287272774356852, 0.42900047390201046, 0.4292245995403627, 0.4293917588568665, 0.4295181879241956, 0.4295727561507346, 0.42960186356209573, 0.42957959580825916, 0.4295202106461539, 0.4293937384873642, 0.4291719983573149, 0.4289506470157614, 0.4286764527078846, 0.42835233897863195, 0.42797315599863145, 0.42755380392768944, 0.4270699213212943, 0.42653541683809054, 0.4259542656826272, 0.4253183852227802, 0.4246684563760619, 0.42392802626248927, 0.4231397699883157, 0.4222610877568542, 0.42138207120061544, 0.4204254690353125, 0.4194489946737546, 0.4184210204803773, 0.4173407770248574, 0.4162114884946905, 0.4150308174879955, 0.41380195888653243, 0.41252383763406264, 0.41120203954854223, 0.4098260617186636, 0.40842555201581543, 0.40695167925145886, 0.40543219045896206, 0.40389171163491816, 0.40227852676403286, 0.4005729227859655, 0.3988788713746827, 0.3971387339902052, 0.3953800837475233, 0.39354607907710126, 0.3916357868436816, 0.3897206350936516, 0.38776146920435184, 0.38576410078972917, 0.3837182545567694, 0.38167566320407764, 0.3795412492738291, 0.377368835162283, 0.3751098176623845, 0.37286838392575183, 0.37062053337851397, 0.3682959667728706, 0.3659349849358265, 0.3634802286853942, 0.3610552438601037, 0.3586333029007441, 0.35612795898520244, 0.35358886485959484, 0.35099737524881486, 0.34839515119892955, 0.3457343406273755, 0.3430704545122491, 0.34037391227544905, 0.3376444556010995, 0.3348858153277103, 0.33212572569463067, 0.3293049990949437, 0.3264580190286303, 0.32356361890238644, 0.32066897567312264, 0.317728385628496, 0.3147864898109066, 0.31181985038263466, 0.30885265251458366, 0.3058367014581102, 0.30277849677626356, 0.2997252946867489, 0.29665203298030385, 0.2936046724885586, 0.2904884732032882, 0.28738457557628816, 0.2842361225519776, 0.2810756286772796, 0.2778559251288547, 0.2746786193233024, 0.27145196370554686, 0.2682534368596976, 0.2650413917424532, 0.2618337470314789, 0.2585961252503363, 0.25535712897352725, 0.25210130965022876, 0.2488387288352867, 0.2455946774866045, 0.2423180710207436, 0.2390065090281721, 0.23572899118824614, 0.2324481818204314, 0.22921388509945914, 0.22592314766412785, 0.22258194949042193, 0.2193028898849838, 0.2160241806807077, 0.21276739385536, 0.20948976441149814, 0.2061831446657383, 0.20291938134062876, 0.19965971168256716, 0.19645273943189207, 0.19319831200719234, 0.1899420799960828, 0.18670920439356228, 0.18348657824918235, 0.18031345774094243, 0.17710851723396168, 0.17390906024583083, 0.17073460724948178, 0.16753765380352909, 0.16439800965421603, 0.161272132491543, 0.1582045992324878, 0.15510330051900978, 0.15198346429540102, 0.1489248193624118, 0.14588374522801376, 0.14286874471842007, 0.13986418249626975, 0.13688249929840796, 0.13391889272881682, 0.13097705704744897, 0.1281270383767144, 0.12522181998613424, 0.122344102960072, 0.11949392088560076, 0.11667136607726064, 0.11385086940785466, 0.11108729688537812, 0.10841732314201653, 0.10569925592652656, 0.10301262525804399, 0.10033036749348416, 0.09770989433008528, 0.09513990680775572, 0.09257698827120246, 0.0900458055841742, 0.08758640220485261, 0.08511424658891652, 0.08266771305050023, 0.08026588120903218, 0.07789810695699632, 0.0756223635806679, 0.07331577896671711, 0.07105466167514007, 0.06882234431015424, 0.06662776022522118, 0.06447715269139494, 0.06235673213614062, 0.0602663220472611, 0.058222257364507445, 0.056215394709821016, 0.054280527230171995, 0.052343946982399976, 0.0504995421255, 0.04863508843828302, 0.04681283117490267, 0.04503101120221219, 0.04329197468037553, 0.041649171539030014, 0.039984808756426446, 0.03836407953396971, 0.036791546932769405, 0.03525579086156556, 0.033784347151415685, 0.03233036942561423, 0.03091940045571054, 0.029538162793211836, 0.028213645339934916, 0.026966354572875877, 0.02571961033444656, 0.024515882343429555, 0.02337794861915741, 0.022256292599652738, 0.02121787719230309, 0.020177549204481518, 0.019182093656025943, 0.018230893466694823, 0.0173234132207512, 0.016481044723077504, 0.015656909787372653, 0.014876504912190945, 0.01417406274884069, 0.013475349451324614, 0.012850616881006442, 0.012236384015711683, 0.011667089129035042, 0.01120116758948801, 0.010712241574084515, 0.010272272166371945, 0.009874833857863719, 0.009522124198105327, 0.009246807482610005, 0.008977132393885989, 0.008748180525164594, 0.008567364029227358, 0.008429426489291316, 0.008367213023088987, 0.008309129805216925, 0.008327678803273564, 0.00835110800008068, 0.008418352221255542, 0.008547900585731143, 0.008698041647824025, 0.008865244981394831, 0.009103480569777965, 0.009381714761607854, 0.009766452253454511, 0.010115219379675609, 0.010490078587890327, 0.010925775316475615, 0.011401837748311574, 0.011943483215779269, 0.012495589980631189, 0.013112592260079296, 0.013741977996121991, 0.014412123611948756, 0.015118516461109404, 0.015868771167096573, 0.01669251278330686, 0.017515484809567956, 0.018378337102615126, 0.019258571649787743, 0.020202088456719405, 0.02120180915127295, 0.0222164359285893, 0.023268507463079804, 0.02435762170708008, 0.025483412316063072, 0.026649400942825675, 0.027847077607567546, 0.029080718170777235, 0.030407880763813067, 0.03170526682329366, 0.03299732357723371, 0.034376296052420645, 0.0357898570407708, 0.03726092808341968, 0.038740092678382014, 0.04026480658572109, 0.04181282657955837, 0.04339597431530099, 0.0450537088584137, 0.046700919529239625, 0.04839597848024225, 0.050113658845440064, 0.05186708643828944, 0.053614528105617655, 0.05544293849372552, 0.05735076348553355, 0.05923676044890532, 0.061157097474705456, 0.06308816921192234, 0.06507877197038686, 0.06713845540551111, 0.06918779655647561, 0.07127075803849178, 0.07336249673407824, 0.07551458757107309, 0.07773253053088999, 0.07994242022241368, 0.0821852249353037, 0.08442459463506453, 0.08673676753111559, 0.08908018710876942, 0.09145217038616127, 0.09385428278547799, 0.09633155136979223, 0.0987883166670144, 0.10123667232154947, 0.10376375862398243, 0.10632062266675588, 0.1089587573664299, 0.11156886832006088, 0.11420025250386782, 0.11687714904536337, 0.11958555523997388, 0.12233042887390816, 0.12510067576545233, 0.12788809987188826, 0.13072261800880403, 0.1335873746108784, 0.13649008714363478, 0.13941436120024803, 0.1423449047470686, 0.14533361604114817, 0.14835157415809053, 0.15142594968715184, 0.15449948782933293, 0.15757340228054942, 0.1607132172146563, 0.16388237051039187, 0.16709904908589507, 0.17032514791423006, 0.1735641047043908, 0.17685418496109165, 0.1801740989039859, 0.18351756143175169, 0.18689836984287125, 0.19028332348282417, 0.19372725260940024, 0.1971998851334032, 0.20069640373349654, 0.20422802846771967, 0.2077940683202931, 0.2113838437054971, 0.21500365667182159, 0.21863436988942742, 0.22231711499156512, 0.22606518733503606, 0.2298022773250664, 0.2335711569980602, 0.23731513748396008, 0.24115439438093353, 0.24508106337993732, 0.24896973837198455, 0.2528867983984325, 0.25684022240515164, 0.2608252433852493, 0.26480056052683004, 0.2688535066958961, 0.2729404307208606, 0.2770505926394546, 0.2811902343596021, 0.2853221590445458, 0.2895257112103008, 0.29376326889830723, 0.2980214818724126, 0.3023082145266812, 0.3066557676951968, 0.3109959141878649, 0.315353888902464, 0.3197568209507973, 0.3241892986631303, 0.32863321897856984, 0.33312673935315557, 0.3376574458930744, 0.3422062065356149, 0.3467836399834467, 0.3513381973704743, 0.3559790942403832, 0.3606582189406125, 0.3653484780064281, 0.37006525506145477, 0.37478671116801754, 0.37955929725347226, 0.38438924547733305, 0.3892082867617172, 0.3940544530972671, 0.3988528915882671, 0.40376186701532424, 0.4087468839203066, 0.41369339513012787, 0.41866544415522977, 0.42364342197757987, 0.428667994276652, 0.43370056883626656, 0.43877373196722846, 0.44386898503421074, 0.4489373110590553, 0.45408238926682737, 0.4592654819261106, 0.46444568665590497, 0.4696458302106283, 0.47484898879589715, 0.48009044146783614, 0.48531540335430023, 0.4905974725206466, 0.4958953272539408, 0.5012140659228814, 0.5065426274128132, 0.5119126064334127, 0.5172690174842258, 0.5226419033651026, 0.5279972151440744, 0.5334053902958686, 0.5388378084169854, 0.5442694538380382, 0.5497135491125729, 0.5551334969390112, 0.5606052162587402, 0.566097051317446, 0.5715840048304153, 0.5770793082151053, 0.5825399361384735, 0.5880554692235056, 0.5935647791388546, 0.5990893746447391, 0.604616659282784, 0.6101372175389793, 0.6156697010757236, 0.621193919496794, 0.6267284766317942, 0.6322621359845948, 0.6377788929641186, 0.643310918164059, 0.6488572774559617, 0.6543790838139489, 0.6598969504555481, 0.6653418682704794, 0.6708578319510539, 0.6764044765143149, 0.6818939150219832, 0.687374305596136, 0.6928164588953548, 0.6982795828032231, 0.7036945512280796, 0.7091344142919681, 0.7145573070927546, 0.7199716469634934, 0.7253576388558735, 0.7307316274092093, 0.7360790839088994, 0.7414067052014429, 0.7466800672053843, 0.7519692234154701, 0.757209164175804, 0.7624510253800257, 0.7676650592651189, 0.7728106982027896, 0.7779719123600026, 0.783156014590596, 0.7882448774404344, 0.7933032181878263, 0.7982694316063403, 0.8032708158020982, 0.8082218531274676, 0.8131491545429484, 0.8180367215977977, 0.8228709466176438, 0.8276783515393557, 0.8324801422928322, 0.8371962153608659, 0.8418697824824803, 0.846455903288104, 0.8510462943501509, 0.8555918818132383, 0.8600835747795934, 0.8645250012149538, 0.8689074452153083, 0.8732462792607911, 0.8775261838041256, 0.8817570814744823, 0.8859318541113448, 0.8900340587265824, 0.8940954652901824, 0.8981057755813584, 0.9020449095838666, 0.9059225411693643, 0.9096861821073441, 0.9134441162168803, 0.9171704515477267, 0.9207879748402054, 0.9243385392234121, 0.9278005235569449, 0.9312166167623713, 0.9345190141637284, 0.9377970483840595, 0.940999646891902, 0.9441416655767452, 0.9471896752529956, 0.9501792528518184, 0.9530712971195117, 0.9558862506432114, 0.958593545310384, 0.9612550723360888, 0.9638631726997664, 0.966356978097631, 0.9687691988865541, 0.9710512911121496, 0.9733034544818884, 0.9755212170579859, 0.9775919659945453, 0.9795774877652083, 0.9814523647369159, 0.983267588765763, 0.9849496473742932, 0.9865908114557277, 0.9881387203604283, 0.989645782136131, 0.990999576534292, 0.9922479411698604, 0.9934201523005092, 0.9944987295613801, 0.9954444995590374, 0.9963388981069674, 0.9971781857459743, 0.9978719253869928, 0.9984700565667183, 0.9989475704042038, 0.9993558666172501, 0.9996256969427998, 0.9998415376402937, 0.9999559960030814, 1.0, 0.9999079850630175, 0.9996740423542375, 0.99938815617824, 0.9989999430288793, 0.9985699803995646, 0.9979699104070857, 0.9972777382384732, 0.9964794205173934, 0.9955822410221457, 0.9945845985767469, 0.9934889702683356, 0.9922949210549801, 0.9909995813495205, 0.9896043867507245, 0.9880951491876181, 0.9865019439648772, 0.9847630992446055, 0.9829745088973251, 0.9810831989565495, 0.9791219406594418, 0.9770230024521429, 0.974841710967886, 0.9725428653787206, 0.9701170288150629, 0.9676273434225032, 0.9650391505512027, 0.9623607560282893, 0.9595763624305576, 0.9567008556178422, 0.9537238761007002, 0.9506521070701017, 0.947468136028023, 0.944210855204249, 0.9408673431113317, 0.9374220220476893, 0.9338848525555415, 0.9302874811664046, 0.9265651098511869, 0.9227203532178503, 0.918827640368667, 0.9148465920207209, 0.9107666393095092, 0.9066134043015047, 0.9024218066137373, 0.8980918376473445, 0.8936809013881702, 0.8891473481124733, 0.8845822291667785, 0.8799285469258855, 0.8752039846008197, 0.8704007059251543, 0.8655084951826337, 0.8605533130832247, 0.8555549765075826, 0.8504465954920707, 0.8452676301323029, 0.8399948430325554, 0.8346813988745725, 0.8293228043144525, 0.823871327310092, 0.8183558156160468, 0.8127467141518916, 0.807110965465087, 0.801421153044732, 0.7956625069338605, 0.7898457775478371, 0.7839982412000361, 0.7780667905137032, 0.772094980548562, 0.7660595849247244, 0.7599756993552811, 0.7538459610788941, 0.7476690295000757, 0.7414002877171342, 0.7351423455404024, 0.7288404409664413, 0.7224771942066457, 0.7160954994616092, 0.7097117052560392, 0.7032485405245128, 0.6967520748309969, 0.6902085317585527, 0.6836523811876686, 0.6770606255529905, 0.6704487437011354, 0.6638109377848826, 0.6571516298005972, 0.6504671919890656, 0.643771494959619, 0.6370472027373973, 0.6303067535944291, 0.6235364382950844, 0.6167707861093652, 0.6100177068949291, 0.6032271113444565, 0.596429727396572, 0.5895744760415617, 0.5827750908928702, 0.5759618940683982, 0.5691561116412626, 0.5623491449313797, 0.5555456396438005, 0.5487421548938186, 0.5419321434879641, 0.5351421318687329, 0.5283603235571105, 0.521627235374122, 0.514862757198179, 0.5080732258624673, 0.501347645732972, 0.4946388911968613, 0.48794239379591237, 0.48127364329948, 0.4746756764344204, 0.46804640773947287, 0.4614453732392223, 0.4548083380919852, 0.4482760766756823, 0.44183412113690795, 0.4353531413704446, 0.428907950555043, 0.422497262329521, 0.41612783943959647, 0.40979022960136097, 0.40350216363242886, 0.39725584668368824, 0.39102052423788936, 0.3848659171736495, 0.37875537751017296, 0.37269050994286057, 0.36667287142858374, 0.36068211717033294, 0.3547661901541484, 0.3489379534868712, 0.34311968579799146, 0.3373569770677992, 0.3315866870245696, 0.3259466332128255, 0.320381188678441, 0.31485094903614236, 0.30938023879040955, 0.3039767714541421, 0.2986281083514152, 0.2933198881364997, 0.28810239747756083, 0.2829493060513969, 0.2778759383604513, 0.2728533426648636, 0.267880020440641, 0.26299787274712433, 0.25818494878146214, 0.25343579226717844, 0.2487649885662468, 0.24420693968252313, 0.23967502626503678, 0.23521870916526813, 0.230801131153154, 0.2265019920065274, 0.22226732343180522, 0.21811969083437932, 0.21404757463554888, 0.21009407818036233, 0.20616960371271323, 0.20233003065080035, 0.1985645955997236, 0.19487954469760974, 0.1912287084311291, 0.1877106132435361, 0.1842821960571548, 0.18091931235682143, 0.17763604669030486, 0.17444936471545094, 0.17132393643244567, 0.16823341223828453, 0.16527620583509928, 0.16239755678321954, 0.15958364417655363, 0.15686479161186562, 0.15422446009254706, 0.15166288556463883, 0.1491802305011227, 0.14680615836119934, 0.14447781909215263, 0.14220700679972223, 0.14004260320205375, 0.13795688918936355, 0.13595224450104237, 0.13402296194361224, 0.13214608407069808, 0.13037593861181523, 0.128681729882207, 0.12711080764002025, 0.12556173828920483, 0.12409172219899328, 0.12269725061253517, 0.12137906571264963, 0.12010166148650007, 0.11893805345272154, 0.11784381532646515, 0.11682388044143784, 0.11587462978281815, 0.11499932103308487, 0.11418911127711893, 0.11343116690504147, 0.11276027799615825, 0.11215589775378025, 0.1115890633186991, 0.11111919486420857, 0.11070950521400179, 0.11036488073751403, 0.11008163294610976, 0.1099002142830727, 0.10973239388339015, 0.1095707382503837, 0.10953162023221472, 0.10954847595789137, 0.10966812459473153, 0.10978860237919276, 0.10993315418874079, 0.11016882565757923, 0.11045630746778103, 0.11079584305185998, 0.11118362355460254, 0.11162263551795522, 0.11210626812894912, 0.11266339366775815, 0.11323539144157839, 0.11385296183661509, 0.1145120735088499, 0.11521674657013739, 0.11596507515309731, 0.11675018574335536, 0.11757371963348388, 0.1184419763518958, 0.11933714608276887, 0.1201949546349764, 0.1211670420498507, 0.12216682525605348, 0.12319859411054304, 0.12425049908214848, 0.1253842209095589, 0.1264784097048659, 0.12759886193282763, 0.1286835631709238, 0.12985944130587512, 0.13107792711663785, 0.13228604525583862, 0.13351161077881998, 0.1347173221953657, 0.13597841757226037, 0.13725101179147306, 0.1385340753530937, 0.1398265404607162, 0.14114401930048795, 0.14244984145014325, 0.14376518772071206, 0.14508327988744185, 0.14640584733617004, 0.14771741670707592, 0.1490467340841245, 0.1504130391550952, 0.15173585075245927, 0.15305805418767637, 0.1543717130696715, 0.15568902451064026, 0.15698423539760445, 0.15829153247330857, 0.15958982269913957, 0.16087279380930886, 0.16215021873236374, 0.16341486183884532, 0.1646656196391593, 0.1659013938980074, 0.16715066312520385, 0.16834946535733603, 0.16950598202956235, 0.17067358946142644, 0.17182062088209335, 0.172962776205905, 0.17406351385225388, 0.17511461141141216, 0.17617237105774997, 0.17720378784751528, 0.17819903232917095, 0.1791764144250738, 0.18011032710775157, 0.18103009925028743, 0.18191826250141796, 0.18283847035926168, 0.18365339092210708, 0.1844268257117135, 0.18518221401553459, 0.1859047710356371, 0.18659354852246252, 0.18724764376473144, 0.18784434160868604, 0.1884293003847941, 0.18897589700039708, 0.1895247097968897, 0.1899877086753279, 0.19039373039273777, 0.19078293977563088, 0.19113174781074552, 0.19143315368902133, 0.1917002879607424, 0.19197132655554922, 0.1921474288948221, 0.1922829313844956, 0.192375805135681, 0.1924281121726738, 0.1924312989334346, 0.19239850280602563, 0.19232164771572627, 0.1922260783500698, 0.19205679407782195, 0.19184520689024664, 0.19158813612339906, 0.19128671982903833, 0.1909354830798213, 0.1905450867352206, 0.19013751329052206, 0.1896524897458252, 0.18912337861512946, 0.18853576553941181, 0.18791951735518805, 0.18727062301946862, 0.18656177175615968, 0.18580823469012636, 0.18502544144765265, 0.1841806360381374, 0.1833230141889101, 0.1823869779599977, 0.18140908629500624, 0.18041364091153184, 0.17934865224840832, 0.17825846191466097, 0.17711016196654777, 0.1759219819386776, 0.17468486329240082, 0.17341797267452666, 0.17215963321773026, 0.1708062161204358, 0.16941581211545123, 0.16801154199827661, 0.1665442744399684, 0.16507239997641887, 0.1635303709684105, 0.16195483921318032, 0.16033938101309295, 0.15869778216011196, 0.1570483719194304, 0.15533683486085226, 0.153594016726078, 0.15183693245092153, 0.15003043191130233, 0.14827574593764437, 0.14640104990452757, 0.14450261693781677, 0.1425520764002038, 0.1406096343170282, 0.13866774992629494, 0.13667228712989654, 0.1346542733462463, 0.13268876092544235, 0.13061775997850372, 0.12851981977977442, 0.12641693694748718, 0.12429721237470015, 0.12217911532625221, 0.1200249423958689, 0.11788363745563292, 0.11569838476371115, 0.11350179578175833, 0.11132912886140216, 0.10910721245310076, 0.1068945383475992, 0.10465609235854229, 0.10241226710179632, 0.10015336150553784, 0.09790192725530948, 0.09566713831456689, 0.09340617753613334, 0.09114435125132958, 0.08891080780899063, 0.08664632908881066, 0.08443034234132668, 0.0821679645931127, 0.07991327992051149, 0.07768871524544362, 0.07544846395689796, 0.07319598600050879, 0.07098114684243036, 0.06877732447165917, 0.0666292391569151, 0.06444499281736439, 0.062299225128277166, 0.06014623309286765, 0.05801270608503446, 0.05589808770122127, 0.05380591620266525, 0.05173425550094563, 0.04968677645033817, 0.04766294317942953, 0.04574093012432238, 0.04375777429206106, 0.04182893485357453, 0.03990570092478644, 0.03801603248762526, 0.03612313652850276, 0.03430688149168544, 0.0325225616885143, 0.030773953824494247, 0.029060606096658913, 0.027420901647305904, 0.025776672217587254, 0.024179560200920575, 0.022616726818905794, 0.021096644610145616, 0.01964459368548711, 0.018209517619954013, 0.016837931650694415, 0.015495036953818483, 0.014201381607158066, 0.012967935193128985, 0.01177355698882511, 0.01062475022147849, 0.009535901988654444, 0.008500164418189939, 0.007532514937054038, 0.0066037338315830104, 0.0057622662307648485, 0.004943260189363258, 0.004187840962205327, 0.0034883530226261193, 0.002849944290659721, 0.0022899180141054453, 0.0017733553870079243, 0.0013180965844583215, 0.0009301417829497713, 0.0006070143673888547, 0.00031204061824270624, 0.00012512967042943704, 6.454203494696369e-05, 0.0, 5.395219153129813e-06, 4.511501068047447e-05, 0.0001961216110720386, 0.0004175677269551067, 0.0007074634369091441, 0.0010680498243620068, 0.0015347258533866548, 0.002034340407249004, 0.0026188673599079424, 0.003266771281609364, 0.003990560045775596, 0.004728790426299696, 0.005612967925535401, 0.006603830855879345, 0.007631087990057741, 0.008734997231917547, 0.009887676593559151, 0.01114965166987441, 0.012491689953051615, 0.013906152670761746, 0.015398111997733418, 0.016971855593346838, 0.018619569202018304, 0.020329445956624382, 0.022137300208563807, 0.024023606447532715, 0.02604013017643913, 0.028077806918776784, 0.030160409722342327, 0.03236700475266666, 0.034653294359818364, 0.037032232844378815, 0.03947654487194459, 0.04202074860318529, 0.04462373031176534, 0.04730817094188337, 0.05006605823828243, 0.05291349696504105, 0.05581920827281355, 0.05882942478420857, 0.061918043596512505, 0.06511068182389475, 0.06835252908744607, 0.07160954068953605, 0.07501799856355096, 0.07850146569388773, 0.08207802912946408, 0.08570942780705162, 0.08943874588932957, 0.09321924114277327, 0.09707645024693183, 0.10093656540080335, 0.10495487384069681, 0.10911872323859581, 0.11326956208728622, 0.11749549304802674, 0.12175590015219447, 0.12613476957043276, 0.1305726319443867, 0.1350936396307921, 0.13968361084419018, 0.1443240974745848, 0.14905287209992946, 0.15381595800828862, 0.15868124999600125, 0.16361022657546884, 0.16864886062307252, 0.17369833854429825, 0.17879235082873826, 0.1839737243234436, 0.18921719956877806, 0.19455541717436384, 0.19991647299024937, 0.20528246890985144, 0.21077253467451956, 0.21631861758477047, 0.22191744585307177, 0.22757373094729544, 0.23326176848821828, 0.23902719980588955, 0.2448432984309635, 0.25070417456987176, 0.25661995555887646, 0.2625669826965397, 0.2685799226907773, 0.27463808574252024, 0.2807650612744901, 0.28690800847089737, 0.29307429202790575, 0.2993064564343573, 0.30557895845781285, 0.31188687048181224, 0.3182372860276172, 0.32464250121955907, 0.3310631005133705, 0.33751919584304696, 0.34398887053102906, 0.3505145122019047, 0.357053720476572, 0.36364083318395246, 0.3702548569745951, 0.37688824537349613, 0.383553511229414, 0.39022000573400384, 0.3969330340406469, 0.403665545227432, 0.4103946230853747, 0.41716563341978, 0.42395671840978555, 0.4307559240262535, 0.43756825563563323, 0.4444028296451216, 0.45123656569836257, 0.4580276692523889, 0.4648868679119062, 0.47175044833431484, 0.4786277250746381, 0.4854957906666126, 0.4923489991046293, 0.4992216602173663, 0.5060927430821472, 0.5129469421369067, 0.5198131223688222, 0.5266758850499406, 0.5335285963244966, 0.5403730874570902, 0.5471618069767598, 0.5539918752456023, 0.5608380903822024, 0.5676338650595781, 0.5744146484229639, 0.5811880957085456, 0.5879337066588691, 0.5945913198118311, 0.6013070997597184, 0.6079974827081311, 0.6146577061258562, 0.6212949991407886, 0.6279243399410172, 0.6345009354392372, 0.6410480117623095, 0.6475192644890656, 0.6540090567202598, 0.6604821270208355, 0.6668964869430364, 0.6732739106717096, 0.6795861696776949, 0.6858894269650653, 0.6921054948970601, 0.6983290022134981, 0.7045056454145222, 0.7106153811570033, 0.716698389515072, 0.7227528331624946, 0.72873145148819, 0.7346592417873434, 0.7404824127668251, 0.7463119474368832, 0.7521075272847205, 0.7578192252339865, 0.7634736259546331, 0.7690838486849788, 0.7746187742134623, 0.7800734905885274, 0.7854905463631767, 0.790844426977263, 0.7961186878720723, 0.8013451069728094, 0.8064709769388843, 0.8115664616353606, 0.8165910987993947, 0.8215493545696206, 0.8264295754962531, 0.8312460898487626, 0.8359789381362109, 0.84063792275474, 0.845214404391293, 0.8497238610054552, 0.8541408205854087, 0.8584972350952842, 0.862774006300813, 0.86692026699428, 0.8710419009382069, 0.8750878709612864, 0.8790386975987221, 0.8829046312611951, 0.8866684520522242, 0.8903651676031646, 0.8939783171146083, 0.8974992646615172, 0.9009488227465912, 0.9042909363063738, 0.9075448422880866, 0.9106738719508977, 0.9137539148505563, 0.9167957539602722, 0.9196842282178801, 0.9224828352326709, 0.9251162021947883, 0.9277421322276528, 0.9302910118970937, 0.9327217571542205, 0.9350570635074017, 0.9372657828341124, 0.9394132322826013, 0.941465199368011, 0.9434161722630708, 0.9452691224569234, 0.9470676525058457, 0.9487186895539494, 0.950214656082943, 0.9516808240854491, 0.953046814275167, 0.9543628410827217, 0.9555223396553363, 0.9565897884106077, 0.9575538813674676, 0.9584203739207718, 0.9591298017953334, 0.9598076447986574, 0.9603773054445691, 0.9608527386923713, 0.9612266109056132, 0.9615442264888103, 0.9617101914307626, 0.9617574273642241, 0.9617295861590156, 0.9616022928708307, 0.9613718460261629, 0.9610466203122382, 0.9606248175677755, 0.9601012119376047, 0.959479102051634, 0.9587317434186345, 0.9579168214632316, 0.9570477016542778, 0.9560292324630639, 0.9549151546084214, 0.9536927757325895, 0.9523896436965311, 0.9509663799336014, 0.9494753245975147, 0.9478880142907257, 0.9462436644759985, 0.9444609068971439, 0.9425345771496048, 0.9405743755408722, 0.9385198789394574, 0.9364143612726763, 0.9341684422787567, 0.9317919824984772, 0.9293729491132396, 0.926863214382729, 0.9242649563992498, 0.9215763289955917, 0.9188318791565622, 0.9159641353532038, 0.9130119845758685, 0.9099696230634926, 0.9068513829075342, 0.9036066493904817, 0.9003291590944162, 0.8969680317629916, 0.8935321700927862, 0.8900063407978016, 0.8864458182489948, 0.8827559977086001, 0.8789911703896626, 0.8751520536122133, 0.871239411563698, 0.8671974836489075, 0.8631474086333147, 0.8590231782052592, 0.8548415982653341, 0.8505712179507375, 0.8462560451531671, 0.8418453328016294, 0.837369166156913, 0.8328401215738127, 0.8282346285686658, 0.8235635748545825, 0.8188361562138895, 0.8140488417194726, 0.8091590137905987, 0.8042607452795992, 0.7993472032871265, 0.7943269589850008, 0.7892532055751423, 0.7840730768237018, 0.7789025532460925, 0.7737291042042851, 0.7684477510172544, 0.7631193975857226, 0.7576963678613015, 0.7522837520594516, 0.7468365741308877, 0.7413318699948909, 0.7357849343728942, 0.7302384007358881, 0.7246062669865586, 0.7188872300117138, 0.7131917762885562, 0.7074602572608599, 0.7017405661480006, 0.6959358706187919, 0.6900600427288975, 0.6842044746572719, 0.6783201988312677, 0.6723869309591536, 0.6664526999600306, 0.6605060528859432, 0.6545213482844446, 0.6485154512510887, 0.6424718885588708, 0.636430443606484, 0.63038803925997, 0.6243107608245353, 0.6182199679951595, 0.6121415212847459, 0.6060249022405, 0.599888843970735, 0.5937591648805725, 0.587623413097258, 0.5814636437853642, 0.5753222067894073, 0.5691750687478487, 0.5630291962810868, 0.5568830282300224, 0.5507766162661178, 0.5446294073248663, 0.5384768856471903, 0.5323447730681408, 0.5262205256413027, 0.5200925383049942, 0.5139894059106641, 0.5078997558179744, 0.501819485247363, 0.49575298767008524, 0.4896771555726663, 0.48364524232429507, 0.47765023154455927, 0.47164986748426013, 0.4656699267790886, 0.4597116620010678, 0.4537763150947246, 0.4478085482790762, 0.44192987055183736, 0.4360745934342855, 0.43024693773806233, 0.4244430160055744, 0.4186622424522736, 0.4129169884540965, 0.40720255586879645, 0.4015486046913525, 0.3958963150580217, 0.3902958405661278, 0.3847153817015451, 0.37917417688968036, 0.3736280856440276, 0.3681736525560309, 0.3627932378907454, 0.35741424846731285, 0.352078907615931, 0.34671992601392515, 0.34148304089877224, 0.3363425051445807, 0.33118486977224726, 0.32607528486616044, 0.32100168277810176, 0.3159921778851997, 0.31104004285370773, 0.3061297263402003, 0.3012711751771571, 0.29641112830264627, 0.29166512586124854, 0.2870201531332569, 0.28237070533781444, 0.27777711982230535, 0.27318854367068174, 0.26871489156638567, 0.26429075355232146, 0.25992801124333026, 0.2556214633473837, 0.25136682707158936, 0.24717583487444342, 0.24304057243786836, 0.23896723241828927, 0.23495344258449166, 0.2310036962650614, 0.22711037628431027, 0.22330429251742853, 0.21953122707325357, 0.21582200745763067, 0.212174239280143, 0.20859355796949625, 0.2050770805601493, 0.2016249747641819, 0.19821425253975855, 0.19489426245296781, 0.1916377621951276, 0.18849004433860944, 0.18535567994691193, 0.18220196199581432, 0.17921188080875516, 0.17628340512140947, 0.17347363652519815, 0.1706627375842711, 0.16788841150891912, 0.1652133902632269, 0.16260255069120802, 0.1600623946458467, 0.15757928690183054, 0.15517239669611774, 0.15281702866842348, 0.15052674797364274, 0.14830774535828756, 0.14614610002718353, 0.14399257917679384, 0.14196714001029803, 0.14000254542007803, 0.13810147022449154, 0.13625848315391165, 0.13447917033372933, 0.1327579595241783, 0.13109773554226734, 0.12954712876093702, 0.12800198634247434, 0.1264889207970521, 0.1250728098128295, 0.12371644417776316, 0.12241293460569046, 0.12117546770253942, 0.12000879463897109, 0.11888510482752432, 0.11781910396215055, 0.11680116663366637, 0.11584979332016555, 0.11496912198958854, 0.11412576042614457, 0.11333734699395757, 0.11259798994411649, 0.1119178724712193, 0.11129015701896453, 0.11071412418774773, 0.11018904420152442, 0.10971289119069187, 0.10928764831488695, 0.10885317960727889, 0.10853174689528035, 0.10825416023379895, 0.10809466673971478, 0.10789431291750606, 0.10765597338112755, 0.10755897202454477, 0.10750187568308836, 0.10754857795329546, 0.10756192871378303, 0.10756214331154487, 0.1076656845991737, 0.10780609666163567, 0.10803546609936304, 0.10824103443127145, 0.10843814144568271, 0.1087240335483819, 0.10904282418125182, 0.10938089205201466, 0.10976477994299412, 0.11017974607637035, 0.1106223107530029, 0.11109321287420172, 0.11160191386872177, 0.11212569175389846, 0.11270668958657397, 0.11327831522741535, 0.11387606907353973, 0.11443828195261738, 0.11509222606616687, 0.11576267676031485, 0.11645441167460482, 0.1171636589280813, 0.11795138274367614, 0.11868557613294221, 0.11943711809116261, 0.12020740705527627, 0.12099362541795516, 0.12174566680187454, 0.12256619743114015, 0.12343996457638677, 0.12427324560975997, 0.12511693775521424, 0.12589787772850605, 0.1267680203881987, 0.12770281988208942, 0.1285705353696592, 0.1294435778963045, 0.13025141539031962, 0.13114059115509857, 0.13208965303321346, 0.13296688983847438, 0.13384474265415877, 0.13467842309274886, 0.13555982884557216, 0.13642595088125248, 0.13729800061669575, 0.13816313220847104, 0.13905029536229288, 0.1398959642243472, 0.14071386661083177, 0.14154681738697547, 0.14236957769689992, 0.14320326984284124, 0.14400067830720484, 0.14473033653711834, 0.1455116124520298, 0.1462767099873874, 0.14708177329359756, 0.1478060526464295, 0.14847352691389792, 0.14917344260409823, 0.14985469217277284, 0.15056428360383514, 0.1512004931198969, 0.1518254241164462, 0.1524244425092268, 0.15300423081737125, 0.15356643254004235, 0.15410469948992178, 0.15455823951650338, 0.15506019683002178, 0.15553530111885905, 0.15598975378605326, 0.1564096332235417, 0.15679969621044504, 0.15716506746299633, 0.15750235552503888, 0.1578536517267337, 0.15812839846844787, 0.15840085199849638, 0.15861838482496415, 0.15880924370407085, 0.15893277894508462, 0.15907300967871846, 0.15917056320593412, 0.15924974948717055, 0.15929660274161228, 0.15930837476436802, 0.15929035790789886, 0.1592676235445173, 0.15917987986263757, 0.15906043116674487, 0.15895262364355822, 0.15876317484521935, 0.15855376405967303, 0.15830190289949475, 0.15801921094905927, 0.15770641675520214, 0.15736030346903718, 0.1569819769707015, 0.15657107580999607, 0.15612729844177398, 0.15566325528776562, 0.15515141307408534, 0.15463896966719637, 0.15405737269550868, 0.15344447928119284, 0.15284749850081003, 0.15216499624354574, 0.15141701819603595, 0.15067958672418014, 0.14990971414666163, 0.1491356548385304, 0.14829728769726358, 0.147479559657202, 0.1465730073861382, 0.14563840594664273, 0.1446560816228358, 0.14366676261249772, 0.1426577482765775, 0.1416072322170995, 0.14052750399802988, 0.13948037543477593, 0.13833478360707907, 0.1371729234253684, 0.13597543082520294, 0.1347528288405437, 0.13350759427241954, 0.13223426178230432, 0.1309642462608501, 0.1296375509601952, 0.1282878455286564, 0.1269524746605255, 0.12555230530216627, 0.12416636849914874, 0.1227208499118653, 0.12125690035029958, 0.11975643394466279, 0.11825775430069081, 0.1168129927600198, 0.1152666923866923, 0.11371752368707339, 0.11214079141180672, 0.11055021410674813, 0.10892399085912398, 0.10730876485378357, 0.10574452646612881, 0.10409238284954635, 0.10243046446712095, 0.10078331550804875, 0.09909922045712023, 0.09740739296035379, 0.09570805178319874, 0.09400151846318078, 0.09233706083568495, 0.09061128682745503, 0.0889133923563693, 0.08717800273882204, 0.08544194946311987, 0.08372727693367006, 0.08198781161814853, 0.08026008799085119, 0.07852255242085489, 0.0767877861027784, 0.07506649945726705, 0.07333733614726388, 0.07163490843638785, 0.06991332072319702, 0.068199069982979, 0.06647726568643662, 0.06478132722162991, 0.06315540122207063, 0.061469124482178096, 0.05979637139829618, 0.05809900348153765, 0.05645955393415176, 0.054874146487169435, 0.053256268177247636, 0.0516555607830702, 0.05013312560553229, 0.04856120079830225, 0.04700687670794723, 0.045481419518409956, 0.04397917333634248, 0.04251483090328593, 0.04105893886865493, 0.03962761439990352, 0.03822420846939469, 0.03684787667063816, 0.03549935625012699, 0.034179426987646616, 0.03291847488605462, 0.03165446785307856, 0.030423246196790446, 0.02926660606755255, 0.028097765706984242, 0.026922405801673786, 0.025833921808994933, 0.02478113505075856, 0.023797111922421135, 0.022814439750747165, 0.02186949545828718, 0.020968430435942605, 0.020108919952722838, 0.01932515463050365, 0.018546837615422626, 0.017845152998598065, 0.017155030834889413, 0.016513544536826973, 0.01589021121479716, 0.01535107711230884, 0.01486656831188511, 0.014423795223526098, 0.014031147021644031, 0.013675221722018648, 0.0133868398829384, 0.013213027461159479, 0.013020694260219448, 0.012885192150793348, 0.01275414196754441, 0.012740010824502305, 0.01282973743545405, 0.012920311095454518, 0.013070356607650106, 0.013266165640733381, 0.013538268476076793, 0.013843419621495733, 0.014239635765057936, 0.01469559193979655, 0.015244243708020239, 0.015818024857441153, 0.016469833587576806, 0.01717005402007514, 0.01793586736117495, 0.01874704516613782, 0.019647681442538378, 0.02059966757494114, 0.021633604518725754, 0.022733277496512903, 0.023925002532054065, 0.025154671190486713, 0.02644036954488675, 0.02780973258325851, 0.029247847348420317, 0.030791098655230976, 0.032363303496925414, 0.0339945186980736, 0.03571211506083503, 0.037500935358903996, 0.03936628249321893, 0.041297375905289736, 0.04326058950256009, 0.04534077030512086, 0.04749087944846358, 0.04968175240866038, 0.051976624731484004, 0.054379408339699765, 0.05680859188298538, 0.05931021912130268, 0.061866347384318524, 0.06451528338619462, 0.06723960835934933, 0.07003125155554152, 0.07289486405145751, 0.0758278947220985, 0.07883579831497284, 0.08187563404747125, 0.08503209644567114, 0.08825796702080363, 0.0915483049648008, 0.09491417770885517, 0.0983945688199378, 0.10189384169820805, 0.10546519621647227, 0.1091017730969686, 0.1128168027669865, 0.11659195078239774, 0.12044868291208925, 0.12437441481420905, 0.1283546490897408, 0.13241907618725418, 0.13651970870588503, 0.1407218399638182, 0.14498862367238122, 0.14936362597983818, 0.15375368471353948, 0.1581819363982732, 0.16270784727734516, 0.16729728250928425, 0.17191248956205876, 0.17663224375194966, 0.18143633987176708, 0.18627255852390132, 0.1911694415053077, 0.1961212413208367, 0.20113825421684303, 0.20618030040814958, 0.2113177996824726, 0.2165105284169459, 0.22178759925495725, 0.22708561311658879, 0.23240938983460516, 0.23782093850731661, 0.24328440144779598, 0.24877596622329437, 0.2543441239315933, 0.259999315430832, 0.2656589083244251, 0.27136783625333316, 0.277118628542542, 0.2829238998675632, 0.2887402695042043, 0.29464052551679193, 0.3005825747123725, 0.3065476368957752, 0.3125731546131873, 0.3186382508111251, 0.3247394161672754, 0.33087733867405755, 0.33707812242244395, 0.34328341586624384, 0.3494714522981663, 0.35575308194177624, 0.36206472409413387, 0.36841840526969505, 0.3747858971271332, 0.38119431575303653, 0.38761522610683014, 0.39406270365669865, 0.4004956330710393, 0.40699749053911377, 0.41352243087015456, 0.4200640103846333, 0.4266242441910112, 0.4331968985608713, 0.4397917799100092, 0.4464029293509503, 0.453026460641629, 0.45966270920611274, 0.466265452766326, 0.4729291268932677, 0.47960953260051103, 0.48628386927939793, 0.4929324519842735, 0.4996197623715047, 0.5063081410143165, 0.5129722021346781, 0.5196628682293711, 0.5263411764184236, 0.5330253338764935, 0.5397036998744476, 0.546412571603604, 0.553071617749076, 0.5596801114869189, 0.5663295501247089, 0.5729667817467982, 0.5795855512728806, 0.5861956356516124, 0.5927923260303568, 0.5993689623331571, 0.6059273576260799, 0.612457233620768, 0.6189764251754342, 0.6254163992654004, 0.6318961796291602, 0.6383475821872818, 0.6447530410817052, 0.6511471721964128, 0.6575452215885383, 0.6638697327348273, 0.670162302342599, 0.6764087546574914, 0.6826350958004131, 0.6887746393773331, 0.6949327596310648, 0.7010488991529631, 0.7071723243883947, 0.7131954809296667, 0.7191162509713531, 0.7250616915625944, 0.7309589231480281, 0.7367967360475255, 0.7425960299173154, 0.7483539159176146, 0.7540475608650874, 0.7596881268575209, 0.7652500707306104, 0.7707842033926631, 0.7762604931373178, 0.781677982547196, 0.7870356843363229, 0.7923403006786865, 0.79757439720197, 0.8027113371676494, 0.8078238153149513, 0.8128696628268264, 0.8178596132509824, 0.8227681951284231, 0.827538775674573, 0.8323179800126331, 0.8370227023187883, 0.841649922376784, 0.8462045919607551, 0.850674096962369, 0.8550769716709918, 0.8594019264132754, 0.8636856331014349, 0.8678481585207967