0.034400971109132615, 0.03381994725854715, 0.0333103185715788, 0.03283198831316457, 0.03239575505801645, 0.03204292821363034, 0.03166700704680971, 0.031246518551185157, 0.030932474640810167, 0.030634793206008648, 0.030326610417074865, 0.030057651911653133, 0.02986356154073598, 0.02960267303227279, 0.029352336083721647, 0.029047672884946436, 0.02882350067318759, 0.028674574573561137, 0.028450644165068425, 0.028235661347717687, 0.027996991468041105, 0.027803675516570796, 0.027590773129923227, 0.027415507432259713, 0.027246907784975603, 0.027092768745049848, 0.026939144477499028, 0.026775404530632495, 0.026644268973549805, 0.026523224316777182, 0.02641090506966722, 0.02631316858326538, 0.026242083538054163, 0.026168941655505713, 0.02611104852660006, 0.026034317689456906, 0.026013411191321847, 0.026040321692457596, 0.02604692475048507, 0.026072485389193767, 0.026014347535622633, 0.02609251811040505, 0.026239971090821358, 0.02634214275545279, 0.026464705635516474, 0.026550349951286297, 0.02672300385304045, 0.026910052552518285, 0.02712238347244783, 0.027355445927180373, 0.02763448517042372, 0.027908532826570267, 0.028226850914744438, 0.028548011875308536, 0.02889579415479596, 0.029284396259813432, 0.029684508728546, 0.03004561030745794, 0.03051089883688509, 0.031001024872494787, 0.03151441628619789, 0.032056701431173854, 0.03264666342077648, 0.03324054695301008, 0.03386363243233014, 0.03445369492536822, 0.03514428624607109, 0.03589420942925563, 0.03663530510820078, 0.037406795253366314, 0.03812800991878379, 0.038972054307322944, 0.039827171433812834, 0.04072899861210149, 0.041659359444228605, 0.042615846638805154, 0.0436068408489387, 0.0446128962245292, 0.045669396911300245, 0.04675793845056928, 0.04793273186216586, 0.049081142251437525, 0.05019045329390256, 0.05142367366172801, 0.05269055496529056, 0.054062719874768864, 0.05539055917200684, 0.056656427342313485, 0.058077454669045715, 0.05953310831575627, 0.06109975335355407, 0.06261800645597945, 0.06416043961444283, 0.06576419656843965, 0.06740887579138284, 0.06899854734443939, 0.07073820126060379, 0.0725827452680088, 0.07438776860160251, 0.07623516167159672, 0.07810670863939721, 0.08004218916893752, 0.08193879625064614, 0.08396959391791298, 0.08603900354824119, 0.08813762947727737, 0.09028859925237223, 0.09255694478408248, 0.09478074553104905, 0.09705125311244889, 0.09931632653349724, 0.1016869786355305, 0.10408414886336198, 0.10654529180539685, 0.1090502495357887, 0.11162039994862212, 0.11421179815341818, 0.11678457317250995, 0.11947698356676334, 0.1222123709797674, 0.12503775666917882, 0.12785504898292577, 0.1306233159781444, 0.13354724946948113, 0.13651302224644649, 0.13958632477362376, 0.14262969803963393, 0.14571119038761854, 0.14885044082248583, 0.1520363675086692, 0.1552039720983164, 0.15849126122716495, 0.16179465230383108, 0.16517124458210317, 0.16858978996793847, 0.17213537017117872, 0.1756282966450493, 0.17906686273803993, 0.18266754113743233, 0.18630912844708403, 0.19006730616573847, 0.1937819943961087, 0.19749142537439787, 0.2013035327822116, 0.2051574100087183, 0.20900767451923485, 0.21295029117044034, 0.21700574058754185, 0.2210162678144725, 0.2250696209564931, 0.22913495507078488, 0.2332756939961443, 0.2373870730054637, 0.24161413662291897, 0.24587549687687107, 0.2502187436055768, 0.25454272125155075, 0.2588385758190347, 0.26324379917005775, 0.26768096759285165, 0.27220213646401886, 0.27669612123988907, 0.28116519385353805, 0.285734328114875, 0.2903327797959936, 0.2950460206216153, 0.29969115489174963, 0.30429728313296656, 0.309016062129361, 0.3137612652272609, 0.31851258064913357, 0.3233112832116411, 0.32816004064196314, 0.33300156194487324, 0.33786675650243675, 0.3427408088159065, 0.3476523885507105, 0.3525956934608852, 0.3575452140141427, 0.36251378164080916, 0.36751430703009436, 0.3725161775287642, 0.37746175426497375, 0.3825052287085793, 0.3875590410655546, 0.3927049498564549, 0.3977672208858819, 0.4028088712148759, 0.4078999695895464, 0.41299932805135525, 0.4181313336524088, 0.42324059626567967, 0.42826567988986786, 0.43339755809440966, 0.4385279068984761, 0.44365146842629016, 0.4487774061917265, 0.4539249731130902, 0.459039114206301, 0.4641491296593142, 0.46925620412979085, 0.47435424239281526, 0.4794517558398092, 0.48453271731525965, 0.4896041046268282, 0.49463444311291804, 0.4996865153813204, 0.5047117294561085, 0.5097336403584527, 0.5148220490693436, 0.5197958616541065, 0.5247540678445042, 0.5296043772432755, 0.534537348872797, 0.5395115387758568, 0.5443829545135792, 0.5492301170611106, 0.5539853209744627, 0.558787546538438, 0.5635593901916905, 0.5682949182952636, 0.5729958260467262, 0.5777189895252153, 0.5823399705061304, 0.5869493600600669, 0.5914961767228686, 0.596006220770138, 0.6004777117242527, 0.6049089230650143, 0.6092262788043704, 0.6135810361857305, 0.6178865806427796, 0.6221407790920409, 0.6263450877949513, 0.630555076927352, 0.6346463892156026, 0.6386865082026741, 0.6425926852271927, 0.6465360038416263, 0.6504363674052002, 0.654255978053985, 0.6580145493539454, 0.6617040843038794, 0.6653383202396068, 0.6689172321050961, 0.6724200616113043, 0.6758567326329759, 0.6792643796180035, 0.682560491802335, 0.6857532423734098, 0.6889176396695028, 0.6920097792331622, 0.6950958604680127, 0.6980318021097559, 0.7009123291735656, 0.703701336785855, 0.706416519899774, 0.7090319633545004, 0.7115979738062262, 0.7140402853042327, 0.7164514722889207, 0.718778334799735, 0.721089760424892, 0.7232370962880122, 0.7252219105199589, 0.7272130980360434, 0.7291148516799731, 0.7309162629373683, 0.7326390378225249, 0.7342680151794299, 0.7358077029519255, 0.7372549191690585, 0.7385871985636852, 0.7398509528913023, 0.7410602674223551, 0.7421285622226758, 0.7431035428531905, 0.7440182057300618, 0.7448004347994767, 0.7455126202308074, 0.7461046314623201, 0.7466031497417138, 0.7469910699385683, 0.7473021286114305, 0.7475314940212155, 0.7476466054297104, 0.7476648413867821, 0.7475253811325978, 0.7473560006594673, 0.7470791990220349, 0.7467074579438397, 0.7462340685261785, 0.7456209557564192, 0.7449496862617386, 0.7441786741800144, 0.7433010226693714, 0.7423213147230505, 0.741239965585304, 0.7400573742041384, 0.7388330711977396, 0.7374416748905168, 0.735953504896869, 0.7343765855435468, 0.7326936267484088, 0.7308272872636257, 0.7289625414274811, 0.7269966303864889, 0.7249478044726406, 0.7227799030883886, 0.7205746070972081, 0.718204340318336, 0.7157410744307432, 0.7131386091300224, 0.7104958414427718, 0.7077338922092163, 0.7049053135606109, 0.7019820905347011, 0.6989872543718377, 0.6958749451014682, 0.6926351015467147, 0.6893474511285481, 0.685968954258318, 0.682577318825836, 0.6790109539194591, 0.6752757118412799, 0.6715546132892751, 0.6677467958299146, 0.6638524819713447, 0.6598755035952738, 0.6558831038929622, 0.6517336137949632, 0.6475079234785649, 0.643219597831731, 0.6388423885993265, 0.6343215832687416, 0.6298085047705598, 0.6252204698417145, 0.6205973517021548, 0.6158593694571418, 0.6110185777325086, 0.6061502332650476, 0.6012145104022821, 0.5962837791370023, 0.5912092468887847, 0.5860228544308653, 0.580839101707096, 0.5755960472951455, 0.5702593814284698, 0.564907199189087, 0.5595717089193785, 0.554099518695508, 0.5485789636673595, 0.5429742661757637, 0.5373657238478667, 0.5316842194843003, 0.5259882543981078, 0.5202480783306386, 0.5145376028276769, 0.5087059322499476, 0.502785563632375, 0.49689378038516496, 0.49096757124903373, 0.4849798797217288, 0.4789942841843991, 0.4729784255088341, 0.4669344577961203, 0.4608645027636768, 0.45485414879506175, 0.448727914595363, 0.4425494733307546, 0.43639908732074684, 0.43023428939074715, 0.42402206282804283, 0.4178381745160286, 0.4116931508288116, 0.4054830494542719, 0.39926890818986527, 0.39306976751835765, 0.38685031253461877, 0.38063165373684105, 0.37441783900278613, 0.3682091153064053, 0.36194220098383045, 0.35575687462023264, 0.34964182878586264, 0.3434636848854756, 0.3373000673995722, 0.33107839835188363, 0.32495815882629425, 0.31889152694456685, 0.31279941287366303, 0.30672929412264516, 0.30068186601654306, 0.29466143175731785, 0.2886649603220684, 0.28270166005147235, 0.27676920777205244, 0.27091578920054177, 0.2650445425017151, 0.25914945362584757, 0.25336504068395393, 0.24761862972168075, 0.24193415596183496, 0.23626661978881633, 0.2306079348913429, 0.22503613140231676, 0.21951026194275075, 0.2140924616471748, 0.20865627641811732, 0.20318892288753368, 0.1978740646703028, 0.19270186790838154, 0.18748187892389548, 0.18232287246292847, 0.1771319197375215, 0.1721097837385012, 0.16713714028703783, 0.1622355141985551, 0.15739564237570558, 0.15262154257055396, 0.14790989302776125, 0.14327656039641393, 0.13869831599654045, 0.1341902332976106, 0.1298161336323665, 0.1254440037427776, 0.12117450854636287, 0.11695394495705241, 0.1128130476623968, 0.10871855824310787, 0.10474239430450968, 0.10085217614812739, 0.09703383130125724, 0.09329629302452828, 0.08956945093662098, 0.08600434169277388, 0.08260256362453419, 0.07918524829193428, 0.07585355961200316, 0.07253472585455642, 0.06938439093697678, 0.06632224443121572, 0.06333682582179878, 0.06043577951003752, 0.05759773519277733, 0.054870140880942934, 0.05229241132497067, 0.04972709772677235, 0.047251559023858344, 0.04486807742710605, 0.04257167531960505, 0.04029545871608521, 0.03818729495619221, 0.03616479859085228, 0.03423304800184224, 0.03238253151672633, 0.03061088633150092, 0.02893552788115877, 0.027346940907997018, 0.02584404922798212, 0.02442933122493587, 0.023131511885143022, 0.021886367258972483, 0.020729381879127633, 0.01966820135777902, 0.01868506631541904, 0.017802968511714683, 0.01699170131885429, 0.016267087513010835, 0.015670110134414654, 0.015111224099962657, 0.01459611185386107, 0.014214888191654885, 0.013915716634703316, 0.013661920309806015, 0.01352919176054868, 0.013497434907516316, 0.01351681730917061, 0.01361419107825719, 0.01377366035345661, 0.014026429674337254, 0.014424525981682994, 0.014816731893817933, 0.015285860838424878, 0.01573652811829801, 0.016367052141571876, 0.017069590963075476, 0.017833654897099642, 0.018664024526811634, 0.01959003527627608, 0.020546692808608227, 0.021611620901006743, 0.022692342395682984, 0.0238383391952485, 0.02497608751602844, 0.026256873338204492, 0.02765670918377387, 0.029041442603647407, 0.03048407684309188, 0.03192965844128878, 0.03349002327883361, 0.03513876856864881, 0.03679336513691532, 0.03849786730175282, 0.04024376436614543, 0.04204429652003865, 0.04385488682862529, 0.04574800685695631, 0.04768099745120731, 0.04964913027910746, 0.05165850871689356, 0.05378254008968202, 0.05585219512008452, 0.05795934486220629, 0.060033519867857155, 0.06221820985573252, 0.06445258012529692, 0.06668840956643626, 0.0689503536407601, 0.07127507450246612, 0.07357958532793203, 0.0759469562705012, 0.07829142204674455, 0.08065772318274232, 0.08297063217217933, 0.08538340549581187, 0.08786211726093787, 0.09028948021780808, 0.09272854194097235, 0.09515656719266177, 0.09761612186641405, 0.10010277089218385, 0.10256807950247974, 0.10503653320591398, 0.10750407628002885, 0.10997393735843859, 0.11236052501921874, 0.11483483068731726, 0.11729925841938538, 0.11976911922761593, 0.12220890707679903, 0.1246275095417969, 0.12704344442105822, 0.12944450823845272, 0.13189446554085357, 0.13425402296585368, 0.13658832066420737, 0.1389177957059168, 0.14122840301175962, 0.14353712934523874, 0.1458029899980097, 0.14797221594535917, 0.15020102186806755, 0.1524000874105779, 0.15456966641677145, 0.1567063611158054, 0.15886045561803877, 0.16092493606692362, 0.16295778268735533, 0.164988910491096, 0.16695039006980436, 0.16882807962039661, 0.17072650404140077, 0.17258525770304775, 0.17445092068138057, 0.17622143961631107, 0.17793587379228687, 0.17962745203651342, 0.18127574863428528, 0.18289596719643966, 0.18445259788373058, 0.18589199787502744, 0.1873660246953755, 0.18878867946724548, 0.1901700575037462, 0.19148760407603413, 0.19280663010450458, 0.19401323226683398, 0.1951700283798826, 0.1962065522049999, 0.1972699370028316, 0.19827481777684428, 0.19922597941024864, 0.2001205176482269, 0.2010382964470141, 0.2018090049870829, 0.20247143984076668, 0.20314315933458255, 0.20375761385301921, 0.20432388268892637, 0.20482205900718603, 0.2052386017377188, 0.20562508345749647, 0.20595252485066087, 0.2062975107486763, 0.20649734381114038, 0.20659969258962382, 0.20669526044225175, 0.206732861090947, 0.20674842873956303, 0.20666554128857106, 0.20652793009117099, 0.20633293596311278, 0.20608180873985502, 0.20577332554907693, 0.2054099541548177, 0.204979949442189, 0.20450563547652972, 0.20397485420043707, 0.20336357174016864, 0.20272392982890106, 0.20211565741434448, 0.20135196709316305, 0.20054235626035447, 0.19967689903408362, 0.1987611193982306, 0.19780438899081806, 0.1967871654046384, 0.19564647024159373, 0.19454039587097277, 0.19338152699689956, 0.1922068361344266, 0.19094089633630326, 0.1896655026663223, 0.18830000194952384, 0.1868904081490379, 0.18546851713434837, 0.1839683034770298, 0.18236363249698778, 0.18079055884470777, 0.17917417068349473, 0.1775271691584647, 0.1758260074022325, 0.17410755334502218, 0.1723259895264222, 0.1705084271049003, 0.1687311407700331, 0.16683478032461224, 0.16487118888801497, 0.16292214360946433, 0.1609428963768541, 0.15903640856746, 0.15698663754860334, 0.15485380746608934, 0.15276883990614537, 0.150659417309941, 0.14854971694712005, 0.14639145530295042, 0.14432098990312686, 0.1421099243485626, 0.13988679288167552, 0.13763438469530206, 0.13539002874084224, 0.1331429112893186, 0.1308740492696721, 0.12859525261130106, 0.1263885461056803, 0.12408224574347862, 0.12175711855633901, 0.11944810721643734, 0.117136570137047, 0.11482911654522394, 0.11251432028232557, 0.1102696030246227, 0.10794801793334194, 0.10563292514827201, 0.10339564201544926, 0.1010864442675776, 0.0987781937035578, 0.09649587966120553, 0.09422627048737658, 0.0919642775789166, 0.08972304709563222, 0.0875140266411841, 0.08530126382810196, 0.08310642963490937, 0.08098504284240875, 0.07882228133418258, 0.07669068800243845, 0.07457620424382659, 0.07248788637706807, 0.07053675328610433, 0.06848946577884252, 0.06651440299512267, 0.06453281363636446, 0.06258889605386096, 0.060615542864604445, 0.05875608840528817, 0.05701957418914264, 0.05521969519600235, 0.05346181926384307, 0.051715099873343905, 0.050046691455413135, 0.048419075685404024, 0.04683571918317456, 0.04529628833828962, 0.04385056498892804, 0.04239607595404733, 0.04098457148599253, 0.03963157492938082, 0.03832963751448109, 0.03710862865720908, 0.03590780476882499, 0.034849350316758884, 0.033749026465646974, 0.032710431217470616, 0.031695372500666445, 0.030785413477665217, 0.029914707289755635, 0.02912831257214056, 0.02840224763645593, 0.02779886933302683, 0.027188373988121548, 0.02663273195766923, 0.026156982655302276, 0.025747840069634032, 0.025417460812957256, 0.025141765174348005, 0.02496637138484868, 0.024825208029615856, 0.024755826768281697, 0.024717922618558933, 0.024798123329238555, 0.02494877956074669, 0.025170588324901034, 0.025464222340680295, 0.025825689869605286, 0.026265474513197183, 0.026852900942401454, 0.027430748917527673, 0.028087352553857057, 0.028757706848809447, 0.029579880837185303, 0.030468968933979983, 0.03144278953071894, 0.032492255251191836, 0.03366196716609419, 0.034858702670127736, 0.036141966459763045, 0.037496996517725964, 0.038932053479477494, 0.040383328411512834, 0.04198642119231397, 0.043747053155281955, 0.045493085967082215, 0.047320922691357264, 0.04913283990098864, 0.05113568323244688, 0.053255725135451876, 0.05540470360731639, 0.05763240894594152, 0.05993420318502413, 0.06231991339307037, 0.06478282161389132, 0.06732532338960734, 0.0699459386241934, 0.07261669920946671, 0.07539661506316077, 0.07831054855983487, 0.08123518461560769, 0.08423901404464418, 0.087264613781809, 0.09043222093266323, 0.09369376137356017, 0.09700718028746833, 0.10039559957003975, 0.10386557353115114, 0.10740187216901957, 0.11095891551586894, 0.11464958916289256, 0.11841024183108331, 0.12226506685070618, 0.12616204698612518, 0.13017606798360679, 0.13420793489969984, 0.1383119126713996, 0.14248352899368788, 0.14672920581467364, 0.15103922911414336, 0.15542254142248055, 0.15987274222185205, 0.16430430266464474, 0.16889636105751984, 0.17362098693537498, 0.1783226224604081, 0.18308737119320503, 0.18790963265470495, 0.1927983065693575, 0.19769243622169855, 0.2027069873902763, 0.20777656279200446, 0.2129168834441636, 0.2180928480890971, 0.22334505303330973, 0.22862582487270758, 0.2339603664492473, 0.23934181905716098, 0.24478144625492862, 0.2502689999890896, 0.25580838123685024, 0.261395805017308, 0.26699196814734316, 0.2726772000032145, 0.27835764050659756, 0.28413363095502897, 0.2899481337864246, 0.29577284313200947, 0.30166637957263404, 0.30768448233657136, 0.3136367834462557, 0.31962829588550107, 0.32555558613992425, 0.33163428838579573, 0.3378119458941857, 0.34394007844977786, 0.35010035476264323, 0.3561987483203594, 0.3624312779960556, 0.3687055295044853, 0.37498153226937925, 0.3812968546595034, 0.3876161318818106, 0.3939576654096824, 0.4002565958013693, 0.4066474441099043, 0.41306293197092064, 0.4194826930649304, 0.42591697811058393, 0.43240550808082556, 0.43886105285939886, 0.44526337984063646, 0.4517541754257859, 0.4582525654106569, 0.4647867518940977, 0.47129423548557664, 0.4778176731507104, 0.4843361527164129, 0.4908594485854842, 0.4973978771494456, 0.5039255014013424, 0.5104501229183894, 0.5169802441046175, 0.5235090359997163, 0.5300201344587002, 0.5365443210120595, 0.5429894461636446, 0.549509735414599, 0.5560176609168904, 0.5625544250558377, 0.5690306358331951, 0.575493820842193, 0.5819453720031195, 0.5883828360493769, 0.5947587482930035, 0.6011706635767433, 0.6075104562972501, 0.6138883793594409, 0.6202419602007561, 0.626555741211091, 0.6328613105334501, 0.6391947981982325, 0.6454398117350235, 0.6516602381300622, 0.6578387715061016, 0.6640088619860175, 0.6701432790769163, 0.6762558774120594, 0.6823374751984148, 0.6883303419108837, 0.6943543882189543, 0.7003496034690283, 0.7062982439071482, 0.7122093653500737, 0.7181240529391584, 0.7239528316221999, 0.729704908734132, 0.7354630302388984, 0.7411794924396591, 0.7468176047849124, 0.7524530505801325, 0.7580645737761552, 0.7636048205232356, 0.7690993007538732, 0.7744695549921716, 0.7798800281525684, 0.7852368968843979, 0.7905424638603029, 0.7957951136704529, 0.801040927154032, 0.8061808977836302, 0.8112659780377118, 0.8163027226307658, 0.821286180461811, 0.8261807604748391, 0.8310596456958119, 0.8358287222127578, 0.840598457774343, 0.8453066159447307, 0.8499310370807474, 0.8545183793641096, 0.8590608864927411, 0.8635189733864141, 0.8679143851722152, 0.8722223649012067, 0.8764942616508318, 0.8807529993722982, 0.8848873228367193, 0.8889586150391343, 0.8928883959364387, 0.896841124234773, 0.900799559612141, 0.9046033266130609, 0.9083414212121772, 0.9119260732381271, 0.9155414682160372, 0.9191049006407312, 0.9225719882609626, 0.9259673651816601, 0.9293417903361103, 0.9325864756186244, 0.9357382654694806, 0.9388457537712709, 0.94188082986312, 0.9448117257339654, 0.9477045794670509, 0.9504755501124884, 0.9532231148472288, 0.95589224232277, 0.9585016706513234, 0.9610120722084805, 0.9634779382041128, 0.9658301096758815, 0.968106854965837, 0.9703182062694685, 0.9724415872412404, 0.9744147607048217, 0.9763951235680728, 0.9782945158719172, 0.9801711549233032, 0.9819019325432735, 0.9835578867787449, 0.9851337367274688, 0.9866319057493954, 0.9880056978985422, 0.9893534713520281, 0.9906699857171298, 0.9918493545463754, 0.9929506763122019, 0.9939458318310376, 0.9948937532683169, 0.9957485556730243, 0.9965374052080488, 0.9972452609674105, 0.9978015346300733, 0.9983567924888939, 0.99891101484596, 0.9992873568937318, 0.9995851886434216, 0.999732508003308, 0.9998821280845289, 1.0, 0.9999781763921379, 0.9998775049149595, 0.999633101056168, 0.9993831299922056, 0.9991100257547268, 0.9986886509312086, 0.9981895226946982, 0.997543121175055, 0.9968974855133848, 0.9962376983678469, 0.9954214201967124, 0.9945288278776283, 0.9934660440824424, 0.9924328968437424, 0.9913706061381344, 0.9901691039541382, 0.988890935382431, 0.9875503724917257, 0.986118181583196, 0.9845218859056373, 0.9829516167596312, 0.9813020516218723, 0.9795962338648675, 0.9777882503400169, 0.9759583799759534, 0.9739938371452987, 0.9719583284806986, 0.9698659450499711, 0.96768730802743, 0.9654310046033235, 0.9631144673174041, 0.9607283142858914, 0.9582021329957507, 0.9556867061464713, 0.953125443743008, 0.950462618597008, 0.947730719582159, 0.9449837875811393, 0.9421090806550482, 0.9390717992621953, 0.9360818076724242, 0.9330228517054204, 0.9299042029376533, 0.9267097014414304, 0.9234882714999781, 0.9201594875408993, 0.9167695289561395, 0.9133340656908588, 0.9098216543896265, 0.9062055292159779, 0.9025823928894788, 0.8988993261466618, 0.895175842634622, 0.8913734308769362, 0.8874813335753302, 0.8835718347918949, 0.8796059468367146, 0.8756543124273506, 0.8715700152637672, 0.8673888128116162, 0.8632122551607926, 0.8589533076453523, 0.8546794869933125, 0.8503547026761326, 0.8459499926724149, 0.8415306314095052, 0.837064416740536, 0.8325477709135778, 0.8279847415379327, 0.8233812099770693, 0.8187285192184311, 0.8140136158560747, 0.8092795317779345, 0.8045040455555243, 0.7997173830619304, 0.7948590970679077, 0.7899716027162389, 0.7850410197495851, 0.7800764997714323, 0.7750522463491102, 0.7700258675417211, 0.7649725264269062, 0.7598810283389069, 0.754759352522489, 0.7495865305421601, 0.7444104774198972, 0.7392433063262174, 0.7340073429945294, 0.7287476851043337, 0.7234907415956155, 0.7181831783933204, 0.7128746561218287, 0.7075264684954014, 0.7021613485600254, 0.6967625820514621, 0.6913678925557283, 0.6859621312928254, 0.6805364014804809, 0.6750971780667401, 0.6696280384652114, 0.6641669668181338, 0.6586723740318975, 0.6531922856386965, 0.6477018163749463, 0.6421536060697632, 0.636652545528045, 0.6312281505831825, 0.6256996101229467, 0.6201700067129768, 0.6145474173665045, 0.6090299971922135, 0.6035715639204736, 0.5980406307618562, 0.5925128540411749, 0.5869939061119318, 0.5814749598823347, 0.5759636995394284, 0.5704586626371294, 0.5649622297929554, 0.5594359770588082, 0.5539647558650458, 0.5485435406691005, 0.5430873556820837, 0.5376454935886479, 0.5321284345433747, 0.526729464302938, 0.5213796736242998, 0.5160018325002893, 0.5106414184611714, 0.5052683370075035, 0.49995034975929076, 0.49465969574821234, 0.48938048305257975, 0.4841236216276075, 0.4789158148906693, 0.47370396131714704, 0.46853209851076527, 0.4633739722423857, 0.4582455320243467, 0.4531162221649929, 0.44805338426028885, 0.4429836475784472, 0.43798694242193725, 0.43302037536747695, 0.4281721820022561, 0.42325861442005686, 0.41829205236559514, 0.4134676937573151, 0.408677626103053, 0.40398334667590546, 0.39925775845251393, 0.3946057177796077, 0.3899587151572573, 0.385355697253262, 0.38073201948182805, 0.3762261106530844, 0.37179633390966527, 0.36736963216731416, 0.36298802817138054, 0.3586022210736986, 0.35431881034917023, 0.3501454892468416, 0.34594265723691453, 0.3417893861330012, 0.3375932243593891, 0.3335517868600976, 0.3295649948227147, 0.32561423061555644, 0.32171149056225185, 0.31786576480752815, 0.3140606009531498, 0.3103689707812642, 0.3066583437955758, 0.30300336189396904, 0.29931361598694384, 0.29578151891548826, 0.29236281506058126, 0.2889251764886512, 0.28554341363285285, 0.2821446499048352, 0.2788844184067737, 0.27577390796943924, 0.27260673362816357, 0.2694987650388717, 0.2663744420415558, 0.26339389764150245, 0.2605420818690809, 0.25766167081048763, 0.25484087020670715, 0.2520574334786683, 0.2493580235084578, 0.2466990181377005, 0.2441174276166218, 0.2415926922744348, 0.2390959600168744, 0.23668898945317696, 0.23436193054763743, 0.232063284904617, 0.22982208185636596, 0.22756640475184056, 0.22544909957230141, 0.2234790068765419, 0.22145687191935173, 0.21949416785335404, 0.2175150667966735, 0.21567941867192053, 0.21395100275346998, 0.21221657304072944, 0.21053933058513594, 0.20886555595896553, 0.20730830125010624, 0.2058261282526765, 0.20437221581149528, 0.20297258985655786, 0.20163626321627073, 0.200343212764596, 0.1991098829116634, 0.1979235168584711, 0.19679052749608883, 0.19572200451209615, 0.19469277139327762, 0.1937102162343209, 0.19278603791866444, 0.19191274983617349, 0.19104918044411565, 0.19028104729215345, 0.18953888016447404, 0.18886678559965542, 0.18823974922119416, 0.1876459667604656, 0.18710982684046076, 0.18662540446219691, 0.18617514888409012, 0.1857683100101215, 0.1854647200448679, 0.18513563725262291, 0.18478456125617726, 0.1845534457097509, 0.18436170757345915, 0.18419727162450475, 0.18408427325353638, 0.18400031546947285, 0.18396214942361064, 0.1839596187930714, 0.18406408916981795, 0.18412209241643576, 0.1842296291495295, 0.18436080388637974, 0.18452813248397218, 0.18465961905365147, 0.18490447246936628, 0.18516974601231379, 0.18547212861342557, 0.18580140822876676, 0.18619411072810077, 0.18657070176192564, 0.186937295077532, 0.1873718085859286, 0.18782937310205652, 0.18839280374711917, 0.1888838411474886, 0.1893146702427684, 0.18986633681495194, 0.1904313478754668, 0.19101893941223602, 0.19162296294896153, 0.19227523175666905, 0.19290600932194196, 0.1935297815813067, 0.19419486147782783, 0.19487282515916457, 0.19554779608760123, 0.19625101630956548, 0.19697774636290077, 0.19769767795626494, 0.19842652681323206, 0.19913558775222095, 0.1998831660886606, 0.20070040983429588, 0.20144856796425956, 0.20220375113009023, 0.20296820619436307, 0.20373334725451756, 0.20450446064878317, 0.2052754775590573, 0.20604804278706904, 0.2067549751639154, 0.2075357889903143, 0.20832290130811737, 0.20909120310144555, 0.20985392123684077, 0.21066262780186068, 0.21140572569236893, 0.21206194693546804, 0.212805299096717, 0.21353738288910257, 0.21434368267407536, 0.21504134295782082, 0.215629380140035, 0.21632365898171946, 0.217002416384295, 0.21773502159029945, 0.21837325405519348, 0.2190199595944947, 0.21962984144232517, 0.22022670931129834, 0.2207167806419234, 0.22129637378676406, 0.2218548704637338, 0.22239215289431458, 0.2229080532364323, 0.22345802379123814, 0.22392345000270505, 0.22437103601778485, 0.22479756023418387, 0.22520367141486575, 0.22550517368645262, 0.2258789465369841, 0.22626968012861412, 0.22658373026663628, 0.226873215690944, 0.22716093436910376, 0.22739717486342007, 0.22759506067655583, 0.2277836150095519, 0.22794584401936774, 0.22809990655866308, 0.22820596686606157, 0.22820674476529365, 0.2282694262643305, 0.2283002944332737, 0.22831926644180128, 0.22828457709298863, 0.22826024316793742, 0.22815987883198857, 0.2280313948187411, 0.22779203516385788, 0.2276164985394429, 0.22748360678446428, 0.22723095407683314, 0.2269493477351756, 0.22655145193195295, 0.2262218907728164, 0.2258447706778105, 0.22544766687493362, 0.2250158911352389, 0.22455453535976014, 0.22405413651523853, 0.2235819975450731, 0.22300770258521233, 0.22240418534893888, 0.2217978521283716, 0.2211317629411105, 0.22036537778037885, 0.21965122731012496, 0.2189039920925676, 0.21818895571460428, 0.21736835136186117, 0.21643347384747766, 0.2155665841805973, 0.21466603899774775, 0.21373357856940847, 0.21276728127331793, 0.21176439276379735, 0.2107352535075201, 0.20967483298949127, 0.20860447926345985, 0.2074802600006079, 0.20630062629509544, 0.20512255282677433, 0.20391476652961807, 0.2026719628069603, 0.20140694976980655, 0.2001620423437159, 0.19883417361666014, 0.19748143086298744, 0.19609694406078446, 0.19469563740476062, 0.1932798861267746, 0.19182775465566895, 0.19035186956978362, 0.1889011619460302, 0.18737232129666548, 0.18577800923507126, 0.18421432654492764, 0.18262779445784594, 0.18104436269684016, 0.17941023539013864, 0.17770154989795375, 0.17603448704218957, 0.17434491294172566, 0.1727124787165459, 0.17097027218783137, 0.16914619827044228, 0.1673809170221924, 0.16559642416959447, 0.16385377385957559, 0.162025474004199, 0.1601951564483112, 0.15833838933674368, 0.15646916349525383, 0.15454827899857093, 0.1526598582737469, 0.150750643351651, 0.1488361147445696, 0.14690872665459065, 0.14501096260747112, 0.14305477448217654, 0.14112503825460077, 0.13914814827464447, 0.13716565193971475, 0.135169588282712, 0.13317743685359848, 0.13113812284979298, 0.12914080681067178, 0.12713654082948, 0.12514930569057833, 0.12313055514979206, 0.12113166822248897, 0.11910388422056234, 0.11707519865994365, 0.11501005179319929, 0.11298530716780414, 0.11102267864484507, 0.10898729533132764, 0.10695532219036956, 0.10493276878467274, 0.10290756505352039, 0.10093789554727044, 0.09891555248168109, 0.09690120904299897, 0.09489250303898099, 0.09289440419947745, 0.09089616165391033, 0.0889152285339473, 0.08694225020443568, 0.08495670961209112, 0.08300338303502104, 0.08112874207636699, 0.07918297201223472, 0.07725033314250626, 0.07528215512770019, 0.07338210944906859, 0.0714962373823154, 0.06961774293892707, 0.06775133735876353, 0.06592773492295917, 0.06408338027370718, 0.06227535704285135, 0.06045958370012229, 0.05866107315302519, 0.05693450903982182, 0.05516420788874397, 0.05350300598911441, 0.05176332820765632, 0.05004931297167639, 0.04833820129186344, 0.04667626882337787, 0.045028896467574284, 0.043413194515873915, 0.04181949354235957, 0.0403429526328897, 0.038781485191907765, 0.03725814826220191, 0.03575019190007626, 0.03426953062170142, 0.03280648919412009, 0.031380507814953294, 0.030048845494700778, 0.028665981114172533, 0.027380120804471927, 0.026047781100146297, 0.024748159385607958, 0.0234793159875155, 0.02224309373000176, 0.02104227553887481, 0.01986664484706092, 0.018721440411065216, 0.017667932931628792, 0.01657532095955219, 0.015577716658413013, 0.014543962003113687, 0.013546392352566857, 0.01252048634901024, 0.011601280410797995, 0.01074536054383941, 0.009883848843484599, 0.009055349227231951, 0.008361886645817563, 0.007586488886829122, 0.006808167510574733, 0.006114995367961336, 0.005457036682577229, 0.004858531995667904, 0.004267646447640718, 0.003747971941364081, 0.003225382766910889, 0.0027409347778258528, 0.0023615768457854657, 0.0019440526814836808, 0.0015631013935578878, 0.0012279448562747277, 0.0009325745172839186, 0.000665012578462353, 0.0004496244131141363, 0.0003339402799808361, 0.00018720605412986008, 8.209079512682711e-05, 2.392383752700859e-05, 0.0, 8.182385765648539e-05, 0.00013103429886371517, 0.00022422826046036693, 0.00038393679490896453, 0.000560294977661734, 0.0007489759465915965, 0.0010160207470115976, 0.0013239650637400483, 0.0016414020437133434, 0.0020348634998318313, 0.0024997843938041942, 0.002967395100322746, 0.0034763678800375196, 0.004010475511184596, 0.004604275079769618, 0.005260656122810296, 0.005932968609216589, 0.0066474692001342985, 0.007501589458123642, 0.008288227205892913, 0.00903913346991892, 0.00993113673252612, 0.01086488484188959, 0.011853286010642988, 0.01286936743108396, 0.013967794557608803, 0.01506477271826266, 0.016206985906491053, 0.017379106957117592, 0.018612986975718986, 0.019949774754761642, 0.02126369728744221, 0.022624700651772585, 0.02397434614136943, 0.025435545576207048, 0.026932449263641165, 0.028480050743420096, 0.03007031052307993, 0.03175796810446625, 0.03342734322374911, 0.03514541341061013, 0.036906997978607095, 0.038714631349817674, 0.04053333256011699, 0.042436922822595945, 0.04433426815184162, 0.04633158231979182, 0.048370062285090276, 0.050444464363094375, 0.05256761154777115, 0.05479802526810159, 0.05699804525517409, 0.05924484872528339, 0.0614535914518204, 0.06380412005038832, 0.06625531889765193, 0.06868197362738732, 0.07115450372507708, 0.07369024575194039, 0.07625215440945479, 0.07885842684969756, 0.08151380290253389, 0.084215366660187, 0.08695486290348617, 0.08974942848672891, 0.09257311510471802, 0.09546040771338621, 0.09839206936835394, 0.10128353740483743, 0.10431490174742948, 0.10747540655622367, 0.11057589994122977, 0.11372260557576762, 0.11681909342693197, 0.12006986747468068, 0.12343747960122477, 0.12675979524885822, 0.13012785248031267, 0.13348581834802056, 0.136951891340953, 0.14046239990143305, 0.14401269570839212, 0.14760575055949307, 0.15118026318196506, 0.15486704667682186, 0.15858537965989622, 0.16235306086635398, 0.16616093403743662, 0.17000478414519218, 0.17389481364177486, 0.1778965384424211, 0.18185976608926946, 0.18586831374376056, 0.18988576706554033, 0.19398812217776884, 0.19808256801462082, 0.20227500958377836, 0.20650632353899234, 0.2107836924726628, 0.21509247584869953, 0.21940968315902432, 0.2238018740642087, 0.228231955824432, 0.23274298116451145, 0.23724378732530327, 0.24179556779941846, 0.24637574467520412, 0.25099626861880475, 0.25556388439707795, 0.2602753894330266, 0.26501827969160513, 0.26979775981849785, 0.274611268912925, 0.2794438491790321, 0.28432759826964, 0.28924233901785706, 0.2941930304897216, 0.2991768840165849, 0.30419496566681264, 0.30924465346983393, 0.3143410221498165, 0.31945420720554907, 0.32460034667597265, 0.32980912058650513, 0.33501591994985624, 0.3401549941771934, 0.3454401031023615, 0.3507511719087945, 0.3561636340315882, 0.3615171666550744, 0.3668068565157847, 0.37223164397640807, 0.37767965285677124, 0.3831531670338395, 0.3886471293812719, 0.3941594370789997, 0.39969965408677205, 0.40526192988701276, 0.4108609530636202, 0.4164642208349885, 0.4220310792550232, 0.42768415740618615, 0.4333541894347845, 0.4390594718471105, 0.44476020916073394, 0.4505173569245475, 0.456246441516106, 0.46199341554133294, 0.4676818715397572, 0.4734710707383081, 0.4793207177548448, 0.4851243636896589, 0.49094049137308077, 0.4966997277184379, 0.502546599985772, 0.5084316943976872, 0.5142855314450828, 0.5201459994371154, 0.5259890641791456, 0.5318631724679559, 0.5376912904115928, 0.543576247216783, 0.5495072037877233, 0.5553826171490652, 0.5612581868087968, 0.5671619164866666, 0.5730311456895342, 0.5787924361349147, 0.584671368393656, 0.5905405006275312, 0.596475961590216, 0.6023144920493056, 0.6080462761833731, 0.6138820949358414, 0.6197027239611644, 0.6254960850267631, 0.6312862596595977, 0.6371214911057125, 0.6428679685178382, 0.6485990144605082, 0.6542309849555228, 0.659937650836028, 0.6656400451511455, 0.6712955926597979, 0.6769268692217694, 0.6825015933921285, 0.688085327895818, 0.6936167926069151, 0.6991444608161692, 0.7046399952424895, 0.710162917666165, 0.7155841445354519, 0.7209601513553606, 0.7263190671959693, 0.7316429823963609, 0.7368946154250344, 0.7421490743444571, 0.7473485916946949, 0.7525217072278827, 0.7576508768228738, 0.7628035133175567, 0.7678330777922291, 0.7727254647019159, 0.7776787511411023, 0.7825802330302227, 0.787460391666313, 0.7922517594979176, 0.7970344931951064, 0.8017136536516914, 0.8063401128178563, 0.8109157508279741, 0.8154316124141114, 0.8197952008544462, 0.8242072136919455, 0.8285537261834882, 0.8328595779219827, 0.8370697834901036, 0.8411858922183768, 0.8452660452704215, 0.8492762722126397, 0.8532470372690764, 0.8571108757814805, 0.860896940711581, 0.864618833185884, 0.8682671394066112, 0.8718906054545178, 0.8753820808358289, 0.8787298462248074, 0.8820803569630974, 0.8853498882643045, 0.8885712421689573, 0.8916720607967064, 0.8946402297945689, 0.897583111511717, 0.9004392529666165, 0.9032508852785496, 0.9059260672872256, 0.9085496085033596, 0.9110464493334038, 0.9134566812458385, 0.9156989894405926, 0.9179422913179893, 0.9200942697784544, 0.9221470562174403, 0.9241042687795046, 0.9259711615337919, 0.927734848178225, 0.9294224944591869, 0.9309890968843005, 0.9324587279231137, 0.9338642446802667, 0.9351333916553776, 0.936327259348439, 0.937398042186042, 0.9383709077827367, 0.9392297761023524, 0.9400057801252552, 0.9406234194742338, 0.9412028681726146, 0.9416763231752258, 0.9420784742032917, 0.9423352332142071, 0.9425479283975554, 0.9425879335637214, 0.9425261989080039, 0.9423190068536084, 0.9420568825840238, 0.9416617873037244, 0.9411902398477301, 0.94061053584884, 0.939904206570808, 0.9391108001881405, 0.9382247123569537, 0.9372116824885778, 0.9360911670293228, 0.9349004001750438, 0.9335606144072124, 0.9320752673627394, 0.930530551434496, 0.9288784116304847, 0.9271644001279181, 0.9252926839600857, 0.9233437732996195, 0.9212609598921547, 0.9190758579643609, 0.9167837485763345, 0.9143945004609336, 0.9118818392963826, 0.9092903498642643, 0.9065956116696473, 0.9037807245201377, 0.9008832110707338, 0.8979294585184119, 0.8948215770698242, 0.8916151885385735, 0.8882272113620379, 0.8848356745942401, 0.8813620977492415, 0.8777658340717325, 0.8740714442281157, 0.8702927517336053, 0.8664037011608732, 0.8624030578536397, 0.8583287911686425, 0.854161332937317, 0.849974906986833, 0.8456153301515316, 0.8411446662541041, 0.8366177697705404, 0.8320051595273873, 0.8272962126673249, 0.8225166116312294, 0.8176177630500479, 0.8126773189590182, 0.8076540056060394, 0.8025946077003356, 0.7974045050212883, 0.7921468470062922, 0.7868055562810323, 0.7813914634401918, 0.7758211232383442, 0.7702758098639363, 0.7646474430867848, 0.7589577819425665, 0.7531978440145536, 0.747406764518451, 0.7415076182766774, 0.735504491218043, 0.7294877791331813, 0.723409746115414, 0.7173686254937511, 0.7111616967339223, 0.7048687633083112, 0.6985674058001257, 0.6922163280624015, 0.6857730420615915, 0.6793328651734446, 0.6729044700082423, 0.6663641181389387, 0.6597837575522567, 0.6531417138496444, 0.6464888721167744, 0.6397367928964581, 0.6330204732773286, 0.6262677086622509, 0.6195713179153072, 0.6127412719717195, 0.6058578157947366, 0.5989841005794055, 0.5920873988875309, 0.58518230617331, 0.578243552126633, 0.5711941586116746, 0.5642356468718251, 0.5572587393303082, 0.5502683345659213, 0.5432620047574943, 0.5363110291218435, 0.5292772037938093, 0.5222409979576988, 0.5151890568855464, 0.508155180036383, 0.5010583593752922, 0.4940385860552609, 0.4870209602385853, 0.48000325990730364, 0.47299769780627327, 0.466037024836944, 0.4590470637785276, 0.452020352292237, 0.4450697263964979, 0.43813533005419303, 0.43130755996500536, 0.42440120222437067, 0.41742636770408115, 0.4105891055643996, 0.40377700468955496, 0.3970421486338251, 0.39028065129283795, 0.38355936608771707, 0.376867590009871, 0.3702138017193529, 0.36359725104215074, 0.35702443757634134, 0.350424603275343, 0.3439472828352485, 0.3375117627380695, 0.3311966979043526, 0.3248413719297971, 0.3184825918451442, 0.3122399976971717, 0.3060490483733356, 0.29984886054048937, 0.2937742813042833, 0.28777376647566333, 0.2818050200481253, 0.27589470908068114, 0.2700387490509765, 0.26425111047955824, 0.2585682566077525, 0.2529029677675477, 0.24730610113059176, 0.24173583882893485, 0.23628449274560243, 0.23085366935468157, 0.22554831610483753, 0.2203121491911087, 0.215192039761555, 0.21009335380114708, 0.20502114802210425, 0.2000824408922936, 0.19521920481664262, 0.1905069598950422, 0.1857890983734119, 0.18112088737432894, 0.176574294594803, 0.1721100062405265, 0.16771251086952713, 0.16341701680854165, 0.1591782995172438, 0.155053815297669, 0.1510127085361113, 0.14712656718342723, 0.1432457406777453, 0.13943370866774843, 0.1357349213933117, 0.1321247630348804, 0.12853157286636555, 0.12510845513035498, 0.12181348389120086, 0.11855616316675409, 0.11538787967868842, 0.1122659351000717, 0.10928173471844076, 0.10644148352189507, 0.10362477497336237, 0.10089914683249146, 0.09821685756121878, 0.09567879715866395, 0.09329112754791326, 0.09092081490288184, 0.08864197077583963, 0.0863961001783951, 0.08430598784049251, 0.0823326999909341, 0.08041206467980122, 0.07857961293470803, 0.07677229201232068, 0.07512280080786765, 0.0735600706008978, 0.07207668127319562, 0.0706766302768372, 0.06942926443966926, 0.06818631498125083, 0.06696009809297762, 0.06589755524118511, 0.06491539241027727, 0.06406534223770505, 0.0632359135129411, 0.062491706176045936, 0.06182424935154016, 0.06123657690468602, 0.06067074827798727, 0.06024647067633253, 0.05990237195654035, 0.059622969674891356, 0.059415736839234394, 0.05930994945194911, 0.059240564634818034, 0.05920167155681023, 0.059278310580283856, 0.05942120148504841, 0.05963865047599627, 0.05990990308149018, 0.060241372230740865, 0.06063925344091252, 0.06109819398959847, 0.06159607504966947, 0.06217600292190955, 0.06280386087351786, 0.06349573211247243, 0.06424078798883712, 0.06505057415317503, 0.06589670326205543, 0.06685441349050374, 0.06779155515398941, 0.06877932974054325, 0.06975311599400716, 0.0708441141914923, 0.07197054566408001, 0.07314334756910915, 0.07435423515777399, 0.07564818132429481, 0.0769250994649358, 0.07817342257050537, 0.07952936107672288, 0.08091425559027267, 0.08239636304659266, 0.08382635560138939, 0.08526190778617021, 0.08675032615595171, 0.08826220570150715, 0.08983057700671031, 0.09137970874048446, 0.09294551642379435, 0.09453337814349243, 0.09613720121992103, 0.09773883767075896, 0.09937092948346324, 0.10102518163264698, 0.10267277412154875, 0.10432710650673109, 0.10588203005633211, 0.10755772216833788, 0.10925453438355054, 0.11091733578804357, 0.11257533040632796, 0.1142307495108941, 0.11587490515562687, 0.11753377786626772, 0.11915666251902432, 0.12076957730134152, 0.12238598348493224, 0.12397221778529253, 0.1255479908083475, 0.12710419853233815, 0.1286432763452869, 0.13006729264953187, 0.1315792713871105, 0.13314842403778246, 0.13459391889635544, 0.13601498114561858, 0.13731837416617512, 0.13869731877086208, 0.14011382062179645, 0.1414142054370276, 0.14268265423191634, 0.143920014972647, 0.14511991437789698, 0.14624309584194256, 0.14737446808277097, 0.14846466664958943, 0.14949876808802523, 0.15050534855825373, 0.1514704116521935, 0.15238565227310796, 0.15325426662176833, 0.15404863035277086, 0.15482450935115014, 0.15558188641479612, 0.15625099096832992, 0.15686948143721066, 0.15737140518671897, 0.1578938699828194, 0.1583799952573891, 0.15878498657522902, 0.1591330859280389, 0.15938422626767026, 0.159621610408994, 0.159807252815551, 0.15992111320645758, 0.15997382051323794, 0.16003219618831105, 0.15995276969384709, 0.1597670868591874, 0.15957526604360625, 0.1593201691702912, 0.1589503117239449, 0.1585737560780815, 0.15817613125882424, 0.15765881616430968, 0.15706274104134896, 0.15641709691667893, 0.155705060108945, 0.15491945106778135, 0.15407486448232474, 0.15321043983068133, 0.15222497510446417, 0.15117461723249942, 0.15004732929302822, 0.1488674006477379, 0.14763357093607726, 0.14631856930030493, 0.144937385426272, 0.1434005759586951, 0.14189792904925821, 0.14031453909798322, 0.13867087272721648, 0.13695666093336745, 0.1352468681064139, 0.1333843860776591, 0.13142635686054055, 0.12943942845339504, 0.12738669922544069, 0.12526860160454492, 0.12308558994996491, 0.12087641032723491, 0.11856018740925488, 0.11618270168752985, 0.1136966496459287, 0.11120344105503795, 0.10865649286592374, 0.10603688199516971, 0.10335639003444866, 0.10062503830205415, 0.09782386204239281, 0.09489503449306526, 0.09198723930580062, 0.08901894997680539, 0.08597295471616064, 0.08289000925035549, 0.07982365450081107, 0.07661745299042994, 0.07336051163469665, 0.0700257039275093, 0.06667296027201806, 0.06322608852968459, 0.05977984436308763, 0.05628317385160731, 0.052738658183948975, 0.049145218989456695, 0.04555661135986912, 0.04186565848639618, 0.0381340062895808, 0.03428599692949009, 0.030485300808442743, 0.026629604898900507, 0.022747636823070343, 0.018825868806378588