0.02293182377628864, 0.02205372638359189, 0.021243336377312728, 0.020498239557584192, 0.01972732222786831, 0.01909584813259365, 0.018493057450868055, 0.017928542325043526, 0.017389233101318475, 0.016878340042643637, 0.016377536435982942, 0.015949326989165156, 0.01547079092623042, 0.015007324614715128, 0.0144577919791466, 0.014032080648622715, 0.013622341486892509, 0.013206049376894007, 0.012796080432394025, 0.012378595490630369, 0.011984264768579427, 0.01160400481366555, 0.011223536823703601, 0.01085212472942125, 0.010401925073940117, 0.010062463785241893, 0.009779446551257648, 0.009448904070411495, 0.009131160790882446, 0.008802483468805885, 0.008516764066269417, 0.008266967389925198, 0.008009038559551, 0.007769310222796285, 0.007520326362076578, 0.007323342866776552, 0.007156299368649316, 0.006997618612239572, 0.006860885545908705, 0.00661212374607309, 0.006538854185315964, 0.006524980433087131, 0.006481779367536282, 0.006461249318377385, 0.006496475090119347, 0.006520606519260398, 0.006586567717983436, 0.00666481232266885, 0.00677272019557653, 0.006939126148937313, 0.007104105558101277, 0.007223589680011606, 0.007463754743254221, 0.007732498043499814, 0.007995193601246073, 0.008328089143409635, 0.008775128674547028, 0.0091562203910848, 0.009572981018165927, 0.009965256494150653, 0.01046150473120246, 0.010987066858717571, 0.011550218979461218, 0.012147461255211382, 0.012793680944971771, 0.013459363472743223, 0.014144192208941702, 0.01488639759343527, 0.015665502096825764, 0.016443118708605656, 0.017302867208664023, 0.018202750218312136, 0.0191361335423762, 0.020108074610349955, 0.021105170100467443, 0.022158354486976894, 0.023255116138418994, 0.02438872129838978, 0.02556413961620913, 0.026814016881349705, 0.02807113485594832, 0.029231993711463424, 0.030598780163361892, 0.03200405784684094, 0.033481314855678034, 0.03496407081673104, 0.036544619256465155, 0.03811073063269029, 0.039726226261289854, 0.0413276367732433, 0.04305117199823614, 0.044910411978446176, 0.04671764998705849, 0.048578640905444496, 0.050450894528386095, 0.05242507681752655, 0.05445454506159043, 0.05653228732809019, 0.05862043886640067, 0.06081001365287475, 0.06305112383202731, 0.06531972698938084, 0.06766937966590415, 0.07013172196706469, 0.07257933600648964, 0.07508433294484311, 0.07757243506602006, 0.08020232475248971, 0.0828541932571668, 0.0855967841762614, 0.08839309729851431, 0.09127956471157764, 0.09418159076454886, 0.09719512385689805, 0.10020738984210288, 0.10328169008284958, 0.10637889339368993, 0.1095819130470739, 0.11284452859446358, 0.116167002031991, 0.11954956711099628, 0.12293920766833295, 0.12644927880206047, 0.130013448087689, 0.13363981826142202, 0.13732467387067107, 0.14110038607089212, 0.14489941777105578, 0.14866758270144434, 0.15260103664996724, 0.15659064706639161, 0.16060870794953505, 0.164716143379742, 0.16887629599341267, 0.17309729995822346, 0.1773754308444006, 0.18175720745297155, 0.18614483550357205, 0.19057531867342198, 0.19508612342855217, 0.19965597969151086, 0.2043343844841137, 0.2090154850352187, 0.2136264765103138, 0.2184458195245447, 0.22331757308454966, 0.22833436385767517, 0.23330027318193983, 0.23828905227944652, 0.24337544568133246, 0.2485167869055221, 0.2536771693965108, 0.2589315791301069, 0.26419852607560984, 0.2695607549536339, 0.2749717922275188, 0.280495437841283, 0.2859957178765561, 0.2915975811131587, 0.2971945509704816, 0.3028445135779889, 0.30848588335977234, 0.3142456977262883, 0.32001949875192015, 0.3258745119714857, 0.3317722592940905, 0.33769450823289743, 0.3436784283312002, 0.3497237143918951, 0.3557845694719942, 0.36188557334473553, 0.36807202196702327, 0.3742449627747728, 0.3803941728779764, 0.38665415551753446, 0.3929480921129742, 0.3992148969772015, 0.4055820136957899, 0.4120801367498267, 0.41849002737036717, 0.42493282972290397, 0.43133966831411397, 0.4378524534149249, 0.4444787353873956, 0.45102901080623314, 0.4576072408687533, 0.4640910831605906, 0.47073540131179115, 0.47746686464039906, 0.4841339394992015, 0.4908198153936083, 0.49752310549693685, 0.5042424138665498, 0.5110153654355214, 0.5177575511597022, 0.5245137030496175, 0.5311614365854153, 0.5379555642828198, 0.5448581782237729, 0.5516422289127453, 0.5584327932811296, 0.56517844767935, 0.5719830946380527, 0.5787224152792397, 0.5855309261418539, 0.5923317711530509, 0.5992695767965884, 0.6060340556868108, 0.6126684783556221, 0.6194421893006433, 0.6262019344958558, 0.6330778904761727, 0.6397897201499777, 0.6463388685184492, 0.6530474274517131, 0.6597327105410641, 0.6664327863854466, 0.6730636129383909, 0.6796347389291968, 0.6862201058346478, 0.6927762218834258, 0.6993905232791242, 0.7058730632615267, 0.712373496902301, 0.7187916147896958, 0.7251798912044476, 0.7314436774330935, 0.7377768370136656, 0.7441674007220732, 0.7504027015128449, 0.7565987949498261, 0.7627392390480644, 0.7688520463053122, 0.7748544729291122, 0.7808804181364589, 0.7868524925889738, 0.7927019755551555, 0.7985708929949122, 0.8045094556979003, 0.8102376744906494, 0.8159098927257572, 0.8214708537955053, 0.8270317655166258, 0.8326022957816356, 0.8380225805153398, 0.8433793158505025, 0.8486314567808498, 0.8538600612987371, 0.8590100131495023, 0.8640949183442642, 0.8691049242515955, 0.8740918726439079, 0.8789412231447309, 0.8836684386297783, 0.8883698425479151, 0.8929891960148998, 0.8975678212770166, 0.90201393746947, 0.906380218669634, 0.9106575688017602, 0.9148486923929555, 0.9189592222081129, 0.9229726615240393, 0.9269102420255162, 0.930740424947681, 0.9344786910131232, 0.9380562604723719, 0.9416151880307017, 0.9450887040569638, 0.9484459879613792, 0.9517031697361777, 0.9548701169088414, 0.9579234261330988, 0.9609281503942148, 0.9637702847178945, 0.9665119635215017, 0.9691129507195184, 0.9716551151659839, 0.9740983475394073, 0.976426892729631, 0.9786485064547417, 0.9807731695581814, 0.9827776204543337, 0.984666760857809, 0.9864550422287338, 0.9881334814836082, 0.9897299762023705, 0.9911837169654422, 0.9925633419183381, 0.9937928002951033, 0.9949135173326775, 0.9958360330668697, 0.9967483133465934, 0.9975377952564404, 0.9982197988382185, 0.9987861542323938, 0.999301004028225, 0.9996288069988805, 0.999902127239299, 1.0, 0.9998758427989498, 0.99977052969921, 0.9995493454940106, 0.9992448034531386, 0.998789570197821, 0.9982077841722151, 0.9975299366833474, 0.996739591149337, 0.995911756890161, 0.9948885092377567, 0.9937123807858161, 0.9924814275496018, 0.9911411749158147, 0.989660227781684, 0.9881070731839852, 0.9864445727480591, 0.9846736504035526, 0.9827952398406969, 0.9807251304674404, 0.9786453619292059, 0.976534267980729, 0.9742275377273807, 0.9718190956445469, 0.969373740598918, 0.966756626511492, 0.9640371804237433, 0.9612310090517392, 0.9583303349286267, 0.9553110839837238, 0.9522269135131413, 0.9490032426237505, 0.945739343181597, 0.9423818967168368, 0.9389360912431091, 0.9353960148350415, 0.9317745894541549, 0.9280583259231265, 0.9242572228547159, 0.9203444525051094, 0.9163819493875405, 0.9123661239743099, 0.9082384557503634, 0.9040343427441041, 0.8997376409161314, 0.8953876977984915, 0.8909651819071525, 0.8864719094285554, 0.8819097040071819, 0.8772449162533477, 0.8725548383812648, 0.8677851714784071, 0.8629682454374222, 0.8580894033043507, 0.8532679570084953, 0.8482571146462903, 0.8430449381674272, 0.8379570679894633, 0.8328143842178348, 0.8276266059311479, 0.8223811972053828, 0.8170854948325065, 0.8117494259271362, 0.8063711361657955, 0.8010487613436439, 0.7955808876705469, 0.7900901732573952, 0.7845630043731925, 0.7790093230225973, 0.7733065034166617, 0.7677202491753018, 0.7621870020743177, 0.7565359733690977, 0.7508663428520063, 0.7451268393822493, 0.7394326111749276, 0.7337865795185499, 0.7280553730273953, 0.7223169194443794, 0.7165801684877644, 0.7108319158702696, 0.7049866666797133, 0.6992500173938418, 0.6935105878591914, 0.6878065643629364, 0.6820651267246012, 0.6762917650365756, 0.6705716860233747, 0.6648609226870172, 0.6591016350524223, 0.6534245057842375, 0.6478918478757538, 0.6422272901879377, 0.6365887667456783, 0.630889102247619, 0.6253184896123507, 0.619731053945703, 0.6142196779595601, 0.6087362882292569, 0.6033650521733029, 0.5979348949764112, 0.5925304985922615, 0.5871836703792896, 0.5818792567396239, 0.576576424008452, 0.571367440349978, 0.566232051289002, 0.5611119325900658, 0.5560426262631321, 0.5509442124629744, 0.5459918872227897, 0.5411156153250886, 0.5362648441841904, 0.5314710983535441, 0.5267788077264876, 0.522099214232262, 0.5174205174358838, 0.5128798376953624, 0.50840294138131, 0.5040696763629524, 0.4997157572169844, 0.4954351202710015, 0.4912286898434709, 0.4870973981015946, 0.4830315365340598, 0.47905467625615566, 0.4751161321195707, 0.47129991030479523, 0.4675608461513493, 0.46385054670388276, 0.4602758597967325, 0.4568643553154647, 0.4534364500552566, 0.4500942358977323, 0.4468454136379581, 0.4436754879858194, 0.44050827629728684, 0.4375253673399503, 0.43462655634983244, 0.43178107715970293, 0.42905789956639845, 0.42644151716063455, 0.4238877927390526, 0.4214229156610685, 0.4190653579823158, 0.4167780425142001, 0.41453993923019883, 0.41244193835596354, 0.4104339846468571, 0.4085911753088552, 0.40675555720288575, 0.4049092025588489, 0.40327818135320476, 0.40173633067750936, 0.4003622729311313, 0.39899046354893225, 0.397653229566262, 0.39647844128350157, 0.3953943548823861, 0.39436908837624546, 0.3934705162491192, 0.392706893425838, 0.3919802101931202, 0.3913449872558135, 0.39077589508490984, 0.390325213225372, 0.3899381553068931, 0.3896671169808514, 0.38948224211755866, 0.38944350281554385, 0.38942220354393053, 0.38943239489723175, 0.3895937284783669, 0.38983799154502874, 0.3902000330026664, 0.39060370036805786, 0.39102986546646445, 0.3916056771848531, 0.39225866508360746, 0.3930058913262504, 0.39380886777135643, 0.3946628947240564, 0.3956197286476101, 0.3966488882186912, 0.39772457729949234, 0.398898580885672, 0.4002149431332756, 0.40151426114045274, 0.4028836091406986, 0.40429998274579626, 0.405806940597974, 0.40737050147200654, 0.4090042174358037, 0.4106981360971438, 0.41236557541032365, 0.4141860605232373, 0.4161424632317696, 0.41805277987597095, 0.42001667903238443, 0.4220855648259849, 0.4241444373366507, 0.4261727955333867, 0.42834190746138867, 0.4305530457873425, 0.4328295234812083, 0.43511695581942433, 0.4373685906844289, 0.43974102253933983, 0.44221523926644324, 0.44463906867641867, 0.4470950732076898, 0.4495280274727705, 0.4520491055540426, 0.4546182067298609, 0.45718094658822717, 0.4597650758159707, 0.46229776401448774, 0.46492802737751604, 0.467694235483608, 0.47033097373639027, 0.4729836788796012, 0.47556470314658117, 0.47825269435929757, 0.4809090911094996, 0.4836077009524816, 0.4863048837782479, 0.4889992103351305, 0.4916891867783985, 0.49435906953518705, 0.4970374377525412, 0.499705863465019, 0.5023947128787762, 0.5050344679573995, 0.5077357519214071, 0.5103381788402072, 0.5129279273523574, 0.5155166628124603, 0.5180717618348578, 0.5204621675905207, 0.5229948185039164, 0.5254953576809607, 0.5279981895531897, 0.5304267136782443, 0.5328252234303217, 0.5351846197577561, 0.5375075333868718, 0.539870423755452, 0.5421057012970398, 0.5442756953278439, 0.5464385496216826, 0.5485585682737164, 0.550623289134183, 0.5526535793270124, 0.5545925532436997, 0.556529163482575, 0.5584115065140859, 0.5602738890258614, 0.5620396785891612, 0.563746100641846, 0.5653992300068259, 0.5669934403472694, 0.5685167248891445, 0.5699903924051526, 0.5714857217973979, 0.5728204663043892, 0.5740941882301589, 0.575198645695328, 0.5763585060564029, 0.5774817977709088, 0.5784924516150352, 0.5794317958946024, 0.5803131003347503, 0.581105295145638, 0.5817285070239564, 0.582385514618271, 0.582962140470951, 0.5834831526001902, 0.583895618556486, 0.58421810818375, 0.5844728680171049, 0.5846469222848751, 0.5848144853647212, 0.5848168135985519, 0.5846885032267538, 0.5845418420439144, 0.5843130897243259, 0.5840409848613705, 0.5836422669114611, 0.5831486605380003, 0.5825898237236045, 0.5819485209553376, 0.5812635125039103, 0.580451585523866, 0.5794806683223904, 0.5785163201899955, 0.5774658885298553, 0.5763155498715017, 0.5750958552813817, 0.5737691085731195, 0.5723810792664248, 0.5709070891211897, 0.5694116759765484, 0.5677596854316402, 0.5659669709330251, 0.5641619249624996, 0.5622734078225708, 0.5602986087232196, 0.558245809274603, 0.5561612280171999, 0.5539400105825558, 0.551641682327951, 0.5491814798316335, 0.5467409379533384, 0.5442659957075582, 0.5416598255841693, 0.5389782029317693, 0.5362787334466208, 0.5334415613161394, 0.5304743962893368, 0.5275059711321153, 0.5244655102716537, 0.5214144551408824, 0.5182256805701012, 0.5149326456443281, 0.5116190382451488, 0.508239476770173, 0.5047064193792808, 0.5012096848505857, 0.4976491475682677, 0.49401922970978374, 0.4903260347160299, 0.48668493179110295, 0.4828562680293, 0.47893348743914244, 0.4750079407382086, 0.4710301769994813, 0.4669837806935644, 0.4629078364098755, 0.4587721122212862, 0.45460080902689176, 0.45038291676793885, 0.44613785171989095, 0.4418295659166597, 0.43747007413014155, 0.4330835519240214, 0.4286589740476426, 0.4241518829339721, 0.4196620410237421, 0.4151436837284621, 0.4105837863603496, 0.4059927681216195, 0.40145062565475265, 0.3967932831924666, 0.39210075262494604, 0.3874044630512468, 0.3826889423223348, 0.3778776125997057, 0.37313798252490915, 0.36838638971559073, 0.363609952744539, 0.35881922015379203, 0.3540517260334353, 0.34923403657986846, 0.34446331686086507, 0.33962805957565684, 0.3347928788184581, 0.3298845161537685, 0.3250627273820069, 0.32028688644303355, 0.31546091469712456, 0.3106413306841212, 0.3058155094721742, 0.30101521367399725, 0.2962146095362608, 0.29143804967414094, 0.2866746561726643, 0.2818836373146224, 0.277157298634196, 0.27247187103224474, 0.26777660575257034, 0.2631028770213804, 0.2584204946899453, 0.25379907586570666, 0.24925930990102724, 0.24468238596568, 0.24013728729500328, 0.23563954160650952, 0.23116030689442627, 0.22667867518891086, 0.2222788634339382, 0.21791594809220496, 0.21355599879749798, 0.20927598054026905, 0.20505670249417315, 0.20085462425264508, 0.1966965809774106, 0.192591091399983, 0.18852444660740977, 0.18455605403092204, 0.18058152890369014, 0.1766608285233905, 0.17271312877341102, 0.16891276696494098, 0.16519243825434493, 0.16149326395465874, 0.15785021630041296, 0.1541863393308528, 0.15066868607664669, 0.1472698364173269, 0.14385559161896952, 0.1404391053051337, 0.1371570589133394, 0.1339347591141426, 0.1308409306259181, 0.12773342725329406, 0.12472147186079861, 0.12174518960449598, 0.11883861814191979, 0.11595230853746763, 0.11319212662750228, 0.11051731251703469, 0.107890785286755, 0.10533411806999773, 0.10279448991085582, 0.10038544730613287, 0.09805148867954136, 0.095778261866873, 0.09357481202745854, 0.0915197158841471, 0.08944743259649579, 0.08741517544293045, 0.08549809021409405, 0.08365393297234475, 0.08190400799941557, 0.08020303527514062, 0.07852647968444007, 0.076979736928406, 0.07550382349857962, 0.07415211212418865, 0.07281151733547749, 0.07149533493891613, 0.07030874271670795, 0.0691925452472495, 0.06810410781184717, 0.06713385783938182, 0.06629159724372395, 0.06544918620241125, 0.0646779889375876, 0.06395617928819569, 0.0633284702535643, 0.06271943407583333, 0.06223427268115502, 0.06181377180856561, 0.061518137051036016, 0.061218900631505126, 0.06095872182135066, 0.06079711217122038, 0.060699643992054124, 0.06065502789736135, 0.06068521211340912, 0.06077333406120596, 0.060926259751399245, 0.06113906752017565, 0.061478431749545724, 0.06180021191985831, 0.062147821339813586, 0.06259530108799034, 0.06309931330678001, 0.06365169425243426, 0.06426645312657447, 0.06495184469607683, 0.06566909324661314, 0.066438107071991, 0.0673357125212625, 0.06819468515057764, 0.06894643036673055, 0.06992860482919684, 0.0709505971037982, 0.07214324420165584, 0.07322683466456247, 0.07428146687541054, 0.07546380655449557, 0.0766840139241915, 0.07796229987732829, 0.07925228478305699, 0.08053187903916452, 0.08189783060429479, 0.08329425185452183, 0.0847946814115021, 0.08623965209372293, 0.08770201884462665, 0.08921025561880794, 0.09074591089560437, 0.09224714649527542, 0.09384072531282187, 0.09545028199078702, 0.09708237429199182, 0.09873177197724876, 0.10049322817264815, 0.10216193966966136, 0.10374362650973551, 0.10546271154666728, 0.10719145731507614, 0.10898924085722418, 0.1107268060077837, 0.1124602560122352, 0.11421821288870515, 0.11598236186556561, 0.11774776342911673, 0.11952058157990321, 0.12123138270321802, 0.12301464550915994, 0.12479351965124373, 0.1265955886754613, 0.12835963610884357, 0.13015380704463692, 0.13190147813480632, 0.13364342846118013, 0.13538883313549768, 0.13711362176271977, 0.13880769053606767, 0.14051485321914448, 0.1422085196645043, 0.14388393803985625, 0.14554746655769368, 0.1471405170884589, 0.14877514121382043, 0.15038729125683598, 0.15202242815514633, 0.15358176488160744, 0.15505170002557397, 0.15657445893653585, 0.15806921479470448, 0.15958155731065005, 0.16101282354325536, 0.16241339968128166, 0.16378981872139867, 0.1651368959671025, 0.16649982162673532, 0.16777959604832254, 0.16893052465501876, 0.1701626265931546, 0.17135724465783994, 0.17259922848257928, 0.17370715499008207, 0.17480619050557425, 0.17584243834509067, 0.1768442547974456, 0.17778565094078352, 0.1787183749808761, 0.1795517491171915, 0.18041332514978856, 0.181231104371938, 0.18209010372359416, 0.18280908607757287, 0.1834566492942709, 0.18409983343898045, 0.1847000894649774, 0.1852853482473943, 0.1857948334314795, 0.1862014139674814, 0.18663278301329853, 0.18701710130624336, 0.18740762774266673, 0.18769122002728497, 0.1878705297202598, 0.18807342706332358, 0.18822824355583148, 0.1884096922574823, 0.1884595209116423, 0.18851215777522148, 0.18846910438100606, 0.18838456947778243, 0.1881195351221197, 0.1879677286424876, 0.18782540351097854, 0.18756507814846088, 0.1872588166033151, 0.1869245649117452, 0.18652482647936497, 0.18598148311998045, 0.1855059256521857, 0.18498083892505812, 0.1843930375533574, 0.18377364567388368, 0.18321676238870618, 0.18248944892657654, 0.18172268045353637, 0.18092707165966512, 0.18008002744128165, 0.17908424696141712, 0.17817370509428607, 0.17721847551072528, 0.17630126094557014, 0.17524957019292614, 0.17419639093207243, 0.17306657884521115, 0.1719024480389919, 0.17062605432719768, 0.16940358204877853, 0.1681678252570709, 0.16686693093645197, 0.16553121665956283, 0.16419334944678743, 0.16278617213091975, 0.16124886077752137, 0.1597931937506312, 0.15830224864173925, 0.156873230426952, 0.15530376821996558, 0.15367650891036097, 0.15205983032936804, 0.15041649576923055, 0.14869766346495464, 0.1470098095099117, 0.1453092426224583, 0.14356705335471756, 0.14181899889573626, 0.1400284390471927, 0.13821742248917698, 0.13632654275509276, 0.13448498286377977, 0.13267201019263586, 0.13078340882743214, 0.1288792808395998, 0.12698892218898822, 0.1250528889790524, 0.1231234110100941, 0.1211634618505685, 0.11919475299427981, 0.1171469401193362, 0.11517158700328195, 0.11323870191663844, 0.11123642072150162, 0.10922895457083376, 0.10713195599768995, 0.1051273339709312, 0.10318974498043913, 0.10116229136688198, 0.09913456330949529, 0.09713220949855396, 0.09510324122895342, 0.0930104534033005, 0.0909978504756389, 0.08898639265091601, 0.086931207284585, 0.08493159054499128, 0.08304416089260445, 0.08103652989489309, 0.07904019776279674, 0.07700595880878731, 0.07503995413133217, 0.07312656740046503, 0.07117623918538034, 0.06924027980493278, 0.06729444823893843, 0.06539217806660574, 0.06342312680472938, 0.06156168103843882, 0.059712173048760094, 0.05795059582838759, 0.056119890520890336, 0.05430946993133481, 0.05251995255760284, 0.05075195673433132, 0.04901319554605634, 0.04728919275474784, 0.04552508226701218, 0.043857220321627186, 0.04221062651168969, 0.04063248513297523, 0.039025702145503924, 0.0374741385942724, 0.035917934274968547, 0.03439114833793569, 0.032890487224883275, 0.03142376910896448, 0.030001278998388514, 0.028593165439967875, 0.02721654587214538, 0.025896479995431765, 0.024580390065552637, 0.02330144430265582, 0.022052154751772777, 0.020836804402575, 0.019566771978224224, 0.018430788820830185, 0.017334726333766277, 0.016256801967948195, 0.015210377759048503, 0.014224454748362664, 0.013239230877474431, 0.012267487932177964, 0.01135471968641489, 0.01047595409621648, 0.009599611699589814, 0.008793909642499504, 0.008028453150906022, 0.007288643029188171, 0.006583293623639541, 0.005909158571503662, 0.005274032457980397, 0.004744883826355292, 0.004170996750903913, 0.0036364276586840208, 0.0030910262054884754, 0.0026399766898970215, 0.0022844355416423985, 0.0018961396802172276, 0.0015463906008160912, 0.001153036121612194, 0.0008890985007235793, 0.0006611337402405009, 0.0004617895487795385, 0.00029539169230980355, 0.00020456124731987725, 9.875051447803983e-05, 3.890018352719298e-05, 1.9340136124069577e-06, 0.0, 6.805477040381593e-05, 0.00013013287930861207, 0.00010349898227926528, 0.000251439145965491, 0.00042634550692579985, 0.0006959147930285372, 0.000916978359537332, 0.0011338759433821243, 0.0014215342390083577, 0.0017374644602341767, 0.0021807650167357134, 0.0025398836700853806, 0.0029035899811593073, 0.0033310786291016123, 0.003787683215721618, 0.004190983815794314, 0.0047137274300386054, 0.005389923531298343, 0.0059403150023627175, 0.006519993307345796, 0.00702123957569839, 0.007669205802323059, 0.008393654965046763, 0.009073653385208276, 0.009776069819244447, 0.010478844585813177, 0.01122648946264992, 0.012010822222101859, 0.012793550515515884, 0.013595072954698863, 0.014379171131290456, 0.015220563781172943, 0.01609785396727786, 0.016965333892962425, 0.017847708830721593, 0.01874430771123959, 0.019654453733968732, 0.020605850312462502, 0.02153745076911507, 0.0224821315792186, 0.02344961443182009, 0.024416366623363918, 0.025390552895900118, 0.026378778625947296, 0.027375937872278554, 0.028359886931177598, 0.029375061979516993, 0.030427406349753765, 0.03144838902676869, 0.03247514211463938, 0.033510321453061286, 0.03454551798272973, 0.03559473407724467, 0.03663449203981988, 0.037676562509037594, 0.038720066316310114, 0.03976415665159265, 0.04081511279256754, 0.04185705503018198, 0.04289761072144543, 0.04391469248507089, 0.04495280053069784, 0.04604988326999393, 0.04706958339046302, 0.048086881913770564, 0.049090077440187674, 0.050100814588290854, 0.05115170251810801, 0.05214386843733519, 0.053131112225629766, 0.05403429320460203, 0.05501840069361594, 0.05613567252753689, 0.05707653169963423, 0.05801276268281111, 0.05891454790959254, 0.05984094840037773, 0.060739477968245935, 0.06164702186219792, 0.0625418322153936, 0.06351205317123924, 0.06436854146107354, 0.06518378157329942, 0.06602452033580375, 0.06685195699787695, 0.06764767947296486, 0.0684488089196985, 0.06934381693501053, 0.0700984651719927, 0.07084251739043142, 0.07146836441462096, 0.07220132972676005, 0.07295366370978287, 0.07364243824415072, 0.07431387123338101, 0.07503157545382415, 0.07565952290734448, 0.07617725435337008, 0.0767878161032546, 0.07744120818099508, 0.0780018968032866, 0.07854566470249529, 0.07901191755534566, 0.07952869295345742, 0.08010608505464907, 0.08057090136853554, 0.08101996786636897, 0.08139615730080994, 0.08181989729725166, 0.08225220496972888, 0.08263299727067443, 0.08299611146739302, 0.0833096499455105, 0.08364157766612161, 0.08405711138737532, 0.08433780782048209, 0.08460569946504223, 0.0848425600167749, 0.08508572490491047, 0.0852323043290096, 0.08545575355638417, 0.08565954182331988, 0.0859011223446477, 0.08606042278117597, 0.08626551413839627, 0.08638826579465993, 0.08650017662465624, 0.08658322051798636, 0.086674926959732, 0.08677194378117478, 0.08683665021226082, 0.08689018088907266, 0.08681905264296212, 0.08686482351670853, 0.08698919739087865, 0.0869895947107331, 0.08698037286810004, 0.08690144882715872, 0.0868813641538843, 0.0868207164000651, 0.08678069801069133, 0.0867285447244339, 0.08671848455178252, 0.08663829658948985, 0.0865234424165836, 0.08643472126025448, 0.086339021693079, 0.086268977355415, 0.0861573700038495, 0.08604618647268124, 0.08592829069159082, 0.08580831126754743, 0.08565474069111517, 0.08553593379797102, 0.08542169537912912, 0.08529768406727016, 0.08517302692032026, 0.08509451666776983, 0.0849647316086073, 0.08480339754194434, 0.08468625183069635, 0.0845716667161823, 0.08449932896857473, 0.08438690130868691, 0.084213781727705, 0.08412366973444597, 0.08403722619545667, 0.08400153784988297, 0.08391944423487559, 0.08384638403749206, 0.08378284806497388, 0.08372934571596982, 0.08374672206256954, 0.08370725301065017, 0.08356218464564938, 0.08356812581264915, 0.08358256297329324, 0.08362441636551635, 0.08365707462659777, 0.0837416007111274, 0.08379585516305392, 0.08386681567674172, 0.08395850860924967, 0.08406387776226242, 0.08419826126156513, 0.08433950047660485, 0.08450066873514314, 0.08469991433624417, 0.084899936113869, 0.08501925379824345, 0.0852769776575772, 0.08555175730549605, 0.08579864714632399, 0.08611682842925213, 0.08658405563457214, 0.08692248272841044, 0.08728856654033304, 0.0876539721441034, 0.08807914823964341, 0.08851290882713239, 0.08899335862485959, 0.08949989464932874, 0.09002948393667244, 0.09059016401623216, 0.09111789044236109, 0.09174140575961813, 0.0923898324940225, 0.09310666367789444, 0.09380219166962087, 0.09457365040077759, 0.09532329951329978, 0.09610600913116778, 0.09680107253735472, 0.09766497660109971, 0.09864019523113039, 0.09954661628929436, 0.10048580493969717, 0.10145074703443556, 0.10245661163356688, 0.10347379274543488, 0.10454768724253306, 0.10565323342980042, 0.10680134771769369, 0.10796963248798058, 0.10924539229100738, 0.1104702712746013, 0.11173245484506987, 0.11290721064305981, 0.1142581237862395, 0.11570886029094968, 0.11710912182299824, 0.11854334199799116, 0.1199368735573335, 0.1214480225262041, 0.12297078989903173, 0.12454334995651133, 0.12614509078259456, 0.12790418214661944, 0.12954935289463587, 0.1311751544651478, 0.13290147544400757, 0.1346604096805518, 0.13643750253780745, 0.1382626619514346, 0.14012236980156853, 0.14200890166322538, 0.1439262485671876, 0.14585641171966326, 0.14783683817184445, 0.149803672585823, 0.15184728070426917, 0.1539171006464983, 0.15601677769253922, 0.158138788984632, 0.1603937292723117, 0.16255511074375031, 0.164748619068328, 0.16691283736415463, 0.16917499284268742, 0.17138116211514431, 0.1737044272583003, 0.17604780996975525, 0.17852146961898185, 0.18089157834214142, 0.18327754201446692, 0.18570100559391586, 0.1881484258630952, 0.19060122260685608, 0.19309629767033487, 0.19560476573118982, 0.19814106168389772, 0.20069613049539914, 0.2032870988119847, 0.20587561219941125, 0.20848910267767798, 0.21111167981145973, 0.21375093948810417, 0.21634926100378166, 0.21902652351790444, 0.22167218057816776, 0.22437640071536938, 0.22708840902355534, 0.22993935895030865, 0.23264987068624013, 0.23533232241217347, 0.2380758349512959, 0.24082870508598164, 0.24353321247796073, 0.2463091392478189, 0.2491026157727525, 0.25188300000994546, 0.25466656486625777, 0.2574490930129378, 0.26023743437198105, 0.2629947407979368, 0.265788205851054, 0.26857933206108414, 0.27136052523052306, 0.2741463273472649, 0.27699871729677483, 0.2797662194751244, 0.2824292366497163, 0.28520534620354415, 0.28797167549089203, 0.29066757550838224, 0.29342090924516395, 0.2962947107300366, 0.2990022322451469, 0.30170277059746153, 0.3043701574217728, 0.3070559231722246, 0.3096301060040278, 0.3123029640818747, 0.3149560221466187, 0.31768135474890796, 0.3202825273953468, 0.32287893721899075, 0.3254467980713824, 0.327997578743473, 0.330537201729175, 0.3330494431159073, 0.3354954719688206, 0.3379722548688161, 0.3404241665889885, 0.3428398927902768, 0.34524138776061786, 0.3476082780189366, 0.34995504321851495, 0.3522726659050731, 0.35454637231575464, 0.35680574435644097, 0.35903338627847026, 0.3612287889917524, 0.3633914206889474, 0.36559524260118215, 0.36768124426520105, 0.36969793271228907, 0.3717271173819663, 0.37372152560260513, 0.3755775194215065, 0.3775131822215176, 0.3794558042143833, 0.3812998991313318, 0.38310426952723203, 0.38497849519903427, 0.3866882524435622, 0.3883489818364742, 0.38998953027998895, 0.39159188534715267, 0.39303439033726895, 0.3945726305897022, 0.39604532772069356, 0.39749036393512177, 0.3988868550940342, 0.4002669186875344, 0.40156276861258716, 0.4028477119866347, 0.40404605476831523, 0.4051995015019439, 0.4063713721935161, 0.40742534098434846, 0.40841161183523433, 0.4093820305138643, 0.4103063491011631, 0.4110633382875682, 0.41190899074171033, 0.41285273045506765, 0.4135706544343459, 0.4142436442434527, 0.41477506289931293, 0.4153678831647239, 0.41589396696526676, 0.4163836891815639, 0.4168204393145197, 0.41715481195919507, 0.41749267698949516, 0.41787840414345834, 0.4180937833871185, 0.41826102566146756, 0.41829816703458017, 0.4183784390366844, 0.41840153321632734, 0.4183754432453885, 0.41829638436293953, 0.41815411965688726, 0.4179716611215515, 0.4177438686794516, 0.4174560681245182, 0.41711703945901224, 0.4168051511170973, 0.41635471077841657, 0.41586186704034805, 0.4153187329026698, 0.41472923844869036, 0.41408961217555773, 0.4134072455704564, 0.41266011328274643, 0.41188594076282403, 0.4110638016349092, 0.4102400675218869, 0.40931692736455694, 0.40831019932109774, 0.4073028344938764, 0.40624870461554713, 0.40513757102058723, 0.403992495610793, 0.4028403676849402, 0.40159874438500354, 0.40031434097418733, 0.39895547829999495, 0.3975903630423648, 0.39618157723833936, 0.39472976330835047, 0.39323556904370144, 0.39171029243470407, 0.3901319578743458, 0.38843221029155767, 0.3867851700996595, 0.38509493303767, 0.38332729088821205, 0.38155890017145144, 0.3798624903096907, 0.3779980008747591, 0.3761009988054094, 0.3740830906997466, 0.37213326038368116, 0.3701895912101183, 0.36816270094429054, 0.366104048030488, 0.36410305760111117, 0.3619718290640287, 0.35968115802288414, 0.3575177735814437, 0.35532234287497977, 0.35318839988832745, 0.3509209991298815, 0.34864460095236555, 0.34632941201163897, 0.34399265452804684, 0.3416347004542108, 0.3392559793990291, 0.3368002024360458, 0.3343886188006641, 0.33195466584895206, 0.3295277963803262, 0.3270486961491954, 0.32446325384272456, 0.32196087344110946, 0.31943744727694356, 0.3169122299494616, 0.3143489305122138, 0.31185504694215505, 0.30925065386400347, 0.30663756715479934, 0.30398424533563634, 0.30135903717176066, 0.29876015175861936, 0.29611292885212614, 0.2934601236525792, 0.2907774148909904, 0.28811817333532, 0.2854855525695616, 0.2828124705733986, 0.28013751700974954, 0.2774115892466193, 0.2747409221846809, 0.27205321414649924, 0.2693797037734932, 0.26670463830975816, 0.2639794620856026, 0.2613108848562368, 0.2587121709652917, 0.2560338302071836, 0.2533611102076984, 0.2506840513538447, 0.24802597706703125, 0.2453466049516783, 0.24270707266492944, 0.2400745801961743, 0.2374430165848826, 0.234828418740816, 0.23222330604346306, 0.22962861363361586, 0.22704523874310545, 0.22458403737816413, 0.22201194523786322, 0.21942080702675235, 0.21689350683411754, 0.2143838627765117, 0.21179998422391275, 0.20933843052065157, 0.20691890605606847, 0.20448222558456514, 0.2020630558493335, 0.19964800570772936, 0.19726802084263836, 0.194896404996509, 0.19255660749294126, 0.19023681079088273, 0.1879875042958283, 0.18570382435657956, 0.1834594279886788, 0.18122441557928795, 0.1790158621967157, 0.1767629902305679, 0.1746169062824096, 0.17257552435562562, 0.17046611942721057, 0.1682901479704635, 0.16625136499631477, 0.16423655120247133, 0.16232818210257546, 0.1603535173531701, 0.1583565678177522, 0.15645051735646845, 0.154572459966206, 0.15271223225258368, 0.1508929142763782, 0.14911297394798656, 0.14735024105789793, 0.14561772737466028, 0.1438625103418337, 0.14219803964040106, 0.14054388594501716, 0.13893842928753802, 0.13736126962440032, 0.13586273438587043, 0.134337765250607, 0.13290237338949074, 0.13143586904637097, 0.13000540479915426, 0.12862827104325247, 0.12726633759304068, 0.12594021903719183, 0.1246494431226478, 0.12339358632333976, 0.12210485244545997, 0.12092625280349585, 0.11973517512824812, 0.1186224171950351, 0.11753784156492457, 0.11648196272452462, 0.1154552136477678, 0.1144934341294144, 0.1135214633013487, 0.11258148611713258, 0.11169822203939013, 0.11081872025768552, 0.10999348840198021, 0.10917688769683968, 0.10839373426436309, 0.10765769794490661, 0.10693810331594907, 0.10629384086578787, 0.10563380617785366, 0.10500781815364593, 0.10431922936013005, 0.10377097448670426, 0.10327033126326354, 0.10277213049955441, 0.1023015984905962, 0.10184082730252557, 0.10142735268929795, 0.10102933998997747, 0.10066933593865876, 0.10033462728430922, 0.10004288042573932, 0.09975625311990126, 0.09948492368879573, 0.09925119124602491, 0.09904211621082355, 0.09883967639635524, 0.09868129061430647, 0.09855629460224131, 0.09844184557890757, 0.09835028618284639, 0.0983344744303498, 0.09828085054387076, 0.09825904656655798, 0.09825312473486257, 0.09827066710459349, 0.09827890735762193, 0.09834495544029694, 0.09841964226042418, 0.09852512853587428, 0.09864834732611094, 0.09877115934103282, 0.09893087583434398, 0.09912383026310198, 0.09931199956843716, 0.09951603577882795, 0.09971060456020069, 0.09994801713195504, 0.10018774764952947, 0.10045211544497008, 0.10072818735158857, 0.10110792971616786, 0.10139485225050639, 0.1015983488786467, 0.1019285590054772, 0.10226694364779915, 0.1026168579142214, 0.1029705202027164, 0.10337442902372021, 0.1037377056276346, 0.10411033499735822, 0.10442062076894011, 0.10481875094833881, 0.10533365658386755, 0.10572379491067496, 0.10612327945270532, 0.10646003012555079, 0.10688390124314413, 0.10730289707848767, 0.10773175637037236, 0.10816171907971188, 0.10856052554032777, 0.10899573452019219, 0.10949663444392001, 0.10991974853946598, 0.11034463292910517, 0.11067119033847368, 0.11110996427043243, 0.11162439037973242, 0.11204107393215113, 0.11245658836674673, 0.11279931583951608, 0.11321952521050933, 0.11367526712403235, 0.11407598418578557, 0.11447195921999881, 0.11486983308889344, 0.115254063364012, 0.11563614158619005, 0.11600802196974179, 0.11637341220418282, 0.11673535623104626, 0.11708582084346887, 0.11738595110132893, 0.11772580068815333, 0.11805455034239437, 0.1184430554144416, 0.11874028242949483, 0.11900160907341953, 0.119286650752779, 0.11956115066158307, 0.1197750239540266, 0.12003350876242315, 0.12028458439119653, 0.12051320308504963, 0.1207277656179144, 0.12099915851757542, 0.12117638703674027, 0.12131487447063667, 0.12147428809826781, 0.12162042867651744, 0.12174940055449776, 0.1218684247486837, 0.12202977464621088, 0.12211247874778947, 0.12218343721219442, 0.12219939701470717, 0.12225029539454878, 0.1222639554971046, 0.12228551332880741, 0.1222896721125513, 0.12230487944655075, 0.1222708280681805, 0.12224596756815077, 0.1221772935023389, 0.12209401142024644, 0.12194610314181095, 0.1218389001727943, 0.12178081828759822, 0.12162868386855451, 0.12146238680996681, 0.12121412485530997, 0.12102692285796064, 0.12077465361643519, 0.12055571295462471, 0.12031584046294626, 0.12006631666747776, 0.1197850776452159, 0.11953844701318395, 0.11921362598506072, 0.1188738946651209, 0.1184978466711605, 0.11813066108292997, 0.11771871082258821, 0.11732248421471873, 0.11690854290327912, 0.1164985347798492, 0.1160475227082393, 0.11564131175781273, 0.11515175727180436, 0.1146503153832926, 0.11415082502303088, 0.11362281893984158, 0.11304027640800544, 0.11249345284473619, 0.11193177795197252, 0.11135898268896502, 0.11076771675871508, 0.11014109284956389, 0.10952456865454169, 0.10889316964873061, 0.1082472803942297, 0.10758727571912474, 0.10694545569403914, 0.1062542747098554, 0.10550572296868092, 0.10479797657508909, 0.10407660707707102, 0.10332793624048514, 0.10258263536870633, 0.10186696967503855, 0.10109096593695777, 0.10030551180530532, 0.09945045540846602, 0.09865424712116798, 0.09780318022065494, 0.09698849701090509, 0.09616050249932263, 0.09543014741750931, 0.09456441495134843, 0.09366934854381162, 0.09279762218593991, 0.09191977632256774, 0.09103951920221859, 0.09014948543700062, 0.0892611650304246, 0.0883596539462089, 0.08745354900047843, 0.08656075649576628, 0.0856437400155875, 0.08469885151395204, 0.08377899191942322, 0.08285491059761362, 0.08185244754653359, 0.08093040246723125, 0.08003295184568371, 0.07909314914228155, 0.07814964331370183, 0.07724202730461877, 0.07628784142530148, 0.07527698001080092, 0.07433033620030423, 0.0733809664424591, 0.07254307669612911, 0.0715758498504292, 0.07056446615117937, 0.06961419370689792, 0.0686660101881243, 0.06765979079322613, 0.06672401175068117, 0.06587272514447647, 0.06492557609420878, 0.06398394347859314, 0.06298745600704529, 0.06206437077965711, 0.061150485288497945, 0.06023126170046517, 0.059315615141589305, 0.058496238028874166, 0.05757738311328539, 0.05659049101313394, 0.05570120114683048, 0.05481693034596251, 0.05391326562702177, 0.053043430276855666, 0.052295536122525015, 0.05142117746653434, 0.05055936102255838, 0.049624495092522, 0.04879730836172369, 0.04796617815310696, 0.047154215256613966, 0.0463492823039145, 0.04561221048634048, 0.044815214033680904, 0.04387749997215355, 0.043123436634158546, 0.04237256520249486, 0.041704166777567, 0.04095334533506779, 0.040259515706044934, 0.03952483840984984, 0.038804088462136496, 0.038104203261586464, 0.037409965044514944, 0.03665515373582975, 0.035998081294977176, 0.03535052873288964, 0.034720111926828404, 0.034092207951939506, 0.03346853124547666, 0.032864489553814095, 0.03227197540625293, 0.03169129955680284, 0.03112273747182104, 0.030587821425675694, 0.030041495153713998, 0.029509120931342035, 0.029061653421158906, 0.02854818286313424, 0.027963912156534695, 0.02749688284793953, 0.027041682361507308, 0.02669082417469738, 0.026248366545596927, 0.025756186075639072, 0.025357065964003493, 0.024970778167988376, 0.02455838845627456, 0.02420297291513584, 0.02394005187381509, 0.023596458707833983, 0.023269016760299917, 0.02292895460306722, 0.02263628463563632, 0.022289710464663996, 0.022032531498740893, 0.02178496752251318, 0.021593626665391243, 0.021360835555691782, 0.021155681450912348, 0.02094790265993459, 0.020754194053041998, 0.02064885789165863, 0.020473247908695175, 0.02023367593679345, 0.020102889001849897, 0.01998367199705037, 0.01986894678108064, 0.019773803574239093, 0.019675641067849838, 0.019604663540399504, 0.019544089412142515, 0.019533044389563846, 0.019488596181237945, 0.019417902239943097, 0.019403647990554936, 0.019399382022734436, 0.019465452799240338, 0.01947359642160553, 0.019459636854531143, 0.019498490303734378, 0.01954770221441829, 0.019582259747124034, 0.019654797640029253, 0.019732211450458198, 0.019822056622806374, 0.01992011855751884, 0.020040573274781988, 0.020153196394680224, 0.020274702049988057, 0.020404883728182475, 0.02054352839832857, 0.020693965313120746, 0.0208484252326266, 0.0210215196187015, 0.021190351722432367, 0.02136724732892833, 0.02154476234113366, 0.021737649522385247, 0.022025894091506217, 0.022220610021148602, 0.022426435742859175, 0.02255014690104188, 0.022787031106392845, 0.023062674659807825, 0.023301640859924172, 0.023545875872236815, 0.023869569259524236, 0.024113967838300207, 0.024242703664222754, 0.024518966927983266, 0.024795099169097216, 0.025177818684163297, 0.02544099284111436, 0.02570002154371428, 0.02597680483193567, 0.0262580847868848, 0.026507853508999524, 0.026801076843737847, 0.027109541936241374, 0.027402941724442693, 0.027697927887970986, 0.028011990557624565, 0.028307163846827132, 0.028611291645884628, 0.028908917124466364, 0.029208090061229736, 0.029533270981328144, 0.029831295527510453, 0.0301560477987439, 0.030454210920630786, 0.030754699505521812, 0.030982385682543225, 0.031295159260136596, 0.03163279111310931, 0.03193506970460711, 0.032235680956714446, 0.032587710746574815, 0.03287785118573888, 0.0332292309258902, 0.03351303143568911, 0.03380008635571631, 0.03408946486285965, 0.034380342712061564, 0.03471457025251329, 0.035000966910032134, 0.03526803263754542, 0.03556020366067861, 0.03585157664280953, 0.036170075781081557, 0.03645494436374431, 0.03670392884181392, 0.036991963092021636, 0.03727664575764093, 0.037582723457296116, 0.037857314319566605, 0.038186514688172433, 0.03844937735006586, 0.03871285071166013, 0.03892665371051233, 0.039195898479319306, 0.03941882554450343, 0.03968600680891678, 0.039947136855475664, 0.04023100083076188, 0.040477605942282634, 0.040784724204610316, 0.04101662772700167, 0.041248928783465914, 0.041399594241149404, 0.041641799930873406, 0.04195680004543506, 0.04217901520712584, 0.042401133394065246, 0.042654808483980046, 0.04287190687623556, 0.04307936493946632, 0.043299420262951985, 0.043519157274013634, 0.04376678212208301, 0.043981801791070745, 0.04416930678622674, 0.04438937474112938, 0.04460821779600586, 0.044829447584793874, 0.04504560430934099, 0.045292922169434584, 0.045503589776814554, 0.04571548314431606, 0.04585041513026879, 0.04607429510607317, 0.04629477404607696, 0.046512478382569014, 0.046727990206844976, 0.04707668247505601, 0.04727235170753423, 0.04736137517021337, 0.04758455299462116, 0.0478070837996944, 0.04810750650378631, 0.04832028554407856, 0.04855945253647527, 0.04877952224173297, 0.04900551508240026, 0.049208773754511534, 0.049449456755446174, 0.04969740696494676, 0.049945227013989034, 0.05019728369058992, 0.050450191865849876, 0.05071168154757451, 0.05097066498442701, 0.05124248252595154, 0.05151900443430504, 0.051860879391088056, 0.05214017436107457, 0.05233630084243449, 0.05264527803758629, 0.052957921789197594, 0.0533139681463361, 0.05363108507125638, 0.05396314763568058, 0.054295339710566194, 0.054636333308098264, 0.05500764617268081, 0.05536424897895414, 0.055696086674524074, 0.056078698441171644, 0.05647024352742183, 0.056917278324601465, 0.05732213611208791, 0.05770783745030736, 0.05814231319871944, 0.05858786224848979, 0.05900935414687712, 0.05948258705936448, 0.05996949481276143, 0.060463159123548764, 0.06096836362669685, 0.061499824580099935, 0.06202785654257258, 0.06254487390888962, 0.0631040210900207, 0.06367624786776316, 0.06419465190132423, 0.06480306873724132, 0.06547544956936084, 0.06609958570193085, 0.06673929048109724, 0.0673771864249805, 0.06805133979148624, 0.06873399583070197, 0.06944069024333295, 0.0701634427314357, 0.07090269099633131, 0.071658837703478, 0.07247483212329062, 0.07326047706656597, 0.07406644084016077, 0.07497073547376545, 0.0758073453665413, 0.07657277425920535, 0.07747012135697061, 0.0783855746536131, 0.0793443039609585, 0.08029380703333568, 0.08127439412007803, 0.08226350750603985, 0.08327382082536074, 0.08429114873778747, 0.08534569492531593, 0.0864810326260222, 0.08756906115806753, 0.08868127165981887, 0.08985991361321206, 0.09101417421824365, 0.09211612118730944, 0.09333122210185166, 0.09456672487341453, 0.09580159778297093, 0.09708135339399869, 0.09838814028526612, 0.0997072525701743, 0.1010474301354355, 0.10248344198056394, 0.10385707596241234, 0.1052211741258721, 0.10665077441752271, 0.108103558584457, 0.10959369238720239, 0.11109097453583736, 0.1126263640057887, 0.11416955151403199, 0.1157372063869784, 0.11721202207213897, 0.11884278993397232, 0.1205263522229265, 0.12218804255198312, 0.12387050003069996, 0.12561305419739907, 0.12733295810900247, 0.12913688655873518, 0.1308964177782788, 0.13268272441481022, 0.13443129412926047, 0.1362773490585576, 0.13811289192195264, 0.1400058488974841, 0.14191845341365905, 0.14385093569211918, 0.1458034719284408, 0.1477726402515311, 0.14976606590768948, 0.15177959071383976, 0.15385581999251133