0.04394202761477221, 0.04356083009692836, 0.04315128557946674, 0.04265642765515224, 0.042319692994000326, 0.04199920850471424, 0.04170803003424267, 0.041410960915157516, 0.0411945550105292, 0.04090837920128177, 0.040633814754833096, 0.04030309403105845, 0.04005534824954661, 0.03985404981264121, 0.03960788921761107, 0.03936718765608294, 0.03918978294538806, 0.03895135310255623, 0.03874397543424181, 0.038517490891386105, 0.03829907283121509, 0.03802606064207816, 0.03783039075469253, 0.03767329502929139, 0.03748078091119966, 0.03729465432915618, 0.03715007510612899, 0.036972871726838295, 0.03680857201041564, 0.03664893052401738, 0.03649862817831532, 0.036346109257762056, 0.03621632817373558, 0.03615011431469587, 0.03603206648761082, 0.03592688679304153, 0.03576063464923746, 0.03569035164049714, 0.03558985865185935, 0.03554249746752352, 0.03550294419526013, 0.03553043660682787, 0.03550183951292129, 0.035533551690343966, 0.035526646086639586, 0.03553655960052485, 0.03541547315444042, 0.03547745304856736, 0.03557890308677463, 0.03565491118260386, 0.03574335802108703, 0.035903305696007595, 0.03601145040179163, 0.03617625547342364, 0.03631517417539893, 0.03647430621800894, 0.03655240976558252, 0.03676428722021652, 0.03703699031681685, 0.03727210498248684, 0.03752551404152901, 0.03775085649370731, 0.038047610817890834, 0.03849695132438308, 0.03881021416068985, 0.03914890309394248, 0.039430855561225074, 0.03982923319776639, 0.0402354963628953, 0.04067484147765649, 0.04113386745134304, 0.041562515433913004, 0.042068705607004576, 0.042725290253798086, 0.04325205315668795, 0.0438060671335638, 0.044309240116703334, 0.04492663357079405, 0.04568662587949342, 0.04633346682165561, 0.04701015133720319, 0.04751403959832079, 0.048274585171828546, 0.04908743300489078, 0.04987960194143884, 0.050763728107341616, 0.05159191510440811, 0.05244773786864841, 0.05330807675121994, 0.054222747912105435, 0.05519549948812809, 0.05616063183305829, 0.057155338275719, 0.058102026225989006, 0.059166194461218506, 0.0602249942086359, 0.0613453857315728, 0.06249135803573225, 0.06383102399070954, 0.06500980712981563, 0.06617563961864323, 0.06743536507895326, 0.06872870859937023, 0.06998179664691949, 0.07135170768931462, 0.0728522192366747, 0.07426907890626705, 0.07572242903281616, 0.07711484606409456, 0.07865280441166232, 0.0801668247615065, 0.0817733303777728, 0.08340860122170178, 0.0851475201328085, 0.0868339484130375, 0.08852884397851939, 0.09029021679880822, 0.09208602935354954, 0.09399438476174868, 0.09585028231809944, 0.09763711115091948, 0.09958596813239205, 0.1015678303297808, 0.10347057891655664, 0.10553448102935942, 0.10763448043717433, 0.10975537574906626, 0.11190752615412211, 0.11411520772204241, 0.11632964592827948, 0.11871129968313794, 0.12097953055748338, 0.12329097994508378, 0.12552435472096032, 0.12793519674738735, 0.13044255041137529, 0.13291453890199165, 0.13542503123431326, 0.13785327481314605, 0.14045528508903835, 0.14315440639573776, 0.14581085275406735, 0.14850339684718403, 0.15127867274987766, 0.1540374409683855, 0.15681146936174006, 0.1596498825324127, 0.1625246485023447, 0.16536555261769728, 0.16832113923549627, 0.17134339400530813, 0.17435822301245438, 0.17740722559751732, 0.1804825021557327, 0.18360043146899255, 0.18663890518395865, 0.18983750048477657, 0.19306272775994157, 0.19638137316874574, 0.19965347168152814, 0.20299259316580556, 0.20632412904879371, 0.2096892017213349, 0.21286177633276784, 0.2163207287445613, 0.21999323421835204, 0.22346722897294435, 0.22697358833725623, 0.23041049856799387, 0.23399214921542308, 0.23769547746234426, 0.24131392359012827, 0.24496241589155993, 0.2485234694698836, 0.2522442269994724, 0.2560014996045612, 0.2597623476087806, 0.2635451813048503, 0.2672759441141482, 0.27111142804743066, 0.27504170675555395, 0.27890166173073677, 0.28278331422423403, 0.2866549071823468, 0.29058188708954713, 0.2944762355417399, 0.29844493630824853, 0.30242770049599477, 0.3065137710418748, 0.31051276691399676, 0.31443678328311914, 0.31848307678205806, 0.3225402073131601, 0.32670890501064354, 0.33077383159262397, 0.3348112654620069, 0.3389107784453692, 0.3430204922775676, 0.34710449501242585, 0.3512362518100493, 0.35521407104355174, 0.3593762077365407, 0.3635334820326089, 0.36776029643509445, 0.3718999421976066, 0.3759777404851562, 0.38012537502123644, 0.38426864847984016, 0.3884267912298371, 0.3925581483811167, 0.39670082555609215, 0.4008210781587559, 0.4049365496478664, 0.4090851862430309, 0.41318336255271015, 0.4171944200278321, 0.4212906155202257, 0.4253740919318091, 0.4294869613937203, 0.4335375787930873, 0.43758739693775045, 0.4416104432949755, 0.44561933052241637, 0.4497449539133854, 0.45370499663698727, 0.45762340481440067, 0.4615640023341143, 0.46548784919176567, 0.46924932820436016, 0.4731525911550739, 0.47706091241107595, 0.48089950036439844, 0.4847092525981306, 0.4886020733956141, 0.49233738257173437, 0.49610203153503, 0.4997784778588287, 0.5034293571299329, 0.506982620179253, 0.5105851129096554, 0.5141094989919927, 0.5176455470437918, 0.5211415556424293, 0.5246084198202674, 0.5280205520028253, 0.5314920063513906, 0.5348069411729939, 0.5380839562618928, 0.5412668899859077, 0.5444698295715056, 0.5477512615899369, 0.5508456348245842, 0.5538990427769476, 0.5569600282655973, 0.5599192788340653, 0.56287370681261, 0.5657386375536021, 0.5685581854192983, 0.5713031117840757, 0.5740294197795214, 0.5767537558311698, 0.5793673033949732, 0.5819285639399594, 0.584350435036019, 0.5868133208850227, 0.5893702431377253, 0.5916900053422667, 0.5939559503972629, 0.5961196489066253, 0.5982786763335312, 0.600318084206259, 0.6023608989014938, 0.6043372695474125, 0.6063790048192021, 0.6082046916048577, 0.6099624942808733, 0.6116675240017324, 0.6133092987722465, 0.6149139258703502, 0.6164225396797746, 0.6178197620614264, 0.6192037445266795, 0.6205183831633713, 0.6219187027309067, 0.6230736239552589, 0.6240888882989006, 0.6251282122681725, 0.6261021212391021, 0.6270017225209804, 0.6278310634726042, 0.6286790429073361, 0.6293550953462043, 0.6300695327796617, 0.6305981281270245, 0.6310641063903732, 0.6313453516008409, 0.6316967333914979, 0.6320250988929761, 0.6322229596672468, 0.6323500970738649, 0.6324061681603471, 0.6323909203333796, 0.6323547193351783, 0.6321900097374791, 0.631956528091773, 0.631611145966216, 0.6312445334934446, 0.6309031485582346, 0.6303806114616121, 0.6297921655677337, 0.6290946246045019, 0.6283786248059882, 0.6276867246423159, 0.6268208185004122, 0.6258915786433615, 0.6248908787453018, 0.6238350437157043, 0.6226020695589779, 0.6214317827513456, 0.6201910758317393, 0.6190405359684925, 0.6176424251457782, 0.6162213625265727, 0.614702805787974, 0.6131281251437077, 0.6114893924708374, 0.6098031415697939, 0.6079670239168805, 0.606179762337429, 0.604331470142032, 0.6024623125354011, 0.6004909164470081, 0.5985034141951819, 0.5964181195123336, 0.5942820191247734, 0.5919792333906606, 0.5897585642218923, 0.5874713205352603, 0.5851441823076388, 0.5827651801549435, 0.5804411358652335, 0.577950666426386, 0.5753185752082195, 0.5727606513756786, 0.5701583052297672, 0.567668838825277, 0.5649633672208626, 0.5621808511959704, 0.5594209319805014, 0.5566290200277768, 0.5536934492777704, 0.5508550691709919, 0.5481411327617043, 0.5452148683427084, 0.5422668351292894, 0.5391928178505493, 0.5362168579041965, 0.5332080134468632, 0.5301847046126232, 0.527139603397171, 0.524086281646802, 0.5210018263816778, 0.5179835283136897, 0.5148595498698161, 0.5117281787504777, 0.5084155746718234, 0.5052948887552839, 0.5022654557189562, 0.49910680133091756, 0.4959456448751979, 0.4927953005798538, 0.48963263341229574, 0.4865508564615895, 0.4833862364210609, 0.48023232701559954, 0.47696185276136854, 0.47384870193600026, 0.4706879368932001, 0.4675975800426455, 0.46451550809681463, 0.46164648214722603, 0.4585631722042107, 0.45545650872626076, 0.4524346629213799, 0.4494387075193868, 0.44646999455494524, 0.443529925754411, 0.44045278970767365, 0.4375955175658275, 0.4347619519493366, 0.43195886634153136, 0.42918073675210805, 0.4264658696289176, 0.42375059370627854, 0.42107403736305066, 0.4185237272882342, 0.41591975285088595, 0.41319021015362717, 0.4107082348339893, 0.4082681533376166, 0.4059114713550134, 0.4035580121244528, 0.40124443551064576, 0.3989974566388177, 0.3968051271587448, 0.3947081892480069, 0.3926257746246141, 0.39065611491182484, 0.3886930987964253, 0.3867978177363725, 0.384912865534584, 0.38316317097860214, 0.38151183872377875, 0.379894190358031, 0.3783484127276863, 0.3767939922437915, 0.37540563358857193, 0.37417731284234906, 0.3729206562736856, 0.3717430515223645, 0.3706064743631509, 0.36959444362249455, 0.36860742557078374, 0.36776231947782023, 0.36699589643981445, 0.36630968187463026, 0.3657051058892101, 0.3651329732131312, 0.3647020008868958, 0.36435360353919777, 0.36405041416428574, 0.36387647948752355, 0.36381431114560236, 0.36380752219569884, 0.3638896306841727, 0.3640538541598356, 0.3643176259643468, 0.3646064819177392, 0.3650617449148077, 0.3656059782912112, 0.36637251790134523, 0.36708133738702, 0.3677924484021939, 0.3687122212956182, 0.3697254652132845, 0.37084048678810244, 0.3720411995929607, 0.3734149104511227, 0.3747965218180168, 0.3762781379655272, 0.3777698273740587, 0.3794612106589047, 0.3813238145752328, 0.3831925538220051, 0.3851595245479024, 0.38706479550484235, 0.3892467345712447, 0.39151242530855906, 0.39387085800297655, 0.39631799082204877, 0.39892033903509694, 0.40153765794097723, 0.4041432816363376, 0.406959882353744, 0.4098627704229243, 0.41291436608428406, 0.4159824775555277, 0.41901618695694764, 0.42227930680840875, 0.4256239641586472, 0.4290853196094494, 0.43258897223035725, 0.436199450225555, 0.4398665545124554, 0.4436171616737154, 0.4474697192943583, 0.4513818412642021, 0.45539483329819475, 0.4594660342340595, 0.4636170647443227, 0.4677919476248377, 0.4721048431055115, 0.476517023177915, 0.4809694657648095, 0.4854931218103437, 0.49005149252826086, 0.49471742723955275, 0.4994129861821903, 0.5042112341055199, 0.5090149765559928, 0.5139387614562106, 0.5189169571493779, 0.523890330494844, 0.5289818173456547, 0.5341562667957712, 0.5393384561369584, 0.544568769851288, 0.5499157627014073, 0.5552291251915142, 0.5605200235487203, 0.5659349970475713, 0.5713890403983728, 0.5769037759409829, 0.5824278289792311, 0.5879169631082928, 0.593517874295365, 0.599145685611014, 0.6048920950828192, 0.6105570165560538, 0.6160934992725283, 0.6218295773857442, 0.6275787743095939, 0.6333941862151673, 0.6391586204816267, 0.6448687602203761, 0.650662991217482, 0.6564609766021882, 0.6624553871478963, 0.6682311115667935, 0.6738956030339207, 0.6797015812113626, 0.6855031261288853, 0.6913678786815806, 0.6971446968638694, 0.7028789762069776, 0.7086421731073171, 0.7143900342563897, 0.7199956202093316, 0.7257209224182066, 0.7314396467930641, 0.7371006973291396, 0.7427300479859801, 0.7484579759072951, 0.7540014728697402, 0.759514827272649, 0.7649949187013413, 0.7704387182386196, 0.7756994491864087, 0.7810800964906145, 0.7865438346199393, 0.7917997765706138, 0.7970071703157471, 0.8021126684473278, 0.8072209953933103, 0.8122891600906884, 0.8172736371176564, 0.8221952291430422, 0.826985525218217, 0.8317827591934766, 0.8366386928009905, 0.8412705791014681, 0.8458329894842692, 0.850295895460215, 0.8547144546370352, 0.8590422230223643, 0.863301712019403, 0.8674769065062156, 0.8713946921421168, 0.8754167583111766, 0.8794865741521982, 0.8832894594904166, 0.8869994104564498, 0.8906183237106805, 0.8941359923262179, 0.8974151765611305, 0.9007515861372533, 0.903977904064983, 0.9071751165716523, 0.9101688945235817, 0.913039411480807, 0.9158181969294658, 0.9184853552465196, 0.9209928857923012, 0.9234386479197717, 0.9258439093465517, 0.92804242892468, 0.9301252114047173, 0.9320634720792843, 0.933913573442711, 0.9356807794038121, 0.9372812853614526, 0.9387599607756628, 0.9400182508953235, 0.9412615237164518, 0.9423658706732868, 0.9433474750820168, 0.9441967722121467, 0.9449173272074755, 0.9455005366555896, 0.9459195535347106, 0.9462401297758097, 0.9464251192732511, 0.9465249511959843, 0.946432044871268, 0.946186599627498, 0.945829415987473, 0.945337035369057, 0.9446664373374171, 0.9439083297868808, 0.9430858255454705, 0.9420420732922129, 0.9408646263655375, 0.9396308564446706, 0.9381751507117606, 0.9366125713670531, 0.9348927765556249, 0.9330427627360216, 0.9310774552684428, 0.9289633286651183, 0.9266212792971872, 0.9242576733531103, 0.9217574443623184, 0.9190475120724546, 0.9162857474620149, 0.9135683594535633, 0.9105083103827671, 0.9073230993263469, 0.9038027489061894, 0.9003937357767411, 0.897003562747824, 0.8933036541613406, 0.8894798850947693, 0.8855251561184637, 0.881456772354825, 0.8773247150655012, 0.8730060055503529, 0.8685706895728083, 0.8638406414721145, 0.8591969273460426, 0.8544018080933516, 0.849515629481021, 0.8445086170604806, 0.8394843991328191, 0.8342305263191367, 0.8289622189149419, 0.8234826140550113, 0.81790361674324, 0.8120589445509782, 0.8063050595876675, 0.8005542788452694, 0.7945777548144873, 0.7885067565812501, 0.7823468018120491, 0.7760913237101601, 0.7696572745157103, 0.7632365723427573, 0.7567253415904173, 0.750106778175794, 0.7434248111796369, 0.7366473617251275, 0.7298019285166129, 0.7228773808078666, 0.7159308621464424, 0.7088493258097177, 0.7017114392192854, 0.6944945846787881, 0.6872147650963818, 0.6799285515878476, 0.6725224055689298, 0.6649968276173791, 0.6574941698576464, 0.6499381970981871, 0.642265350562342, 0.6346186905184155, 0.6269070596939641, 0.6191666033218555, 0.6113819545816983, 0.603633954301792, 0.5957603086442175, 0.5878909195697909, 0.5799536909886726, 0.5719923291848458, 0.5638184347366677, 0.5558391960624385, 0.5479054160983823, 0.53986381447125, 0.5318053669691943, 0.5236746687857644, 0.5155985721062362, 0.5075342610184409, 0.4994353825547512, 0.4913326686509737, 0.48320567093431965, 0.4751068069733748, 0.46705791199266045, 0.45896270075393336, 0.45087918077126016, 0.44282530857321073, 0.4347704166458991, 0.4267663797358948, 0.4187493206405233, 0.4107582734601518, 0.40278358697922956, 0.3948521027711501, 0.3868354783136639, 0.3789838855405132, 0.37113439166676443, 0.363347989264625, 0.35559551016052454, 0.3478761872836793, 0.3402012780823253, 0.33267401622967635, 0.32507400603038583, 0.3175280540156254, 0.3100145803106268, 0.3025849395476544, 0.2951161312248028, 0.28781676908836745, 0.2805738623886099, 0.27351061201344645, 0.26637333556317944, 0.2593069989332209, 0.25231298562574944, 0.24539270052396653, 0.23852812749554195, 0.2317620289727369, 0.22492124909738695, 0.21832976416754396, 0.21180985900461294, 0.20548869124115013, 0.19910432433737882, 0.19286459118041557, 0.18664676173158548, 0.18052103616902854, 0.17433267444265896, 0.16841311479731308, 0.16265315078524362, 0.15689780804001136, 0.151236371963155, 0.14570893084353687, 0.1402339855337145, 0.1347147858365627, 0.12945793062179572, 0.12429406491804423, 0.1192950364423955, 0.11431376503382921, 0.10934514778215233, 0.10458016299046063, 0.09991386985050307, 0.09542546318790698, 0.09095091604024037, 0.08666107473553099, 0.0823910178532259, 0.07823304553581144, 0.07413242539232429, 0.07020460923737021, 0.06636555239164257, 0.0626567932928329, 0.05905551242413036, 0.0555736515671155, 0.05218662954606394, 0.049009465932309385, 0.045827242795687, 0.04275944137343468, 0.039731301610540316, 0.03689903654116694, 0.034123965910765865, 0.0315133791562205, 0.02900729662362566, 0.026590309881386043, 0.024295527147324816, 0.022205582124882287, 0.0201055397323389, 0.018114810549628026, 0.016224601056901634, 0.01445043674092032, 0.012898744388589374, 0.011320601849778011, 0.009852976023489989, 0.008509522718710472, 0.007255384949696308, 0.006095584637255768, 0.005053166716579665, 0.004112665669304697, 0.003361977809050699, 0.002609511929883921, 0.001951794153686458, 0.0014032362316153265, 0.0009526343727918232, 0.000547601448939255, 0.0002938213947660394, 6.762004271561015e-05, 0.0, 1.61428150266491e-05, 0.00015025643115984741, 0.00032708875117397134, 0.0006259565636741435, 0.0009629152024162561, 0.00138261998817931, 0.0019261715107759217, 0.0025009866464619822, 0.003299813434712115, 0.0040148054582541184, 0.004814097620421606, 0.005612977418418478, 0.006582129241171754, 0.007630035494132016, 0.008738199917728546, 0.009913890150799723, 0.011159035542816494, 0.012463444793523985, 0.014016410933005534, 0.015419248765586733, 0.01689073300994387, 0.018411950031829036, 0.020012801739919553, 0.021726340035962376, 0.02343414029985947, 0.025197991543924946, 0.027061648712909007, 0.028923178433277092, 0.030776834015135344, 0.03274375575190806, 0.034752289667392494, 0.03685476695314134, 0.038933432713965384, 0.041085660413336056, 0.0432346941957598, 0.04541964464690771, 0.04764582864139791, 0.04989436712640613, 0.05231992697570278, 0.05460617071786486, 0.056925652785571296, 0.05927513115152081, 0.061651581137205126, 0.06390445355178323, 0.06634521131097511, 0.06879666994651767, 0.07144036693908806, 0.07388660002972734, 0.07627247448044377, 0.07876062060508543, 0.08125656924345853, 0.08387518803277329, 0.08636679505138602, 0.08890653357868801, 0.09140921117527732, 0.09391842924444216, 0.09645886428726749, 0.0989702894186786, 0.101498226191221, 0.10400732555041517, 0.10651384754075777, 0.10899235654097002, 0.11149048271340113, 0.11400601914420862, 0.11647957259507208, 0.1189418780447673, 0.12143022422683052, 0.12386046270877754, 0.12638601481530676, 0.12877380188022725, 0.13115103300732253, 0.13333272544932329, 0.13570532141956004, 0.13820248377289793, 0.14050158503904697, 0.14278163919931366, 0.1449672750400057, 0.14721417252080504, 0.14941040685190485, 0.15160502388205813, 0.153769918828008, 0.15593199633427382, 0.15803309019066528, 0.16024502880546362, 0.16226972179907498, 0.16427219486359868, 0.16629754160174554, 0.16824518932015095, 0.1700835655008794, 0.17199308746691946, 0.17387136523260296, 0.17574909951292003, 0.1775598326872819, 0.17932453003286244, 0.18107580723947805, 0.18279491669306658, 0.18445838334184153, 0.18611571625468756, 0.1878287133935131, 0.18940746580898105, 0.1909579502180547, 0.19232034077158627, 0.1938332278183032, 0.19531569164371282, 0.19675236618934014, 0.19815354684414418, 0.1996795983343835, 0.20099254792808027, 0.20210685264794134, 0.2033940948644571, 0.20464714685654872, 0.20589837948905976, 0.20708287789161392, 0.2082113731771808, 0.2093426043040647, 0.21050746210938345, 0.21157477824761553, 0.21261917326480206, 0.21364508452707487, 0.21464484476167356, 0.21560814788215465, 0.21656871973503847, 0.21750888123617584, 0.21836731478155694, 0.21927718911947802, 0.2202863975388965, 0.22114015278460283, 0.22198239554269503, 0.22274358922322812, 0.22357305927375182, 0.22448586651339875, 0.225276624561899, 0.22606153685436256, 0.22682167195477865, 0.2275989732094228, 0.22832840449399286, 0.22910185035625505, 0.22986976189474786, 0.2305946849177979, 0.23136071086662596, 0.23200668636797447, 0.2327823569764315, 0.23355153851252786, 0.23438683955516446, 0.235141962256331, 0.23597588020509772, 0.23673322501278707, 0.23750299763565222, 0.2382201473577215, 0.23902628251444802, 0.23989491516215045, 0.24072028109635654, 0.24156380884579717, 0.24239174595694185, 0.24327974818996229, 0.24407499102814853, 0.2450187787457307, 0.24597936275525312, 0.24691643644066064, 0.24792325370625792, 0.24913804861075028, 0.25016648701335464, 0.2512315327785759, 0.25222113224963516, 0.25337575740492885, 0.25460566985739247, 0.25582171833483625, 0.257076185104455, 0.25830818561429225, 0.25965128176106245, 0.2610487608262249, 0.2624693359877732, 0.2639330986813114, 0.26548043147685063, 0.26703013198808945, 0.26853628758816034, 0.2701983453063416, 0.2719070303741551, 0.2736097183584295, 0.2754238347808919, 0.2772944006534315, 0.2792068387920504, 0.2811721631849157, 0.2831492453345388, 0.2852305386939104, 0.28736690089618816, 0.28956000802840554, 0.29181140734558014, 0.29405644191179614, 0.29643695590491065, 0.2988837905176929, 0.30138206583147253, 0.303942474495707, 0.30651577515422646, 0.3092106004483318, 0.31214706613077275, 0.31494628583181156, 0.31782093738256556, 0.32073956429742584, 0.3237679936566401, 0.32667871223488254, 0.32987679865795355, 0.33313703205510803, 0.33656593386896977, 0.3399416829242673, 0.34349065838982457, 0.34699811709492934, 0.35058371377885095, 0.3540562410638053, 0.3578200738642534, 0.36175429246489244, 0.3656366546896646, 0.3695920683129222, 0.37351148411097135, 0.37762612144434976, 0.38180310751197527, 0.3860512811328566, 0.3903664746684689, 0.3947218038229019, 0.3991753312002894, 0.4036638577630802, 0.4082536992369154, 0.412908133105871, 0.4177012003228949, 0.42247587827320954, 0.4272999754246539, 0.432214006420472, 0.43719412770358823, 0.4423056816723139, 0.44740734052600745, 0.4524053515496755, 0.4576619851767007, 0.4629735409625782, 0.4683866198852706, 0.4738018135791591, 0.4793283428443111, 0.48484959729825566, 0.4904289684295912, 0.49592114041196833, 0.5016304606292542, 0.5075019353365766, 0.5132871876483104, 0.5191235733587094, 0.5250716455800399, 0.5309974765074847, 0.536871855834025, 0.542907490716937, 0.5489826813113093, 0.55508443293391, 0.5612361371233844, 0.5674497372313112, 0.5736659206854575, 0.5799153446866055, 0.5861340022115676, 0.5924523069275521, 0.5987131897346508, 0.605088825108006, 0.6114811632751549, 0.6179320212016881, 0.6243493634263481, 0.6307203039787582, 0.6371753676765277, 0.6436391858262064, 0.6502114397614064, 0.6566756878684645, 0.6632042398066825, 0.669678813847728, 0.6761612196999557, 0.6825124183844706, 0.6890188056487025, 0.695621574528734, 0.7020958087702708, 0.708563808377589, 0.7148789938049136, 0.7213444979446424, 0.7278847232029061, 0.7342915027483997, 0.7406781305758787, 0.7470615216370867, 0.7533978222975318, 0.7596141987710702, 0.7659063632313126, 0.7721613302917715, 0.7785054965647875, 0.7846641163626665, 0.790767430317957, 0.796853656653868, 0.8028967752802652, 0.8088162323569936, 0.8147745933662983, 0.8207316257563357, 0.8265695540124469, 0.8323506504924336, 0.8380334854401297, 0.843698191941746, 0.8492613102651544, 0.8547950716375634, 0.8602559244195942, 0.8656613985528003, 0.8709682147327341, 0.8761623890817744, 0.8813161501557605, 0.8863859535431546, 0.8913815714386496, 0.8962762835910533, 0.9012063303553416, 0.9059051334693302, 0.9105177384630134, 0.9149244679065764, 0.9193703831071651, 0.9238236155608632, 0.9280509590097644, 0.9321793702756819, 0.936070152571871, 0.9400100940128141, 0.9440185768779703, 0.9477058512650208, 0.9512866977790712, 0.9545989507208327, 0.9579788967425417, 0.9613288691558342, 0.9644494091281518, 0.967539153166812, 0.9704061013805024, 0.9731541847207552, 0.9755827007774124, 0.978110940033887, 0.9806422595436957, 0.9828786679450446, 0.9849851841545278, 0.9869407156943718, 0.9887850315990987, 0.9905519846166987, 0.9921163510395069, 0.9935459199243537, 0.9946680743631751, 0.9958450750799575, 0.9970249186453981, 0.9978853626459059, 0.998605763734802, 0.9991577071968563, 0.9995979588197784, 0.9998350315058531, 0.9999922362708098, 1.0, 0.9998776747242896, 0.9995838496439226, 0.9991725395042665, 0.9985774038006903, 0.9978350469432735, 0.9969878490233245, 0.9959445745258209, 0.9947361199764938, 0.9934033105274233, 0.9919227682844582, 0.9901932932812458, 0.9884297628227244, 0.9866020996015935, 0.9845211077951019, 0.9822934231003628, 0.9798220305465928, 0.9773138353301531, 0.9746969997743324, 0.9718817797167931, 0.9689199044043816, 0.9658277266317523, 0.9625730197810831, 0.9591828224525957, 0.9556413924530937, 0.9519587710994293, 0.948186336135803, 0.9442175337272827, 0.9400625613835804, 0.9358295094681154, 0.9314593590504953, 0.9269378169365121, 0.9222992560967325, 0.917596620783, 0.9126826554104654, 0.9076416796554352, 0.9024164311929163, 0.8971320600488364, 0.8917092073750752, 0.886174496136625, 0.8805159929116753, 0.8748095434827029, 0.8689000988984018, 0.862775966293257, 0.8566535357438421, 0.8504148536351263, 0.8440662843406923, 0.8376020273837912, 0.8311729715819169, 0.824475692156124, 0.8176827112562074, 0.8107097912073281, 0.8037402280925429, 0.7965695095589481, 0.7894232239109436, 0.782179686538534, 0.7748383232943546, 0.7674106419134075, 0.7599690842020321, 0.7523597476185468, 0.7446730813676455, 0.7367754959846011, 0.7289588143152922, 0.7212201741328306, 0.7132325928555461, 0.7051835158671528, 0.6969274460014093, 0.6887807970349367, 0.6805945709668225, 0.6723227861802803, 0.6639965517520686, 0.6557901722287475, 0.6473431473240048, 0.6387598488462389, 0.6302569623599855, 0.621716867858488, 0.6131462949738574, 0.6045398341048425, 0.5957455698448735, 0.587105267399888, 0.5784333112022058, 0.569764955829185, 0.5610380779967638, 0.5523632980427332, 0.5435953227872398, 0.5348203181128947, 0.5259633208724357, 0.5171924434883616, 0.5085079449470588, 0.4997231188604728, 0.49094703748725693, 0.4821317165407499, 0.4733871930385449, 0.4646407527453819, 0.45592848071926567, 0.44723497231811293, 0.43867214749757727, 0.43001157676967616, 0.4212061374421931, 0.4126381364025208, 0.4040982359027222, 0.395792199464921, 0.38729367438936163, 0.3786895843301695, 0.370312215450332, 0.36197942128635285, 0.3536787228667475, 0.3454461744159263, 0.3374839928925366, 0.3293322344303074, 0.3212512146040617, 0.3131681259418796, 0.3052412212279038, 0.2973533763008072, 0.289572741041882, 0.2818645782487907, 0.2742856125531663, 0.26672239349798665, 0.2592182048982143, 0.2518244262442745, 0.24451527923394775, 0.23735108015081238, 0.23020982559325096, 0.22310413097839127, 0.21615946774674832, 0.2093083889683111, 0.2026306411677915, 0.19596285456469958, 0.18928225766479545, 0.18283807315048492, 0.17649365299161285, 0.17020845493826273, 0.16407551992454322, 0.15820178495725892, 0.15225885540286752, 0.14643272980908753, 0.14061918588523045, 0.13504217939702925, 0.12957060459881733, 0.12422263982677606, 0.11899063779113367, 0.11393830985599472, 0.10893480941450955, 0.10397725812973874, 0.09923170351562197, 0.09460689889929759, 0.09019354087119205, 0.08580268115934046, 0.08163052943355052, 0.07748721015585268, 0.07347869487214236, 0.06949564534272762, 0.0657690957038599, 0.06221661556323675, 0.05873957040292858, 0.0553936130296249, 0.05224098371097282, 0.04914944163339085, 0.04613422077038666, 0.043318776057502194, 0.040633641721592034, 0.038183754937373346, 0.03574585968223993, 0.03335843886968061, 0.031202342147829396, 0.029175481692591914, 0.027394256460335633, 0.025610405836908663, 0.02380602032927658, 0.022310432502361907, 0.02093850589340616, 0.019775807619728962, 0.018640410217146627, 0.017668254812559684, 0.016783973449810398, 0.01602795342979306, 0.015430008619456625, 0.014922737972833913, 0.014662162883695602, 0.014390519478617492, 0.014186636299440213, 0.014180343947584887, 0.014295795157395796, 0.014441902283965084, 0.014807148472054122, 0.015381374861936085, 0.015957054486971343, 0.01664816756605709, 0.017417928644119274, 0.01833896156123079, 0.019407014142718424, 0.020537966269395188, 0.021776303609924354, 0.023162961564658552, 0.02460519505626072, 0.026190633212110688, 0.027834458520948784, 0.029580525775209848, 0.03147697506047408, 0.03341401438328366, 0.035418030576934795, 0.03755251811521715, 0.03977815436997694, 0.0420810580669135, 0.044483844152884616, 0.04693169277059007, 0.04950522758648533, 0.05215644526100542, 0.054934163378008966, 0.05772916344933467, 0.060696596005012676, 0.06362756790848205, 0.06663478408128018, 0.06979689024313206, 0.07293741406929076, 0.0760645857748418, 0.07935690588970809, 0.08271003958226772, 0.08616826273522017, 0.08963004787665287, 0.09322989627358023, 0.09679157453733377, 0.10040905105912636, 0.10395476943841785, 0.10769022729123143, 0.11168311453896114, 0.11546873661255457, 0.11930271913493692, 0.12316204566250658, 0.12708466520054093, 0.13095886629416303, 0.13496361827889078, 0.13899502307972206, 0.14306666629472362, 0.14714353448655398, 0.15126540505248073, 0.15538063278047773, 0.15951477867275302, 0.1637550679063939, 0.16790923893386364, 0.17204594171240864, 0.17623679736666012, 0.18043778318477108, 0.18465053297328943, 0.18886459672251585, 0.19316408677311075, 0.19737332128703095, 0.20158680667947007, 0.2058135730036343, 0.21002632287351883, 0.21426368270157517, 0.21846543138133773, 0.2226615059732447, 0.226729043055813, 0.23092206518229516, 0.23511927158762097, 0.23927002143789505, 0.2434008298830709, 0.24765036842454227, 0.2517197875839944, 0.2557538895961984, 0.25979163905329683, 0.2638078380748784, 0.26778502280707694, 0.2717544557213719, 0.275664951232014, 0.27958116244275166, 0.2834649110026289, 0.2873034531232649, 0.29112054133270565, 0.294944134537255, 0.2986824219268758, 0.3023851121163489, 0.3059577302574672, 0.30959755590422644, 0.31324763800094535, 0.3167920160599808, 0.32029478225054525, 0.32374354442330394, 0.3271624056450702, 0.3305524637201408, 0.3338801226913278, 0.3371632645405979, 0.34028077616834096, 0.343488349300882, 0.3467207045248931, 0.34981301028531114, 0.3528576235526479, 0.35593201788770984, 0.3588706182936519, 0.36179235286997913, 0.36463853721345996, 0.36744063778370784, 0.37018616313979413, 0.3728992065698351, 0.37555761306429347, 0.3781775288134102, 0.3807494643974875, 0.38321496234914554, 0.3856979425738369, 0.38804392335717236, 0.390435292396557, 0.39277144984402046, 0.39506139997343465, 0.39728976421911555, 0.3995873340515503, 0.40169882791246614, 0.40376768782255756, 0.4057316506443, 0.4077230070913224, 0.4096372270119646, 0.4115411466303558, 0.41339871395101113, 0.4151448372188613, 0.4169210250563815, 0.4187822741092207, 0.42044903653037596, 0.42207905052779676, 0.42360655151779825, 0.4251724703226134, 0.42675745160594203, 0.4282385910829867, 0.429685937464538, 0.43100682429412973, 0.43240033712079956, 0.43372580519034837, 0.4350509224549154, 0.43634043690918567, 0.4377010475851521, 0.43891124642190504, 0.43992573722930634, 0.44110897262616344, 0.4422594856178913, 0.4435000218159915, 0.4445764502696421, 0.4456060876387554, 0.4466477580418097, 0.44767028214645105, 0.4486593662038373, 0.4496493384347497, 0.45061530711040093, 0.45157520886967734, 0.4525212463447872, 0.4534237736886182, 0.45435036105844623, 0.4553239718194866, 0.4562222820455173, 0.45711587767321504, 0.4578503902670292, 0.45875762120532465, 0.4596004405344146, 0.46049701995134806, 0.46138530750388185, 0.4623806557970804, 0.463245795545448, 0.4641396652346242, 0.4650139247687153, 0.46589740259502077, 0.46670173783914276, 0.4676181160371676, 0.46853410432979603, 0.4694680373273938, 0.4704124418434647, 0.47129516677290506, 0.4722749031005576, 0.4733747158199162, 0.47436524229810295, 0.4753771590152226, 0.4763647812748488, 0.477428265794147, 0.47856005563126036, 0.47966228632026114, 0.4807914014501042, 0.4817849877318113, 0.4829910840379877, 0.4842174703020847, 0.4854663107676259, 0.4867396012536489, 0.4880041966784798, 0.48933619232858944, 0.4907385445374099, 0.49212205463382935, 0.49360496008500565, 0.4950478431964361, 0.49652988287232963, 0.4979543197026563, 0.49952823180357225, 0.5012731689906794, 0.502901006353262, 0.5045737293989543, 0.5061668414396394, 0.5079448067772064, 0.5097371792546637, 0.5115945711719925, 0.5134903166995479, 0.5153671169103917, 0.5173498668742412, 0.5194209456786425, 0.5214740640538161, 0.523570007592692, 0.5257248072847948, 0.5279058040531894, 0.530151157630852, 0.5324196796033299, 0.5347344501068659, 0.5370526007182952, 0.5394649273126646, 0.5419051542932181, 0.544406504909627, 0.5469506793354616, 0.5496661077071286, 0.5522800731305246, 0.5548315394697655, 0.5575591218711762, 0.560328462120443, 0.5631394745829658, 0.5659920051045361, 0.5688936088944508, 0.5718274714945232, 0.5748024451953857, 0.5778686042154078, 0.5809179788415388, 0.5840758615906825, 0.587200722008928, 0.5903697129643318, 0.5935074503623966, 0.5967695345690732, 0.6000672200155267, 0.6033997458850651, 0.6067663169651911, 0.6100922433234629, 0.6135337183135816, 0.6170724704011675, 0.6205593654447293, 0.6240766996115032, 0.6275339491452466, 0.6311200980566357, 0.6347515735693489, 0.6383783057372588, 0.6420272887727022, 0.6456471043687317, 0.6493442549864726, 0.653190120113808, 0.6569029586867241, 0.660638269498964, 0.6642735789081583, 0.668063212367262, 0.671905527098967, 0.675708695128971, 0.6795222878365123, 0.6834498358365623, 0.6872666842931212, 0.6909788303139435, 0.6948318822668962, 0.6986856240199727, 0.7026281632059239, 0.7064680171761725, 0.710266744963233, 0.7141130965260741, 0.7179543709058102, 0.7217149584729216, 0.725550161007071, 0.7294874923250371, 0.7332777894066396, 0.7370577082323995, 0.7407938858168925, 0.7445502397943882, 0.7483111529057408, 0.7520251554510755, 0.7557179654886266, 0.759430300209104, 0.7630692181069525, 0.7665355821162898, 0.7701412067211143, 0.7737091682385555, 0.7772734643784531, 0.7807586182524838, 0.7842592631273567, 0.7876581540026761, 0.7910181017864089, 0.7942476863742078, 0.797535053028321, 0.8007375362852229, 0.8039283330463234, 0.8070648098412769, 0.8102586683667744, 0.8132690755302489, 0.8161970642351863, 0.8191066154037414, 0.8219588643064369, 0.8247170437913965, 0.8274537930199546, 0.8302776137315764, 0.8328646976127019, 0.8353928960228968, 0.837766256579633, 0.8401806642223075, 0.8425389743598561, 0.8448066360994256, 0.8470005785501147, 0.8490376102546973, 0.8510898084148892, 0.8531874466468123, 0.8550569652014057, 0.8568492520625848, 0.8585896406677168, 0.860218491392998, 0.8617818531905685, 0.8632448533853371, 0.8646241853292429, 0.8657432032171539, 0.8669722871834004, 0.8681924855760842, 0.8692136859788273, 0.8701415500386516, 0.8710296422488703, 0.871761406757326, 0.8723887427021694, 0.8729352463954697, 0.8733860119578865, 0.8736468047513796, 0.8739151439408304, 0.8741343180662554, 0.8741886067290466, 0.8741423431233433, 0.8738900804934584, 0.8736545549400464, 0.8733034557520148, 0.872853780130241, 0.8722967318888971, 0.8715782922776758, 0.8708145391257981, 0.8700463795644979, 0.8690513351814507, 0.8679541561230611, 0.8667156885062989, 0.8654183643344057, 0.8640860061965427, 0.8625700062830806, 0.860953309268284, 0.8592316812265174, 0.8574131333346589, 0.8554773521865826, 0.8534573520440804, 0.8513347721839695, 0.8490359806049819, 0.8467183212450577, 0.8442053829099011, 0.8416882800441067, 0.839062252578749, 0.8364145002342424, 0.8335647475885644, 0.8305534315116433, 0.8275135550755689, 0.8243723366284504, 0.8210922032649058, 0.8177570878492918, 0.8144000154152244, 0.8108572066230181, 0.8072221002074733, 0.803468319828515, 0.7996546126262518, 0.795726407073339, 0.7917344996839956, 0.7876525285213423, 0.7835596724075145, 0.7792920409381839, 0.7748380571599511, 0.7704217359287375, 0.7659198744256644, 0.7613420940526896, 0.7566736856085491, 0.7519684099864097, 0.7471370697878038, 0.7422319640625182, 0.7371650750800065, 0.732127967104287, 0.7270980313636055, 0.7219039301300499, 0.7166444100030637, 0.7111693788313396, 0.7058027847619313, 0.7003747303040286, 0.6948715587840868, 0.6893052316466464, 0.68366280839316, 0.6779798861382007, 0.6723610502425822, 0.6665525795892346, 0.6606178143852585, 0.6547317866980076, 0.6487994706324262, 0.6427181411452195, 0.6367131999208757, 0.6306899346337104, 0.6245935072493305, 0.6184590065115559, 0.6123317806196078, 0.6061234231428376, 0.599956939068427, 0.5936856073500324, 0.5873942447276601, 0.5810765843605736, 0.5747507376870199, 0.5683119703322764, 0.5619687034005612, 0.5556078215979083, 0.5492008586276247, 0.5428165165511114, 0.5363816623258358, 0.5299816745621407, 0.5235732216382021, 0.5172291567183712, 0.5108034650323862, 0.504404901277784, 0.4979859043157946, 0.49157608495904015, 0.4851422903497254, 0.47876076541988966, 0.47236089942777754, 0.46601097510077033, 0.459676341673109, 0.45328160084946284, 0.44699436941544995, 0.4408532284516947, 0.4345882060213037, 0.42835369393875666, 0.4220229532332485, 0.4158703361228463, 0.40969907617151374, 0.40361099699025244, 0.39755344445995916, 0.3916458153118456, 0.3856427504707293, 0.3795602573959492, 0.3736642847990563, 0.3678091569175942, 0.3620905976766653, 0.3563125161579099, 0.35056409728106946, 0.34489625909585087, 0.3392827313552931, 0.3336239313441546, 0.32813623397722075, 0.3228259292165851, 0.31743069216627773, 0.3120996873614731, 0.30682218683193163, 0.3016239311358067, 0.2963171430628406, 0.29127484163454953, 0.2862911823139096, 0.2814618716084994, 0.2765907347255947, 0.271716275610994, 0.26699667151129647, 0.26234563655002274, 0.257850285823314, 0.2533302254073312, 0.24892680655548277, 0.24455791020933126, 0.2402700308993169, 0.23590397747512915, 0.23179887248120226, 0.2277547925913789, 0.223798040259045, 0.21991616987012125, 0.21614545991516865, 0.21241265813271748, 0.2087990177040206, 0.2052224733472808, 0.20172950843059648, 0.19834356835954198, 0.19501514070346937, 0.19176408184544988, 0.18860674960345178, 0.18553376240109723, 0.18246334520656954, 0.17956892308768865, 0.1768354001580438, 0.17408962086510613, 0.1714284480110868, 0.16888643333662534, 0.1663887306054793, 0.16389461062692562, 0.16157689541047862, 0.15933829124617255, 0.1571709315133893, 0.15509117855361396, 0.15313235464527178, 0.15120327797830332, 0.14935418721207017, 0.147522140121233, 0.1458386261001592, 0.14432259201215644, 0.14277532324214776, 0.14130673360250437, 0.13984948812637324, 0.13854287621696323, 0.1372919707532537, 0.13612914431916442, 0.13503525128911886, 0.13403292138380368, 0.1330717882147915, 0.13218636960419114, 0.13135904035512674, 0.1305978627379334, 0.13014262177001382, 0.1294795515090786, 0.12865913998916878, 0.1281741108439306, 0.12774560480440175, 0.12740374905775437, 0.1270813789786732, 0.12691524829901382, 0.1266890350893502, 0.12652084117669118, 0.1264900466112941, 0.1264208859195199, 0.12637280677915294, 0.12641750735406074, 0.12651105187355074, 0.1266901533303543, 0.1268700607861638, 0.12708694441320106, 0.12735505370897018, 0.12766299799186284, 0.12808646661130366, 0.12845813615587656, 0.12882135200616732, 0.12927278190294603, 0.12975485045576535, 0.1302695121925533, 0.130806612933801, 0.13158270611493955, 0.13214130329383955, 0.13273343026350248, 0.13321175441042793, 0.13387886510272964, 0.13473266932874056, 0.1354077551403575, 0.13610472462528925, 0.13671171495205545, 0.13745735664836006, 0.13825692969299364, 0.13900961768739425, 0.1397689937831008, 0.14053700534902547, 0.14130351548355402, 0.1421801589054822, 0.1429336970591354, 0.143691117261358, 0.14443042694188113, 0.14519055421853963, 0.14606287002886417, 0.146797403988175, 0.1475301781985771, 0.14823512761151836, 0.1489593027516717, 0.14978159658487836, 0.1504685304982742, 0.1511469191064823, 0.15164305109944445, 0.1523181817162811, 0.15296388285794804, 0.15358769454614776, 0.15418427678100666, 0.1549045105932858, 0.15542527068665093, 0.15593286125480166, 0.15640876616326718, 0.15686033970333418, 0.15731691049365934, 0.15771070733383524, 0.15805754690591434, 0.15839709666371152, 0.15870483918673672, 0.15892509606773778, 0.15917243086992955, 0.159400842823444, 0.15956843772031046, 0.15969765667948754, 0.15993553904272742, 0.15996732749309578, 0.15987381160149677, 0.15985163091872742, 0.1597888912516593, 0.15962274920020586, 0.15948488209835363, 0.15943727265867436, 0.15919063748859694, 0.15876595552989767, 0.15845974197539697, 0.1581055697313746, 0.1578048272822761, 0.15734288714291808, 0.15693673464506497, 0.15637916881424177, 0.15578466551252845, 0.15506267378879723, 0.15440235711539585, 0.15384102406899172, 0.15307290602234244, 0.1522682305641847, 0.15128219930678674, 0.15041989150389803, 0.14946008800177984, 0.14851097688202652, 0.1475135309145745, 0.14652721026751933, 0.1454291319086722, 0.14434764011293338, 0.14315932501051287, 0.14193376400697413, 0.14067503552730826, 0.13937516018055335, 0.13803133697647194, 0.1366605282245854, 0.13525405289098624, 0.13387087527662528, 0.1323877217255741, 0.13081213241067308, 0.1292767400989036, 0.12770847942486765, 0.12614731703487758, 0.12451171966127898, 0.12280606070636167, 0.12112215415621352, 0.11941038945848599, 0.11776543083523448, 0.11599027619556854, 0.11408781601878593, 0.11229018293068993, 0.1104694508467236, 0.10862350201907726, 0.10676235908027551, 0.10503477847528163, 0.1031201472591456, 0.10119951173318802, 0.09915290080372827, 0.09723725214680412, 0.09525645287744106, 0.09332813928855273, 0.09138985254175878, 0.08944392195126355, 0.08749261609894923, 0.08557313567664772, 0.083613250803317, 0.08165645837765743, 0.07966568927286591, 0.07772541178028189, 0.07577591387424072, 0.07385238301371458, 0.07193851730206845, 0.07014534208973287, 0.06824353810231303, 0.06620453658345468, 0.06436843921196263, 0.06254803010181346, 0.060718710613525864, 0.05894086061768427, 0.05723526518684162, 0.05549703124315732, 0.053788389365207065, 0.052056889744846374, 0.05042020215790663, 0.04883920659548195, 0.04726663166306562, 0.045732307679809826, 0.04429653496706946, 0.042837268787266444, 0.04135151592636221, 0.03999774254587651, 0.03869003839335251, 0.03748098872325973, 0.036265127480518466, 0.03499531429571718, 0.03390449455081504, 0.032865447766864286, 0.03190387306956131, 0.030972440705325763, 0.030050365841587417, 0.02924699922381623, 0.028504407449542028, 0.027844203870199813, 0.027227129106711153, 0.026639269611398408, 0.02616501656380076, 0.02576006421763261, 0.02546909036767466, 0.02520298759702141, 0.024982956744864036, 0.02487643351896468, 0.02484791260959605, 0.02481335859152139, 0.02495605013225453, 0.025203423428549115, 0.025499602539651858, 0.025878612518290378, 0.026310849995690406, 0.026863845436364754, 0.027451598163444325, 0.028183046533989117, 0.028999795902893616, 0.029903516043767994, 0.03089572956840506, 0.03194672369576725, 0.03312388765949866, 0.03439158647291603, 0.0356733538794415, 0.0371356613807653, 0.03881587334218278, 0.040442735082862676, 0.042169294595755864, 0.04401902009537463, 0.04594242887507675, 0.04795552615514645, 0.05008297817813598, 0.052310853960465094, 0.054456390505134254, 0.05690801842330547, 0.05953897633661187, 0.06216047025721776, 0.0648793487580725, 0.06765693968620179, 0.07057601424342261, 0.07353231244105268, 0.07665007737145318, 0.07986048428533563, 0.08322621916423142, 0.08661534765816094, 0.09007438532637227, 0.09366073019309294, 0.09734166892283619, 0.10103129838578553, 0.10491100413976902, 0.10891408025290195, 0.11296617930979037, 0.11710856084642153, 0.1213484540502945, 0.1256686762317625, 0.13018263228300256, 0.13466623180265408, 0.13924261481392453, 0.14384379878735867, 0.14860844714985882, 0.15343713875814596, 0.15836992291446825, 0.1633824824880393, 0.16836863372349195, 0.17355027225922037, 0.17887189276731996, 0.18418412624814928, 0.18956897797631733, 0.1949161454909828, 0.20045555569133097, 0.20606078319338225, 0.2117227762922166, 0.21744517649852374, 0.22315686774445137, 0.22900535817356085, 0.2350075589858646, 0.2409475777252922, 0.24694378776508116, 0.25308347296045236, 0.2591743360971335, 0.2651877198828684, 0.2714016967974441, 0.2776570375359652, 0.2840957505003685, 0.2904100673189262, 0.29660869292386516, 0.30302730437715497