0.027442267528630524, 0.027169485396839735, 0.02694303028221776, 0.026779626190108877, 0.026623866426495776, 0.026483315546243832, 0.026385335390133394, 0.026308279234857426, 0.02625559993195939, 0.026210400432677222, 0.026139951536459243, 0.02612384684055899, 0.026115173474556604, 0.026131319278007076, 0.026132587544601033, 0.026140168677936615, 0.026153607536893143, 0.02617262826248795, 0.026127099195444408, 0.026165907357761038, 0.02624139310734272, 0.026279905877500877, 0.026323639676715423, 0.026399786411287617, 0.026452186610246228, 0.02642627909149183, 0.02650676628894855, 0.026591562930127585, 0.026726821267737216, 0.0268179173247349, 0.026924094234917578, 0.027035315666506216, 0.02715808085659988, 0.027279585964413967, 0.027428709546231913, 0.027561853981043865, 0.027739882595538425, 0.02792986243875449, 0.028094234253259204, 0.028315251296886126, 0.028544918732452237, 0.0287912658963488, 0.02905121009006427, 0.02935390264303807, 0.029639828962759428, 0.02985650078328801, 0.030188634627492713, 0.03053409901728034, 0.030920614207582072, 0.03129241125583416, 0.03165854438505836, 0.0320691915263222, 0.03249726046367235, 0.03290506223808552, 0.033374713199922405, 0.033931422731214626, 0.034427115346069286, 0.03494530327391087, 0.03546273746319946, 0.036029139413035316, 0.03654033925991896, 0.037159693448126516, 0.037796815779502266, 0.038444268547142516, 0.039120587307563626, 0.03978998236677481, 0.04050990558099096, 0.04124948801268868, 0.042016223651995574, 0.042796681849110944, 0.04365943568138202, 0.044477443046510905, 0.04532218643062825, 0.046113648132613184, 0.047021989570670344, 0.04801264388982817, 0.048958713963142525, 0.04993181584108442, 0.0508537214602902, 0.05189115999432134, 0.05293996024010333, 0.0540257230640643, 0.05513537258083844, 0.056291336707515925, 0.057448229085968076, 0.05858397122520851, 0.059801767896600466, 0.061044839450443616, 0.06233227550579783, 0.06362577139361332, 0.06490096249231973, 0.06625752224348955, 0.06764064936618389, 0.06904108358389868, 0.07048076284615581, 0.07201347626201073, 0.07350161291570227, 0.07502261914102533, 0.0765314778971658, 0.07812389906542028, 0.0797483448071396, 0.08140166336811765, 0.08308618499248384, 0.08476555194808438, 0.08651803403587843, 0.08825885429934031, 0.0900771639716286, 0.09192416005050873, 0.09381393838265627, 0.09571881282410179, 0.09763013875407972, 0.09960149364041061, 0.1016036629590944, 0.10365215498813343, 0.10571550434406721, 0.10781349205618046, 0.10994276835322546, 0.11210546206301816, 0.11433335513589525, 0.11655918084600561, 0.11875710375558483, 0.12106159446754515, 0.12339752943202885, 0.12577354335032898, 0.12817215590908893, 0.1306450870410343, 0.1331037968962661, 0.13559760682050373, 0.138059512271318, 0.14063098200383223, 0.14326619821960188, 0.14589450544715535, 0.1485555051406974, 0.15123904894857454, 0.15396624014348784, 0.15668006277858526, 0.15947610431701226, 0.16230099814712565, 0.16518494346731535, 0.16806426385958986, 0.17095450319850156, 0.17389796342286223, 0.17687073364629421, 0.17986102900680148, 0.18289350555711237, 0.18598084227155784, 0.1890661916737153, 0.19218091689062972, 0.19533125472910567, 0.19850258571968554, 0.2016640045535859, 0.20489652320423002, 0.20815428563836658, 0.21147541827754135, 0.21477813950156027, 0.2181074934645423, 0.22146284145464865, 0.22484354955720978, 0.22819731245244887, 0.23163338499049965, 0.2351617092209527, 0.2386296544361377, 0.2421217197756604, 0.24560701191806592, 0.24914847250611064, 0.25267310861267134, 0.2562583250624433, 0.2598601647856857, 0.26348332084496556, 0.26711680247687464, 0.2707344493163398, 0.2744031243555914, 0.27808485504798064, 0.28178934687043694, 0.2854949749110515, 0.28920648576002517, 0.29293751310872007, 0.29667959023240054, 0.300490497682704, 0.30424557416974124, 0.30793983434689265, 0.31172810711936555, 0.3155475565518711, 0.31934452365052585, 0.3231480373176869, 0.32699898452088844, 0.33080794697465316, 0.33454670897121935, 0.33837715591892387, 0.342207471766088, 0.34610883720434626, 0.34992828238614176, 0.35373996916570827, 0.3575639448162783, 0.3613871927152552, 0.36515195649267657, 0.3689776875131526, 0.3728729898738045, 0.3766742260186396, 0.38047144224297114, 0.384246680442118, 0.38803413675222226, 0.39174787314561405, 0.39552507952698324, 0.3992878381413144, 0.40304731036632413, 0.40677812030796634, 0.4104567794001655, 0.414160514188705, 0.41784517171142715, 0.42150856662185066, 0.4251536637568337, 0.42882286404194775, 0.43241979179067214, 0.4359969539346708, 0.4395615661122396, 0.44309479510099886, 0.4466454022027396, 0.4501271572005877, 0.4535862278468402, 0.4569178170651316, 0.46034029898581436, 0.4638284634438763, 0.46717271279062494, 0.47048882486320037, 0.4736704129892189, 0.47693946791238984, 0.4802405376136602, 0.48342435928914196, 0.4865732704199259, 0.4896861947617754, 0.49276207368844666, 0.4957331881684123, 0.49874029720130575, 0.5017035405134007, 0.5046191242961751, 0.5074936255587965, 0.5103142086941156, 0.5130980244819542, 0.5158346055801484, 0.5185317088244771, 0.5211709960550504, 0.5238183521132057, 0.5263525189033155, 0.5288397635536627, 0.5312721968532564, 0.5336628244956347, 0.535929289615981, 0.538226525245379, 0.5404668003427413, 0.5427247523996241, 0.5448404572411788, 0.5468521607056276, 0.5488651157145268, 0.5508191483673216, 0.5527720130062739, 0.5545990539534283, 0.556281987206767, 0.558004066002507, 0.5596617778743355, 0.5612665356872093, 0.5627932371430402, 0.5642620297511154, 0.5656582983036701, 0.5669894831984655, 0.5682267435988682, 0.5694298395426997, 0.570533096012629, 0.5716036042898057, 0.5726036354366991, 0.5735664927208516, 0.574421206177406, 0.5752037537337156, 0.5759208141949095, 0.5765680440732791, 0.577113408756482, 0.5776239026672393, 0.5780650640455105, 0.5784297292350761, 0.5787217492701822, 0.5789576626430856, 0.5791018872086828, 0.5791639961586926, 0.5791649869406957, 0.5790927825924921, 0.5789772404902833, 0.5787544227708296, 0.5784380214246088, 0.5780737709642512, 0.57763574681773, 0.57716054270837, 0.576570120631859, 0.575912815469586, 0.5751776890310389, 0.5743704114578495, 0.5734240792305694, 0.5724803102000305, 0.5715118185497999, 0.5704091991350647, 0.5692340225243623, 0.5679179790369208, 0.5666064752631915, 0.5652938201555403, 0.5638212125668154, 0.5622780351114761, 0.560654335157469, 0.5589714841516412, 0.557141131305976, 0.5553266138538802, 0.5534375754707173, 0.5514949912305975, 0.5494572546267444, 0.5474122562854842, 0.545226001552717, 0.5429740933065255, 0.5406567157417597, 0.5382741165480138, 0.5357299210314932, 0.5332300802509061, 0.5306606774658642, 0.5280946323634853, 0.5253807180916092, 0.5225315019058817, 0.5197034826781423, 0.5168105011811649, 0.5138987676081193, 0.510873743632232, 0.5078047906007949, 0.5046607546977652, 0.5014601485012944, 0.498173641475846, 0.4948657490559014, 0.49151173898851896, 0.48809136787731705, 0.48461749065291637, 0.481047718697298, 0.4774751792966061, 0.4738912762067407, 0.470208740862965, 0.46647817393903623, 0.4626738659901715, 0.4588535144373242, 0.45496324717418885, 0.45105392863421584, 0.4470991944062085, 0.4431104617809698, 0.43906785233606316, 0.4349312183452114, 0.43081525440960494, 0.4266581409456281, 0.42255824417605303, 0.4183116043365533, 0.4139407842368254, 0.40964504074931185, 0.40531480040256274, 0.40103669665741837, 0.39663153038172794, 0.3921330290249378, 0.3876873431351146, 0.3832145278675289, 0.3786893881832148, 0.3741700917931668, 0.36969154350479877, 0.36511713504610255, 0.3605253356356766, 0.35585049949969727, 0.3512354748065023, 0.34663417597833523, 0.34198091019047194, 0.33731474373403586, 0.33267866993813405, 0.3279853907806472, 0.32326383253844443, 0.31856105363481557, 0.31385244592392136, 0.30912756870067487, 0.3044124723333218, 0.29964126304058136, 0.2949287162741753, 0.2902130938535865, 0.28553616627855016, 0.2808145673527782, 0.2760855886118765, 0.27137532107123885, 0.26665290239089645, 0.26195868344541645, 0.2572723223497953, 0.25263196336342403, 0.24796106178130373, 0.24328271939009946, 0.23864409573880424, 0.23402065228984847, 0.22948366829586087, 0.22488552107064796, 0.22036858065892756, 0.2158094423979376, 0.21127781161747272, 0.20676397788941578, 0.20228960043939467, 0.19781999527581487, 0.19340542643762426, 0.189018994669404, 0.1846216301327359, 0.1802993602772163, 0.1760308513187896, 0.1717642390429544, 0.16753036501459997, 0.16336694198573143, 0.15919702237922, 0.15508000187600063, 0.15098470022894783, 0.14692960504572963, 0.14294036619689848, 0.13896449076000025, 0.135082256595262, 0.13118784529416205, 0.12734095453140612, 0.12361845514997254, 0.11985756417868851, 0.11614596174151112, 0.11249051529346286, 0.10888718599003946, 0.10529934172100865, 0.10180509683124317, 0.09839296800744275, 0.09499618273484975, 0.09165279102847941, 0.08842816023763765, 0.08518444879316112, 0.08199896757562823, 0.07887165310566434, 0.07580252688378444, 0.07285335975204642, 0.06989315718246561, 0.06705507329400452, 0.06421125797339716, 0.0614325289350985, 0.05868666846969125, 0.056040609221423905, 0.05352660752031075, 0.05099584150226127, 0.0485312088875646, 0.046110626063650885, 0.043779864319597246, 0.04151807957173265, 0.0393146701720208, 0.03717562515329806, 0.03516269043718045, 0.03314481619861067, 0.031226735515001554, 0.029340747946954192, 0.02752402770761258, 0.02576776812137649, 0.02408930355929157, 0.022520133391088437, 0.020971451466594272, 0.01949239002116705, 0.018102502073260193, 0.01675886992526882, 0.015438149425685357, 0.014239151684529801, 0.013106302357326705, 0.012086320148126942, 0.011079994218111306, 0.010167552576288786, 0.009295467996326584, 0.00849298336789316, 0.007799603981915164, 0.007129802783780923, 0.00650713370855472, 0.005980511423746692, 0.005521692614888435, 0.005141942189706498, 0.004816067229590688, 0.004622513958525351, 0.004422598883087019, 0.004292778038926343, 0.004222120956667022, 0.004231043090272145, 0.004350271490844368, 0.0044869983072223785, 0.004691867601330442, 0.004940618751292666, 0.005282023233382002, 0.005692692188182563, 0.0061614395483195255, 0.006693648384675935, 0.007277096232235481, 0.007936059226949684, 0.008672885392046569, 0.009451709751639899, 0.010291821185418853, 0.011291004792083526, 0.012239573425607206, 0.01321827704720222, 0.014300218686119887, 0.015442768513061306, 0.01661839215991508, 0.01788298366484421, 0.019209221601218265, 0.020585936314801045, 0.022018506491934715, 0.0235713663159033, 0.025105702331323823, 0.026679484800115227, 0.028330609895061407, 0.030036362735782363, 0.031789247883776905, 0.03360264728966254, 0.03550624588590167, 0.037417824885038926, 0.0393820438492763, 0.04142126387560642, 0.04348493189128222, 0.04558142278059087, 0.047748690656114236, 0.0499640710677285, 0.052213444816204664, 0.05452441076493835, 0.05684545755727424, 0.05925041267093687, 0.06169727355357365, 0.0641907179304767, 0.0667197551218802, 0.06936825684390951, 0.07196916987239316, 0.07461466608647885, 0.0772919521765839, 0.08002477705974957, 0.08275499381909131, 0.08557389826466591, 0.0884294070546625, 0.09137607626902472, 0.09429646481678963, 0.09721680131907166, 0.10021767396254831, 0.10325284932666856, 0.10634178318477251, 0.10944139019920658, 0.11252476539824269, 0.11569753290601878, 0.11889985950670479, 0.12214146986556318, 0.1254007852481888, 0.12873096504615172, 0.13204294528518978, 0.13538554511920373, 0.1387312853492026, 0.142136103528944, 0.14557604765229093, 0.14903288972616174, 0.15251598009428705, 0.1560414151009147, 0.15957318464313155, 0.16313711403562733, 0.16671834504400626, 0.17032410858131278, 0.17389204454757715, 0.17755264918924707, 0.18122569086495238, 0.18492524069694657, 0.18864326794809175, 0.19236131017530197, 0.19611819532334626, 0.1999737242459405, 0.2037541349390094, 0.20755590044356176, 0.21133153529662263, 0.21517952655504635, 0.21899562148936758, 0.22288231419917406, 0.22678213091308624, 0.2307334857140523, 0.23465487429841286, 0.23860494614576633, 0.2425549707271403, 0.24652034696310832, 0.25051893644299494, 0.25451129147897067, 0.2584319756497063, 0.2624647385172892, 0.2665065386680805, 0.2706325795359135, 0.2746834879901542, 0.2786580401457724, 0.2827470823120951, 0.28684363940110025, 0.29093293727372255, 0.29504704635240586, 0.29922168330084237, 0.30334361032502394, 0.3074143648090649, 0.3115647533343018, 0.3157215048209359, 0.31990812640008004, 0.3240751116208685, 0.32825679806621977, 0.33243885189778294, 0.33662899077687264, 0.34079697932450104, 0.3450063889299354, 0.3492765141502388, 0.35349039300952695, 0.35771305917394874, 0.3618623492391205, 0.3661114993578498, 0.37035849851828867, 0.37461424630206247, 0.3788730395416673, 0.3831467481822347, 0.38741071233731045, 0.39162883152703487, 0.3959074202726819, 0.40018729402994, 0.4044504508147823, 0.40873614783776757, 0.41305291177513587, 0.4173372381658542, 0.4216248414632475, 0.425882314415378, 0.4301804575149195, 0.43450473757116553, 0.43880212323595613, 0.44310227252784523, 0.44737169190720255, 0.45168110514017473, 0.4560225785444773, 0.4603288416347399, 0.46463738342601096, 0.4688562660118872, 0.47318018456371397, 0.47750212677987003, 0.48181902245596003, 0.4861332244663682, 0.4904533519792001, 0.49476189263920445, 0.4990238398292805, 0.5033349157193338, 0.5076418685583143, 0.5119883312038047, 0.5162823547567706, 0.5204986506774785, 0.5247999950595486, 0.5290954180132631, 0.5334085657569435, 0.5376900336138788, 0.5420092320508363, 0.5462774257894183, 0.550543734860956, 0.5546959419117261, 0.5589710116724032, 0.5633096984648083, 0.5675564263381866, 0.5717982125006048, 0.5760196529586469, 0.5802522354567299, 0.5844561239361356, 0.5886770844118835, 0.592889152773211, 0.5970304670542461, 0.601231951116594, 0.6053970669548182, 0.6095756354387704, 0.6137401623271622, 0.6178908540740864, 0.6220278175805245, 0.6261644052216839, 0.6302721957677955, 0.6343668216992108, 0.6383996313767057, 0.6424730618879467, 0.6465345494022304, 0.6505734125507024, 0.6545954356786743, 0.658573704510737, 0.6625646280693025, 0.6665663110064629, 0.6705147547239355, 0.6744451751706603, 0.6783720034176524, 0.6822627394156294, 0.6861311679678928, 0.6899836139084242, 0.6938153664543952, 0.6975856745455322, 0.7013788582718699, 0.7051118460320884, 0.7088586352748067, 0.7125773459677198, 0.7162460653466323, 0.7199105596593955, 0.7235981665501953, 0.7271951967150956, 0.7307643951703439, 0.7342815955217905, 0.737795587150943, 0.7412846001265235, 0.7447337992400276, 0.7481503862109516, 0.7515402683510294, 0.7548884925474922, 0.7582171591202066, 0.761493515134699, 0.764734447843185, 0.7679139768342691, 0.7710843085114387, 0.7741749174891859, 0.7772701366932645, 0.7803219039309465, 0.783351445737064, 0.7863121874010586, 0.7892025437461845, 0.7920784730742416, 0.7949076648892853, 0.7976562112891166, 0.8003943974795272, 0.8031688382109656, 0.8057948109982672, 0.8083743594491295, 0.8108495979817854, 0.8133398738981434, 0.8157987024727408, 0.8181793612475762, 0.8205068097413064, 0.822741846731202, 0.8249651401940106, 0.8271521675089343, 0.8292563074730326, 0.831302612359578, 0.833281971000929, 0.8352113270822408, 0.8371033806755305, 0.8389077935312214, 0.8406514427667339, 0.8423100788256279, 0.8439324343153535, 0.8454783711256881, 0.8469720363604746, 0.8483989617576942, 0.849731898185715, 0.8510269689141969, 0.8522336974287065, 0.8533906812863843, 0.8544758120287982, 0.8555471281632265, 0.8564802235693564, 0.8573703839536477, 0.858160019057731, 0.858879827003484, 0.8594721094906889, 0.8600564199089836, 0.8606065009743122, 0.8610333367178493, 0.8613858006887176, 0.86166314619282, 0.8618646664948726, 0.8619680230651533, 0.8620186642922805, 0.8619903676893792, 0.8618110670659095, 0.8616328039415975, 0.8614354600183644, 0.86108101921886, 0.8606465268928344, 0.8600649007202806, 0.859477542861067, 0.8588285806529775, 0.8580685883914239, 0.8572253193505734, 0.8563370449643317, 0.8553221643506471, 0.8541492594877681, 0.8529809967657812, 0.8517263536458739, 0.8503923084759321, 0.8489649556241212, 0.8474974288574614, 0.8458941864497037, 0.844208602198092, 0.8424704610523088, 0.8406157807767243, 0.8386115605514324, 0.836602788807898, 0.8345083718979935, 0.832308647972009, 0.8300464869456484, 0.8277669092986936, 0.825325077829267, 0.822802289152633, 0.8201101102917775, 0.8174363806558159, 0.8147716713199775, 0.8119147359518716, 0.8089353569151447, 0.8059256633388654, 0.8028344433645485, 0.7996604863953204, 0.7964078140475168, 0.7931266284871815, 0.7897075808933235, 0.7862123357793873, 0.7825543756121438, 0.778918257648982, 0.7752567925118906, 0.7714540764567895, 0.7675762045350404, 0.7635470798988366, 0.7595303761668725, 0.7554244063420185, 0.7512552940333119, 0.7470105103655196, 0.742714720864368, 0.7383195884299872, 0.7338923030724599, 0.7293523757802993, 0.7247461827608813, 0.7200527863704967, 0.7153190426557744, 0.7104801369064855, 0.7056221720744016, 0.7006988872763154, 0.6956950011740592, 0.6906473259772985, 0.685549166089266, 0.680377177694483, 0.6751466011727518, 0.6699154381031607, 0.6645644915377245, 0.6591871050388057, 0.6537309709556218, 0.6482265782798441, 0.6426563653412051, 0.6370601743031026, 0.6313488997478373, 0.6256690065507999, 0.6199408515138966, 0.6142228769319911, 0.6083963013157705, 0.6024648453808661, 0.5965679793132155, 0.5906300911894398, 0.5846780081667899, 0.5786603511904074, 0.5726567914577606, 0.5665660708010986, 0.5604468947735999, 0.5542437429773039, 0.5480783405911593, 0.5419282621196654, 0.5357031040733539, 0.5294558597478729, 0.5231629041086299, 0.5168788165802539, 0.5105838017768553, 0.504261802145983, 0.49792433812524983, 0.49150966233559473, 0.4851540733030337, 0.4788109437002864, 0.4724256830383309, 0.4660318960311864, 0.4595947073752547, 0.45319387396814187, 0.44683612460535105, 0.4404206968488372, 0.4340067349140104, 0.42754743883283636, 0.4211471474407823, 0.41473524008899476, 0.40834555673413075, 0.40196224755915605, 0.39559561602953824, 0.3892298532608697, 0.38288501436400113, 0.37654512769472, 0.37022176720302913, 0.36390821780342586, 0.35762380153760664, 0.3513985811330918, 0.34515265856307403, 0.33893297499670566, 0.33268412500510264, 0.3265279110444777, 0.3203969416768526, 0.3142965246372602, 0.30822640269301693, 0.30226993708622457, 0.29625507877195795, 0.29025501068967846, 0.28432380275461633, 0.27843283167893557, 0.2725066036295486, 0.26670936402187007, 0.2609733036131023, 0.25525415879792324, 0.2495792955844903, 0.24398021294131553, 0.23839455680819285, 0.23283087788959883, 0.2273505586097693, 0.22192120216326472, 0.21650413326032766, 0.21118571304409203, 0.20599656141656705, 0.20077516046479132, 0.19561364555981503, 0.19047611458321176, 0.18544132884289954, 0.1804367016904449, 0.17552711898993453, 0.17067814392742126, 0.16587769136202357, 0.16115530283566087, 0.15652466857298675, 0.15192670057706759, 0.1473960112050996, 0.1429084045438922, 0.138517824297447, 0.1342221139478084, 0.1299654690982218, 0.12578028196885044, 0.12165046673773382, 0.1176120276378391, 0.1136457844286327, 0.10975237707203514, 0.10593240233841604, 0.10213474013321128, 0.0984697873975253, 0.09493858567376906, 0.09141083396597767, 0.08796022862508023, 0.08454194329501062, 0.08125184629668115, 0.0780035205215105, 0.07486834545286214, 0.07180731756575819, 0.06890107657321129, 0.06598001559599953, 0.06306085748766979, 0.06030992470656505, 0.05763429837321985, 0.05510601699261422, 0.05257294286575614, 0.05003003167585377, 0.047668253186389314, 0.04538072591007266, 0.04323941929694434, 0.041092115976223385, 0.03895035177328386, 0.03696955266305317, 0.03506244457312018, 0.03326407889332392, 0.031499985053050114, 0.029843123262179874, 0.028225687717162228, 0.026684644379235716, 0.025170881077341483, 0.023786423762712568, 0.02252501384162252, 0.021276387717966725, 0.0201012218823549, 0.01903862651882687, 0.01800264008838983, 0.017016347724691565, 0.016128165483516803, 0.015309325631225225, 0.014500535195342258, 0.013824909051471075, 0.01326584951751842, 0.012709450331813752, 0.012218251284160993, 0.011802894414810828, 0.011437539924806192, 0.011101617578281856, 0.010864891051957494, 0.01068681221525733, 0.010568195684794359, 0.010504612089507053, 0.010618802905519026, 0.010651052435241438, 0.010744276917851193, 0.01085814944274257, 0.011072306159247963, 0.01134127184872083, 0.011660083186375809, 0.012029322197916739, 0.012475949158694101, 0.012938350784928186, 0.013542050861470119, 0.014087003672958042, 0.014682093655455771, 0.015258424570676289, 0.01595568677449425, 0.016826401778311083, 0.017585652054738086, 0.018389811287375404, 0.019184825628565216, 0.020078347624172606, 0.021060512426195856, 0.022016327834295246, 0.023090709929964374, 0.024104536374576185, 0.025154573000086083, 0.02616342611860916, 0.027288379614931236, 0.028480317759451694, 0.029649270732870967, 0.030843202627172155, 0.03209716618618973, 0.033331629338713024, 0.03460513970359326, 0.035880521579310175, 0.0371758424119758, 0.03855940973110536, 0.03988072988630942, 0.041247721531363364, 0.042601630793333074, 0.043972087499799174, 0.0453654185775934, 0.04676202456568184, 0.0482600177186245, 0.04966626966029644, 0.051085612595331426, 0.052440789545176766, 0.0538892366453798, 0.05540034161086306, 0.056845325494336595, 0.05829403184566626, 0.05974490301104013, 0.06119648215747525, 0.06271908130352853, 0.06415899776318225, 0.06559978503199675, 0.06706972873449447, 0.06850343868304737, 0.06990992577467162, 0.0713407586666279, 0.07276489566258124, 0.074264526735795, 0.07566134414800497, 0.07701123256436555, 0.0784011991626742, 0.07978049743496256, 0.08114479256107633, 0.08250024868659815, 0.08388540746361231, 0.08520734253004852, 0.08651659433592086, 0.08780215097562886, 0.08908435899479561, 0.09039222455334321, 0.09163644765189918, 0.09286568361285716, 0.09409069451160601, 0.09528585342772633, 0.09646756267017663, 0.09762798648225916, 0.09877040386879177, 0.09992920655059218, 0.10102941759285, 0.10213196471037689, 0.10319362289499213, 0.1042374512572916, 0.10528444966101029, 0.10628796742012304, 0.10721480903500306, 0.10818846703903755, 0.10913947768433765, 0.11014961017899205, 0.11104529336190772, 0.11195659688173416, 0.1128121362335186, 0.11365094939009045, 0.11441913648697886, 0.11522968949310057, 0.11603087314452674, 0.11679808236973618, 0.1175453639836225, 0.11830124844183593, 0.11900571756471061, 0.11967256428229842, 0.12034442295709111, 0.12099780496757874, 0.12166310449680258, 0.12227694572021423, 0.12282859997437517, 0.12341757204208768, 0.12398898409355001, 0.12456692229115827, 0.1251025174638515, 0.12563746516882543, 0.12614399155330863, 0.12663848163978791, 0.12708313422573664, 0.1275600557957583, 0.12806953444166197, 0.12851683011848203, 0.1289561277109405, 0.12935802030696048, 0.12978695349038705, 0.13019812722527035, 0.1306137729942743, 0.13102303324325607, 0.13143196570885102, 0.1318309906137672, 0.1322304081436983, 0.13262414120375723, 0.13301715025373886, 0.13340709891292576, 0.13380208391574408, 0.13421251573413265, 0.1346110917152366, 0.13501464271971017, 0.13541412767546826, 0.1358317949723275, 0.13627681989523646, 0.13670776470664228, 0.13714938866680543, 0.13763264662395677, 0.13809471186423278, 0.1385053901162531, 0.13900724747103363, 0.13952226511297489, 0.14013186741217631, 0.14066729840403586, 0.1411628636177658, 0.14175041161604993, 0.14235776391245672, 0.14303290156340442, 0.14367786886261028, 0.14434247397806035, 0.14504178933260414, 0.14576885889303873, 0.14650802669075344, 0.14729577248212664, 0.1480600927037646, 0.14891561393079775, 0.1498004497907534, 0.15071121536503163, 0.15166010002685854, 0.15264268950291768, 0.1536604713101627, 0.15471487941023462, 0.15584563738783047, 0.1569725568548786, 0.15807726071891412, 0.15929893493603994, 0.16056164661741104, 0.16188519835850584, 0.16323199764891227, 0.16468340598856904, 0.16611649108485635, 0.16760133983990114, 0.16907686606107253, 0.17067483634122382, 0.17234128759081332, 0.17403837840153794, 0.17578889365316663, 0.1776004091666496, 0.17945962933834286, 0.18131862126981446, 0.1832986810630056, 0.1853335468323377, 0.18749609324143032, 0.18963502199295568, 0.19174446430154946, 0.19401977985714902, 0.19635296383424886, 0.19872683491464296, 0.20118144864955334, 0.20368276628957713, 0.20626019350577543, 0.20889891659419688, 0.2116582553873185, 0.2144150318228536, 0.21722403365832982, 0.22011740905874, 0.22307764582768283, 0.22609007274967757, 0.22918688834731585, 0.23233561236255315, 0.23556849709859473, 0.2388681043402211, 0.24219813912627677, 0.24563690107697203, 0.24914795176635202, 0.25271761444247515, 0.2563541873265361, 0.26003794403086433, 0.2638116256258325, 0.2676150431133097, 0.2715264135942632, 0.27550252471845876, 0.27956542080069335, 0.2836692884242097, 0.2877765770476365, 0.2920218815497606, 0.29633012863531477, 0.3007066004334915, 0.30514082286172767, 0.3096404239676155, 0.314201762320165, 0.31878161379714876, 0.323475396449198, 0.3282295224205715, 0.3330172458086712, 0.3378950928191706, 0.342822897053984, 0.3478182078386255, 0.3528708794765727, 0.35805726184945413, 0.3632138673515581, 0.36834916087280184, 0.3736355897467314, 0.37897531725763983, 0.3843327406511424, 0.3897816092262826, 0.39531642797383576, 0.4008586479450016, 0.4064509628228162, 0.41204729929328554, 0.41774224248978886, 0.4234430598849217, 0.4292304231278459, 0.43505805019498595, 0.44095022800253064, 0.446852956718662, 0.452823208518851, 0.4587994947596151, 0.46481403473207916, 0.4707852392958272, 0.47688164944898426, 0.48297868374596364, 0.48913559773883486, 0.4953177763432481, 0.5015609236118139, 0.5077859770694865, 0.5140734604634487, 0.5203402770053079, 0.5266301471918916, 0.53287275723709, 0.5392114654838155, 0.5455401410047642, 0.5519069826877891, 0.5582828967063646, 0.564666509963195, 0.5710563677265194, 0.5774309381078399, 0.583831160841929, 0.5902317247573096, 0.5966994240431868, 0.6030873105609056, 0.6093945122050184, 0.6157888856028999, 0.622173544399569, 0.6285235451360682, 0.63488684222482, 0.641314123607901, 0.6476336571232756, 0.6539384040663994, 0.6601793284747228, 0.6664533440135194, 0.6726796078484095, 0.6789058321495701, 0.6851024825793125, 0.6913327992048085, 0.6974567308869282, 0.7035226389331195, 0.709584837990552, 0.7156094277145154, 0.7215809632280475, 0.7275257001399392, 0.7333791018924212, 0.7392384419147033, 0.7450465462278291, 0.7507918079398856, 0.7564938434914203, 0.7621941432468491, 0.7677740906392901, 0.7732970545968996, 0.7787625459063786, 0.7841648923479813, 0.7894389555641009, 0.7947208910226721, 0.7999317649112778, 0.8050317340617394, 0.8101007848862611, 0.8151020105178474, 0.8200128572300444, 0.8248438092577498, 0.8295783920061492, 0.8342470041340819, 0.8388337110474166, 0.8433299983742497, 0.8477383555163699, 0.8521172907235877, 0.8563376845297228, 0.8604223078866393, 0.8644684061986598, 0.868418842949718, 0.8722537757514411, 0.8760107014405721, 0.8796514550814638, 0.8832066245498436, 0.8866571569658596, 0.8900585430645537, 0.8932890760518695, 0.896441259717713, 0.8994567402829943, 0.9023654836320385, 0.9051390947143996, 0.9078326525240101, 0.9103630594202764, 0.9128353997829288, 0.9151893331896283, 0.9173957710747598, 0.9195142212003141, 0.9215104259121208, 0.9233838747167552, 0.9251340408294916, 0.9267937260044569, 0.9282914966824458, 0.9296362327882269, 0.930890935053599, 0.9320193619624707, 0.9330477105329446, 0.9339188079352723, 0.9346420835941607, 0.9352629845739661, 0.9357553029485935, 0.9361603557695046, 0.9363892012642862, 0.9365141634945434, 0.9364850230524879, 0.9363288602736095, 0.9359616990844556, 0.9355602367827266, 0.9350471388193321, 0.934376639625413, 0.9335746800383976, 0.9327014148930899, 0.9316294139750603, 0.9303498380034334, 0.9290325889513144, 0.927582902278884, 0.9259646939504925, 0.9242565400640651, 0.9224323467515889, 0.9204575799169571, 0.9183528438704788, 0.9161122149670247, 0.9137506244001231, 0.9112826223818368, 0.9086629633301948, 0.9059181201406814, 0.9031287938379441, 0.9001255717176344, 0.8969721723686, 0.8937361131409799, 0.8903802322095175, 0.8868551826969838, 0.8832680402695605, 0.8795904819908019, 0.8757599856391102, 0.8718133311301592, 0.8677015854973296, 0.8635322124655546, 0.8593055912549645, 0.8548992837202276, 0.850383903661212, 0.8456872578236068, 0.8409665228075526, 0.8361495714377827, 0.8312099645236367, 0.8261653704165611, 0.8210509044589522, 0.8157974542477485, 0.8103828871989358, 0.8049434249683347, 0.7994057297168771, 0.7938302644863524, 0.7880950656049357, 0.7822312007298828, 0.7763253390197558, 0.7703318176219321, 0.7643043265105574, 0.7581350023355619, 0.7518586423930954, 0.7455371247642536, 0.7391386190168389, 0.7326650909327657, 0.7261185317219812, 0.719444281602216, 0.7127648972663214, 0.7060154188736704, 0.6992083879251861, 0.6923250412230408, 0.6853546759954356, 0.6783528281826923, 0.6712922827089611, 0.6641872519157421, 0.6570154337358609, 0.6497947747765024, 0.6425240921035739, 0.6351993734915632, 0.6278406711626409, 0.6204404525919132, 0.613024441275009, 0.6055453875150496, 0.5980515901409014, 0.5905062275811934, 0.5829331688560423, 0.5753144635167075, 0.5676947313624598, 0.5600640988206478, 0.5524000526473001, 0.5447186933430415, 0.5370439009605961, 0.5293318181986028, 0.5215402936475299, 0.5138202693278874, 0.506091049173553, 0.49834864847657784, 0.49060987931054423, 0.48292611985591904, 0.4751794511453604, 0.4674394467090315, 0.45967982060793283, 0.45196289853873506, 0.4442272438028811, 0.43653897546482096, 0.4288649048305407, 0.42123421548994655, 0.41359265420296654, 0.40596083694479296, 0.3983692711947009, 0.39080431969539153, 0.3832682038824263, 0.37576311282878194, 0.36826953375198257, 0.3608356727219385, 0.3534379986162812, 0.34607541607933223, 0.33875720071876514, 0.3314948819411982, 0.3242622181102629, 0.31707704502958306, 0.30992460444820996, 0.3028422209004188, 0.2958120276719596, 0.2888359718965207, 0.2819159515128984, 0.27509215627652794, 0.26828486416541053, 0.2615161692090593, 0.254840648122081, 0.24823013492095444, 0.24172623192552678, 0.23524542900414502, 0.22880488971877957, 0.22247313011459838, 0.21621386883224128, 0.20996852293152965, 0.20386608942013673, 0.1978402915282587, 0.19188583933498893, 0.1860083771574937, 0.18027783212862603, 0.17455037415187458, 0.1688182298241724, 0.1632736033589158, 0.15781083790905187, 0.15248978191274395, 0.14718777878051334, 0.14191678960455767, 0.1368016274951816, 0.13177402337872107, 0.12686014634173653, 0.1220079046655393, 0.11726786484265471, 0.11259820648321821, 0.10802324971520837, 0.10354845102871599, 0.09916360446376064, 0.0948150132041476, 0.09063061221928938, 0.0865397391594625, 0.08251981401038519, 0.0786211295408291, 0.07488001552801916, 0.07116246794736329, 0.06754398655137815, 0.0639945568496869, 0.06057794765011941, 0.05725028170458263, 0.054029436065102035, 0.050905650523382154, 0.04784902730996819, 0.04492341398056427, 0.04208664464097632, 0.0393530651992501, 0.03671487234103716, 0.034227129203245006, 0.031772834928205915, 0.02942860280969559, 0.0271689988046252, 0.025007185590425116, 0.022904078058973588, 0.020940451004837782, 0.019028532753723654, 0.017256476420959024, 0.01557448742848447, 0.01396733553449063, 0.012466605264243046, 0.011045820141482034, 0.009722344841483342, 0.00848587622154108, 0.007372624319399833, 0.006304059861087675, 0.005366263644255379, 0.004466080562298263, 0.0036537362401267578, 0.0028528131052466183, 0.002221426792177487, 0.0016911592294181527, 0.0012151581215993094, 0.0008182070262727668, 0.0005208937712253589, 0.00027601669152293974, 0.00011137700583839766, 1.851727150400006e-05, 0.0, 0.00011108200697760036, 0.00022981851658038149, 0.00037011990789540347, 0.000639966932553504, 0.0009763946915534993, 0.0014380120250232738, 0.0018957956574851594, 0.0024426145403242663, 0.0030269133538230217, 0.003674403633843404, 0.004351379567320604, 0.005123212366038122, 0.005942187918090226, 0.006824402602593536, 0.007758380874241579, 0.008829256359894415, 0.00985115787762485, 0.010898363641246321, 0.012025330280228202, 0.013198341627845247, 0.014482185515995625, 0.015733226060884144, 0.017038497532748536, 0.01837440939963437, 0.019750559450356246, 0.021171388919700575, 0.02262057770016612, 0.024140617697889288, 0.02565147633218357, 0.027194537736877685, 0.02878425389229913, 0.030383052127906002, 0.03209194667235946, 0.033731601416027455, 0.03539855634205346, 0.037093527885265355, 0.038806959643931965, 0.040517125325387926, 0.04227141293459107, 0.04404010129450292, 0.04585802822420247, 0.047645445511247046, 0.04949235617738395, 0.051294021363299386, 0.05310574862522674, 0.05497537692727619, 0.05679451761032243, 0.058602029262420655, 0.060434655569923564, 0.062268603544170624, 0.06416704626382828, 0.06599000101933847, 0.06787436618046143, 0.06968688991372154, 0.07149854334106324, 0.07333532712364407, 0.07513481914643122, 0.07689351873068004, 0.07868377129595026, 0.08046224632746023, 0.08224576932882426, 0.08399393273125158, 0.08577376285007565, 0.0874846091681272, 0.08918035441271319, 0.09084105623839858, 0.09250421985705046, 0.09423513303923968, 0.0958448026097902, 0.09743664950656848, 0.09905898404604574, 0.10060392034754216, 0.10209251305491718, 0.10360105668675283, 0.10508466064302778, 0.10658391891026243, 0.10800923613595807, 0.10937066510802544, 0.11074859150304399, 0.11220333774328503, 0.11350744192416362, 0.11478651847422353, 0.116019218276069, 0.11724688987224975, 0.11846817370571715, 0.11963269693574376, 0.12076741026716077, 0.1218982434693101, 0.12296785046562704, 0.12402390832822603, 0.1250303163137495, 0.12600624356197704, 0.12690444074191962, 0.1278236921103494, 0.12877344905232924, 0.12961557530112502, 0.13042709228039262, 0.13124099594609037, 0.131986151207522, 0.13269016385148333, 0.1333775126537701, 0.1340341770377249, 0.13463679443100784, 0.13523504653369836, 0.13583814159901794, 0.13636848920347222, 0.1368698899736885, 0.13730251567016952, 0.13775168913234828, 0.13816375302029324, 0.13855359080617458, 0.13891404128527518, 0.13929757529151188, 0.1395951175660214, 0.1398952682373171, 0.14014173219371018, 0.1403665337792595, 0.1405650035122899, 0.140748190311193, 0.1409190075954639, 0.1410603366148022, 0.14118269930640437, 0.1412917521762129, 0.1413775783446118, 0.14141519354794616, 0.14147273152383408, 0.14151357813965174, 0.14153720999744754, 0.14154832943801765, 0.14162448264538405, 0.14160027144373072, 0.1415695553828499, 0.14145291520992037, 0.14142117590983297, 0.14137381515739955, 0.1413264942012482, 0.1412727989834661, 0.14128258804139815, 0.14121203123923343, 0.14108842712543618, 0.1410296738550745, 0.14097170446293353, 0.14095100388413953, 0.1408946081108692, 0.14080704137151295, 0.1407710112770102, 0.14074239120964976, 0.14077107008969061, 0.1407557888790194, 0.14077190624006483, 0.140785100239972, 0.14081624626301786, 0.1407830614225728, 0.14086388776607828, 0.1409896541563988, 0.14110196258209495, 0.1412361346676156, 0.14144038121517488, 0.14161697562810877, 0.1418309568190932, 0.1420657231783222, 0.1423322865104114, 0.14255341938324081, 0.14289687103476212, 0.14329284426170688, 0.14369709457442448, 0.1441370263558823, 0.14466753204241903, 0.1451767063301344, 0.14565744651938964, 0.14626321185528315, 0.14691030705156968, 0.14761873567374786, 0.14835112161954375, 0.1491007089281445, 0.14993267153903192, 0.1508128715374662, 0.15178120807417997, 0.15275765924790674, 0.15371900466824423, 0.15481521272813817, 0.15596457654053533, 0.15720707305756673, 0.1584627319319409, 0.1597550344897779, 0.16113470576227087, 0.16257522008097564, 0.164127816441904, 0.1656873361866909, 0.16725737223315656, 0.16895912434038884, 0.17072625789483373, 0.17253658076680656, 0.17444080465161999, 0.17643403399840402, 0.1784713552374178, 0.1805794871017389, 0.18277761452445743, 0.18502755112684074, 0.18734174054502556, 0.1897420229141948, 0.19221712070108285, 0.19470429733931444, 0.19733882060277202, 0.20005798929807506, 0.20283800303209146, 0.20569357454055245, 0.2086137636724761, 0.21162403636755303, 0.21468283876006616, 0.21785103833535646, 0.221095656888551, 0.22442738469352383, 0.22782554613068662, 0.23127079852289506, 0.23483082569773248, 0.23846843988921057, 0.24215242316239713, 0.245950481951631, 0.24980542891483173, 0.2537602396738276, 0.25779158899432303, 0.2619598740065877, 0.26613776034189285, 0.2703663726753593, 0.2747090967689289, 0.2791299997797207, 0.28361883818720074, 0.2881965755518569, 0.29279267851967183, 0.29753086938134465, 0.3023417511744602, 0.3072570002912029, 0.31220915775917313, 0.3172437932016552, 0.32234261054675045, 0.3275148318907577, 0.3327230257831282, 0.3380443682446993, 0.3434179721455604, 0.3488786847473778, 0.35440611636944674, 0.3599179706120786, 0.3655872311633666, 0.37135152960208107, 0.37713622724924306, 0.3829823668486685, 0.38887250496306697, 0.39484122040967873, 0.4008428430477696, 0.4069296423318043, 0.4130710588250699, 0.41923788081622715, 0.42548939021216486, 0.43177266838337913, 0.4381257754854474, 0.44452598858343007, 0.45100398796557545, 0.45749132504574247, 0.46398257936502874, 0.4705648195507937, 0.47718716549804513, 0.4838599736038057, 0.49055703359405406, 0.49725232844430506, 0.5040257426470192, 0.5108302419569415, 0.517616048467384, 0.524484435612494, 0.531371639743311, 0.5382870170189853, 0.5452232646420931, 0.552242276286486, 0.5592078106843055, 0.5661564703068009, 0.5731640172878087, 0.5801848575965707, 0.5872253878061569, 0.5942659049474451, 0.601307580239766, 0.6083624744866305, 0.6153738894552002, 0.622438969776455, 0.629500392334894, 0.6365330460489855, 0.6435847165730247, 0.6506025722225325, 0.657634475988992, 0.6646509992282741, 0.6716687725653365, 0.6786470213987494, 0.685578905280057, 0.6925190760256121, 0.699433895739821, 0.7063714578675158, 0.7132234566468004, 0.719960335962793, 0.7267639613258496, 0.7335293889943172, 0.740286564305272, 0.7469663432299338, 0.7535743172997938, 0.7601721247168183, 0.7667221040381891, 0.7732356424765985, 0.7796823980993964, 0.7861177986199455, 0.7924510810969797, 0.7987293730243177, 0.8048868397950109, 0.811055727621769, 0.8171503858840384, 0.8231866776099107, 0.8291528619114922, 0.8350854412557408, 0.8409010298789402, 0.8465864140157007, 0.8522599134635805, 0.8578523388857762, 0.8633753448474967, 0.8687988681187491, 0.8741852940015766, 0.879429981958723, 0.884588256241379, 0.8896262229634208, 0.8946090670959537, 0.8994555563884473, 0.9042525111810147, 0.908948877649795, 0.9135682460547521, 0.9180560175625042, 0.9224803274261999, 0.9267544591053081, 0.9309241015889425, 0.9349756707440606, 0.938932131751057, 0.9427045599101218, 0.9464472951035398, 0.9500720293922373, 0.9536245026925572, 0.9570045075530066, 0.9602462603326354, 0.9633909350020289, 0.966413556319441, 0.969301338061199, 0.9720779973871316, 0.9747003276083456, 0.9772276381691992, 0.9796254865789605, 0.9819381972871243, 0.984069378537006, 0.9860398963381632, 0.9879160569209853, 0.9896594205592977, 0.9912476408225933, 0.9927261448197131, 0.9940936836386187, 0.9952966643701178, 0.9963642418449691, 0.9972758121908452, 0.9980733530416159, 0.9987210271517921, 0.9992433388062255, 0.9996262071663747, 0.9998694725399788, 0.9999729947514603, 1.0, 0.9998157018446008, 0.9994949459240213, 0.9989721830105973, 0.9983852114460199, 0.9976701392156391, 0.9967988719364907, 0.995787462797885, 0.9946277768484942, 0.9933377765093391, 0.9918812146977825, 0.9903151939724232, 0.9886085971908425, 0.9868321083096585, 0.9848375368980071, 0.9826283607359261, 0.9803748750335572, 0.9779827042260719, 0.9754644906619885, 0.9727963989482242, 0.9700048806591531, 0.9670660253356275, 0.9639945600293659, 0.960839688865, 0.9574995231390032, 0.9540105067771535, 0.9504193222949372, 0.9467010374107758, 0.9428582739780209, 0.9388885033007526, 0.9347497644568818, 0.9305388808399139, 0.9262038044093347, 0.9217994692803619, 0.917214048502878, 0.9124638930593425, 0.9076529939915671, 0.9027254511209319, 0.8976896520832484, 0.8925331525130558, 0.88726392053934, 0.8818872147966806, 0.8764028035718525, 0.8708441375600916, 0.8651456729120061, 0.8593133539784827, 0.8534196736306471, 0.8474268648924191, 0.8413285733861521, 0.8351445208394307, 0.8288785370918847, 0.8225079137143905, 0.8160485647446283, 0.8094908556592175, 0.8028616576948161, 0.7960892458921662, 0.7893034272794035, 0.7824354491273445, 0.7755430263727486, 0.7685118453506942, 0.7613312288337959, 0.7541699133561418, 0.7469374135465189, 0.7397265592994903, 0.7323487008694494, 0.7248446518753855, 0.7173616857303444, 0.7098209773379123, 0.702230120680307, 0.6945810512810989, 0.6868538937332703, 0.6791113970661207, 0.6713225299770695, 0.6635066603483183, 0.6556310047040874, 0.6477445772334747, 0.639793132620548, 0.6318106708693818, 0.6237377538393943, 0.6157077906311195, 0.6077051300052639, 0.5996155873885551, 0.5915069546023345, 0.5833681519724478, 0.5752298078957127, 0.5670417649477243, 0.5588844084116715, 0.5507167706984403, 0.5425515433942475, 0.5343701070434297, 0.5262369064857605, 0.5180480960529327, 0.5098652821629337, 0.5017105124121828, 0.4935433237734738, 0.48532279008201423, 0.47719265108423164, 0.46907604757401017, 0.46095219892926037, 0.45287324446350263, 0.4448273966490433, 0.43678892175789336, 0.4287761521862466, 0.420774816420878, 0.4128227172204757, 0.40488078867851035, 0.39699752263642374, 0.389149650220426, 0.3813696556480833, 0.3735961439041333, 0.3658852745969974, 0.3582000933347832, 0.3505642901042056, 0.3429746930042262, 0.3354437529986495, 0.3279190187242009, 0.32050511201425125, 0.3131466721108047, 0.30590921251935715, 0.298660134934459, 0.29144970377846724, 0.28433608595705656, 0.2772441874345263, 0.2702713766377084, 0.26336605999764917, 0.2565435304778774, 0.24977730903702772, 0.2430449614128282, 0.23643318102360122, 0.22989622451727776, 0.22343925927553301, 0.21705693656716807, 0.21073651523645007, 0.20451852860733236, 0.1983827597381157, 0.19236742302636692, 0.18639599159944437, 0.18053487534925786, 0.17473899395931075, 0.16903493593094096, 0.16336677630976087, 0.1578557667767832, 0.15248894307468666, 0.14715402877325015, 0.1419151763820967, 0.13676628719698833, 0.13172209028389395, 0.12672355576961605, 0.12188112765403591, 0.11713422677495888, 0.11249710078190836, 0.10794221989710398, 0.10355444459847675, 0.09918900781435445, 0.09492723297810787, 0.09072567505297041, 0.08667640112755645, 0.08275474344909803, 0.07890425224381142, 0.07515668625766046, 0.07141865674042056, 0.06788860327225993, 0.06445605600825105, 0.0611216617075083, 0.05788594877968977, 0.05476933776895045, 0.051729606381795655, 0.04876228688921654, 0.045927599971753295, 0.043191929590610766, 0.04061701106277014, 0.03807166304523365, 0.03560036948528229, 0.033262700051149195, 0.031024441817122106, 0.02883676497968418, 0.026801929889296746, 0.024870527845456097, 0.023024604489201277, 0.02127369520554179, 0.019608993682776864, 0.01804768112696795, 0.016584294078029478, 0.015207595299424632, 0.013922828040398454, 0.012804230602022923, 0.011691467589127789, 0.010645695842756637, 0.00972210026062423, 0.008887641394125765, 0.008104386127445361, 0.007449048864288774, 0.006972002040903282, 0.006470212707561411, 0.006055005538986317, 0.00571453511918616, 0.0054682785172074574, 0.00531599929909051, 0.005227716387576899, 0.005217599803928844, 0.0052739607571365, 0.00541640905789554