0.04927742270407034, 0.0485646590875055, 0.04787294164826631, 0.04719926607570553, 0.0465668575448515, 0.045918458143172504, 0.045249759701646075, 0.04462881994558935, 0.04401509751341518, 0.04343449860430222, 0.0428286192332766, 0.04219810316878385, 0.04160708463212923, 0.04101875897122574, 0.04040816052702046, 0.03982756762812639, 0.03923828332041751, 0.03866045175024705, 0.03808314579831706, 0.03755953913115183, 0.03697749680066241, 0.036354042049268974, 0.035786526954384175, 0.035220713378947756, 0.03465462444883957, 0.03409362644730116, 0.0335176761857379, 0.032964628292174405, 0.03241400036514185, 0.03190388653075785, 0.03135478775163159, 0.030789277268822718, 0.030254934195033053, 0.029725470303731294, 0.029168286307384973, 0.028653635632080593, 0.02818871159671272, 0.02767658757443024, 0.0271719374727701, 0.026690106340714174, 0.02619868690723239, 0.025715827348892273, 0.025241493958177933, 0.024775673416282142, 0.02425021538072623, 0.023810068529180387, 0.023386421505195827, 0.022954882601336164, 0.022529887199389087, 0.022127105137353612, 0.021714411930321535, 0.021323127041413318, 0.020925942418046333, 0.020538312820305663, 0.020175571673538263, 0.01980529871482776, 0.019436227870152815, 0.01908830206664182, 0.018750378392411438, 0.018395498749973684, 0.018081211901618648, 0.017801494134575997, 0.017501683065779358, 0.017212640590365372, 0.016996711677605678, 0.016721538192704232, 0.016465555862251183, 0.016218364584233882, 0.015985188895537066, 0.015681115103722644, 0.01548580906720548, 0.015381287301572108, 0.015193180709954693, 0.015019267720868442, 0.014868758925497482, 0.014721524924687469, 0.014562736989124435, 0.014447239512174668, 0.014344378929545598, 0.01424962181297674, 0.014173141093246367, 0.014161269681969974, 0.014104295828384635, 0.014063598230893926, 0.013988469791767693, 0.013986231056015803, 0.014042878092970421, 0.01406132826228453, 0.01409613188989923, 0.01409790952315773, 0.014171616495109873, 0.01426950194574254, 0.014369536608138552, 0.014484659787297552, 0.01466689838992892, 0.014806617767740398, 0.014954683766739883, 0.015133457049347494, 0.015330343809954206, 0.015577105539009204, 0.015806331712686125, 0.016040340550522093, 0.016311452172572037, 0.016601483743177967, 0.01694455845250756, 0.017268278833352944, 0.017574250021203257, 0.01794475658948897, 0.01833381385633255, 0.018772199759560747, 0.01919517011906732, 0.019580320752954225, 0.020052560279848076, 0.020542404883081185, 0.021076197949021474, 0.02159941893935751, 0.022116027729588306, 0.022683669306261266, 0.023270550376268268, 0.023881750202310103, 0.02450761939546678, 0.025178708142794045, 0.025842791275322026, 0.02652927775940385, 0.02728047965592721, 0.028006456893445855, 0.028717302698208717, 0.029497659016074977, 0.03030000867474192, 0.03108331459403498, 0.0319351199669961, 0.0328233218156635, 0.03371334547445435, 0.03462500726664253, 0.03558082110450341, 0.03653347552442768, 0.03754241990866958, 0.03853763493480662, 0.03955798026322474, 0.04059257000503936, 0.04166361870650944, 0.0427266500175004, 0.043849000951250036, 0.044993036736431326, 0.04619298681342577, 0.04737651777271606, 0.0485346849741973, 0.049772253580643945, 0.051030693458939534, 0.05232317467278861, 0.053622417532180826, 0.05492507832723067, 0.05627117320846001, 0.05763848776567312, 0.059015425859196946, 0.06042709614920918, 0.06192079740835858, 0.06336675084782335, 0.06483733509031667, 0.06632391777856096, 0.06784361297792424, 0.06934521425882363, 0.07091591620317676, 0.07250683260925549, 0.07415448235067172, 0.07578146288195833, 0.07734979994226765, 0.07903161588123712, 0.08073074623745903, 0.08249222373610134, 0.0842214015984721, 0.08594194675451171, 0.08771614698187599, 0.08950906980175843, 0.09130899780384098, 0.09314091280750507, 0.0949814763905343, 0.09685069864189219, 0.09873744099333304, 0.10066404605810328, 0.10258300952790717, 0.10448071308928918, 0.10644183067437023, 0.10841882096248927, 0.11042227644137491, 0.11242967600037301, 0.11450515342961678, 0.11653856188098276, 0.11852501192192896, 0.12060376746112414, 0.12269637420023666, 0.12481920354974244, 0.12693715192824004, 0.1290624649224318, 0.13120981037592086, 0.13337051145792864, 0.13552194570317536, 0.13771127441550451, 0.1399246883331674, 0.14213453194374304, 0.14435588481985498, 0.14660720484325715, 0.1488481509653432, 0.15107355306919198, 0.15334034002611052, 0.1556160137865779, 0.15794726310632395, 0.16023380044632213, 0.16251910155129523, 0.16482739970307625, 0.1671440744768406, 0.16945324675002596, 0.1717868096892348, 0.17408264013777003, 0.17643274414357416, 0.1787852508688392, 0.18116472445216608, 0.1835185282699016, 0.1858309823699494, 0.18819659105264938, 0.19056208743476657, 0.19298023572589343, 0.19533842167100773, 0.19771305844329273, 0.2000734703309423, 0.20243565407960407, 0.20478942807004863, 0.20715402556061518, 0.20946119032700092, 0.21183022257177433, 0.21419378897718885, 0.216570519563249, 0.21892021297567768, 0.22126483660039534, 0.22360393216809388, 0.22593702345213248, 0.2283012210950505, 0.2306160586007531, 0.23285850448249915, 0.2351701552124217, 0.23747099784264827, 0.23974551446842418, 0.24202590298725984, 0.24431257424555625, 0.24656530973984261, 0.24880605778657436, 0.2510848686677576, 0.25329379889653636, 0.2554121824615445, 0.257609001064849, 0.25978886558181563, 0.2619950360953104, 0.2641347930278196, 0.26623221698131555, 0.26834408420413813, 0.2704377485487029, 0.2725585805349949, 0.2746086535888551, 0.27657586756839786, 0.27859928156323777, 0.28060024100724495, 0.2825913967407707, 0.2845449515150405, 0.28653812834959513, 0.2884380194523269, 0.29031778951595, 0.2920988882796279, 0.2939452938963032, 0.29579613006803884, 0.29758371078413914, 0.29934530116101465, 0.30107566076417874, 0.30278424930537046, 0.3044461767311595, 0.30610093615764283, 0.30772580790064913, 0.3093310348259986, 0.31089377901479004, 0.3124085577676303, 0.31391239302985824, 0.31538398238029886, 0.31689351678731587, 0.31829074222689013, 0.3195834890046853, 0.3209307602073424, 0.3222427660267586, 0.3235404655334844, 0.3247786667123545, 0.3259833244845633, 0.3271515210549904, 0.32828423491443265, 0.3294245322163047, 0.33047955698165127, 0.3314932826221421, 0.33247997111399297, 0.3334306084323999, 0.33437752763775014, 0.33525023376934826, 0.33611417018036244, 0.3369111428526597, 0.33767245543860636, 0.33839846838775434, 0.3390859504830924, 0.33975561058354037, 0.340364371951137, 0.3409353241815068, 0.3414725318846306, 0.3419654378437432, 0.34241793025286704, 0.34283203600436707, 0.34320595396768816, 0.3435393370146096, 0.3438318868794498, 0.34409862600913693, 0.34430685754402124, 0.34447447051851865, 0.3446505540290345, 0.34472994230259146, 0.3447731737305512, 0.3447747176190528, 0.3447369049690258, 0.3446088169361575, 0.34449758219489696, 0.3444184010363391, 0.3442115669631624, 0.3439662328707908, 0.3436890664898978, 0.34336477152347616, 0.3430449321257676, 0.34263687142755755, 0.34219184881058784, 0.3416565400734166, 0.341143042246767, 0.3405956153894716, 0.3399995145963019, 0.3393633452611899, 0.33875784220499866, 0.33803333366989763, 0.33729579871562687, 0.3364974904153547, 0.33566463009369596, 0.3348439417853429, 0.3339352919501612, 0.3329659667903403, 0.331995541506935, 0.3309903889675609, 0.32995409179768564, 0.328879279738239, 0.3278361147299272, 0.3266848825235032, 0.3255036717576794, 0.3243275257886534, 0.32308138290910565, 0.3217857803964641, 0.32048550286037397, 0.31915546046738696, 0.31784873020798665, 0.31645313947154413, 0.3150010057238869, 0.31355726790939137, 0.31208587315727876, 0.31061544131174884, 0.3090864749430346, 0.30755517331469867, 0.30597439930372816, 0.3043709621912185, 0.30277335185132076, 0.30112196247467526, 0.2994458774025887, 0.2977553595563774, 0.2960452016190042, 0.2943111667552666, 0.29256377558997776, 0.2908615056775866, 0.2890700929805827, 0.28726528496779086, 0.285416762988081, 0.28358982286134937, 0.28175579819477226, 0.27990043091394434, 0.27803283048265837, 0.27617137136109854, 0.27427935649639157, 0.27241369903761553, 0.27050013931985517, 0.26858111126496487, 0.26668531716483174, 0.26475335596766514, 0.26278043104015736, 0.2608494600673431, 0.2589151215243015, 0.2570523621673601, 0.25510469938104047, 0.25318413929391814, 0.2512410878407451, 0.24924387734042397, 0.24732030410151656, 0.24539995164486175, 0.24350381569496632, 0.2415904514160011, 0.2397350573305736, 0.23783108282207563, 0.23593920507071184, 0.2340164877151035, 0.2321559977051567, 0.23038337644397622, 0.22853728668594145, 0.2267091411525855, 0.2248817918546228, 0.2230932773279326, 0.2213128047725674, 0.2195636936457839, 0.2178343048933178, 0.21613267323400182, 0.214444806905695, 0.21275068047651463, 0.21111373069236927, 0.20950019997371197, 0.20794422153015474, 0.20637704085970865, 0.20485285916828408, 0.20334259879309116, 0.20186385659172676, 0.20046093050586608, 0.19904220940638945, 0.19760356687254196, 0.1962654718524803, 0.19496180793825799, 0.1937535923163964, 0.19251446290355695, 0.19124231994134677, 0.1900951496651987, 0.18898601635663692, 0.18793849061122916, 0.18690629961615357, 0.18596518999377454, 0.1850136625832586, 0.18410962928828917, 0.18326302900961117, 0.18245444519011944, 0.18171557501257835, 0.1810044935661023, 0.18034540901327797, 0.1797117444634692, 0.1791614628167623, 0.17864432840207234, 0.17820109503011697, 0.17781030023596173, 0.17744113450743246, 0.1771619568417041, 0.17700544556571668, 0.17682527202556794, 0.17670446503802353, 0.17657177560756646, 0.17658007818043603, 0.1766756241486987, 0.1767944987902794, 0.17697382140938137, 0.1772730308177003, 0.17756784840614437, 0.177930739276168, 0.17835684360027212, 0.17884911284422272, 0.17934309946205132, 0.17997644349504469, 0.18067529626884263, 0.18143542630509782, 0.18226032701081532, 0.1831894223628299, 0.1841408550080668, 0.18512108805524238, 0.18621528552666222, 0.1873764063758334, 0.18864022735571032, 0.18993226525181336, 0.19130404594776892, 0.19273569214756983, 0.19423842965231317, 0.19580406048196614, 0.19745010550875722, 0.19919741887598735, 0.20098112549761352, 0.2028374348626598, 0.20469801160063866, 0.20670761833934284, 0.20877610276742395, 0.21092385596004182, 0.21314009804688086, 0.21546983464885003, 0.21781839902348551, 0.22021531825964424, 0.22271037350563322, 0.22527556786148245, 0.2278814963362301, 0.23059056339442907, 0.2334219831505644, 0.2362609153365601, 0.2391713223980203, 0.24214687647339483, 0.2451996181767574, 0.24830804248674404, 0.25150172121569775, 0.25476355366233716, 0.2580426857733879, 0.26144621048217315, 0.26495864664800844, 0.2684850394125039, 0.2720781148699377, 0.27569035971223743, 0.2794211920971794, 0.28318862138793754, 0.2870474217086013, 0.2909667542856532, 0.29500760024969835, 0.2990398156119955, 0.30308249368916174, 0.307247227005466, 0.31147062524804714, 0.3157745751900832, 0.320111099917231, 0.32452602182147694, 0.32897607383245014, 0.3334840651204911, 0.3380113932492719, 0.34263701498839794, 0.34729430299667813, 0.3520275232411794, 0.3568109070593872, 0.36169318154764196, 0.3665687130845079, 0.3714257943537803, 0.3764106636423907, 0.3814401478343953, 0.3865535722023298, 0.3916652820919209, 0.39677358501524324, 0.4019797896204418, 0.4072257676115116, 0.41253541553173156, 0.4178554183146722, 0.4231976095678792, 0.428595825437115, 0.43402944280604866, 0.4395162062817777, 0.4450150435767979, 0.45048948434305175, 0.45606066167397, 0.46165916987996874, 0.46726887244027143, 0.47292132724107483, 0.47861511015102365, 0.48431182305020853, 0.49003132907337527, 0.495754821027651, 0.5015185644231273, 0.5072934172196314, 0.5130932379269417, 0.5189085118107115, 0.5247674571123427, 0.5306064044651718, 0.5364083276321601, 0.5422791659542654, 0.5481576586772968, 0.5541073347043474, 0.5599896120761951, 0.5658115696373284, 0.5717163816422214, 0.5776217266113658, 0.5835111795039255, 0.5894160325022637, 0.5953075902934082, 0.6012047023852803, 0.6070950664618388, 0.6130210113541783, 0.6188888895882658, 0.6246995306783556, 0.6305562664315688, 0.6363991310323336, 0.642221057218784, 0.6480333111722157, 0.6538370868605754, 0.659611156005561, 0.665365368575606, 0.6710772059487629, 0.6767902673359115, 0.6824899035089902, 0.6881499035088752, 0.6937829148315577, 0.6993628963430325, 0.7049409518334703, 0.710494751498186, 0.7160056273913912, 0.7214821060018346, 0.7268523949278156, 0.7322651240634171, 0.7376156390041332, 0.7429456806333571, 0.7482554928988991, 0.7534918903428462, 0.7586832688094378, 0.7638462053957831, 0.7689421380085248, 0.7739285242464194, 0.7789365284322518, 0.7838912324779235, 0.7887742454160412, 0.7936222274524015, 0.7984381418127142, 0.8031687459747775, 0.8078424014680339, 0.8124180928050955, 0.8169797031611338, 0.8214565766504563, 0.8258954241771456, 0.8302690370639639, 0.8346378598591712, 0.838871248033917, 0.8430007578872207, 0.8471100715171508, 0.8511507002423059, 0.8550782787213594, 0.8589843676110999, 0.8628295816026944, 0.8665858893156964, 0.8702679922866136, 0.8738728202011139, 0.8774046377255745, 0.8808869518197833, 0.8842615653967856, 0.887559711541922, 0.8907099409559783, 0.8938612663254554, 0.8969740834568908, 0.8999531575479829, 0.9028509736365086, 0.9056268683720681, 0.9083651086928017, 0.9110072022445851, 0.9135753113745972, 0.9160565865195214, 0.918477784950855, 0.9207811477239151, 0.9229924601153591, 0.9251236901318642, 0.9271673868892027, 0.9290667144598096, 0.930941200334748, 0.9327801550769521, 0.9344637212124413, 0.9360586494687657, 0.9374787272193931, 0.9389059672302829, 0.9402315155017488, 0.9414707264730311, 0.9426155727314944, 0.9437180816137918, 0.9446685882679426, 0.9455367060178957, 0.946304744035727, 0.9469822590984405, 0.9475055892702825, 0.9480094981837784, 0.9483929631330152, 0.9487113718399766, 0.9489345408618002, 0.9491088730602455, 0.9491374493882038, 0.949037359352358, 0.9488886638028555, 0.9486470190350538, 0.9483692796516124, 0.9479359433788378, 0.9473436360238745, 0.9467422548679325, 0.9460484504751674, 0.9452229165736517, 0.9443512376423144, 0.9434149806005586, 0.9423550971010484, 0.941205812644127, 0.9400147394556586, 0.9386825315052968, 0.9372101470192167, 0.93571525428802, 0.9341328195764621, 0.9324459874148341, 0.9306930016486898, 0.9288514254100014, 0.9269271533013861, 0.9249182862013593, 0.9228092589138637, 0.920635928410783, 0.9183797064056112, 0.9160415864415726, 0.9136225435160646, 0.9111505653204686, 0.9085691305779344, 0.9059358201912823, 0.9031988820085766, 0.9003882452386359, 0.8974480799389128, 0.8944989501544366, 0.8915312293921837, 0.8884261456378705, 0.8852515540038358, 0.8820046182823789, 0.8786935715512116, 0.875262147437493, 0.871823641409536, 0.8683164078909271, 0.8647241657050204, 0.861085719608995, 0.8574026819243467, 0.8536315059911996, 0.8497986051119009, 0.845916933895014, 0.8419627067478931, 0.8379169435879776, 0.8338532156720132, 0.8297323446878444, 0.825528710546192, 0.8213011697175714, 0.8170109015980679, 0.8126769643197321, 0.8082911563044538, 0.8038632585544779, 0.7993772947940053, 0.7948421214201835, 0.7902641176214666, 0.7856418663715748, 0.7810131597604311, 0.7763018840728578, 0.7715665517868526, 0.7667782063994949, 0.7619545779273492, 0.757041402606017, 0.752157123493668, 0.7472621402945991, 0.7423054877111168, 0.7373178282918632, 0.7322686917905661, 0.7272268035256871, 0.7222193594134771, 0.7171129439225354, 0.7119840830361873, 0.706812574565451, 0.7016443837883196, 0.6963932398630117, 0.6911927990388044, 0.6859706398564334, 0.6807649232092672, 0.6754998622299984, 0.670244832756166, 0.664948640261731, 0.6596417375789234, 0.6542911116173245, 0.6489703073292704, 0.6436459967497318, 0.638307067449324, 0.6329618249114536, 0.6275680784204765, 0.6222195538540367, 0.6169248469750187, 0.6115606120330332, 0.6061978642500893, 0.6008141114104775, 0.5954603480891748, 0.5900816072963921, 0.5847390814245976, 0.5794006228563594, 0.5740417907357955, 0.5687189224741165, 0.5634556474409175, 0.5581410113546738, 0.5528389734372064, 0.5475457769800425, 0.5422723599136849, 0.5370000038506554, 0.5317596699570686, 0.5265356505511322, 0.5213278426277451, 0.5161397935786882, 0.5109006343793229, 0.5057613035873606, 0.5006394150915419, 0.49561758550108154, 0.49052484484607445, 0.48539028125593997, 0.48035945351780296, 0.4753524048406703, 0.47039970845681733, 0.4654400289951809, 0.4604586534923595, 0.4555638140679555, 0.45069652243397995, 0.44595193708554964, 0.44113123964452405, 0.436303138823154, 0.4315602919915197, 0.4268515262376693, 0.42212576395791096, 0.41749356260834025, 0.4129731084201085, 0.4083979845566991, 0.40377644734392665, 0.3992911456820206, 0.3948408993968274, 0.3904513544104089, 0.3860709351121957, 0.38176725896493485, 0.37746093968140065, 0.3731969872297396, 0.3689685614129558, 0.36479087428832196, 0.3606687406118387, 0.3565749620087258, 0.3525251079392859, 0.3484735243081882, 0.3445178431609648, 0.34057702703779213, 0.33670910171867013, 0.3328826144409358, 0.32915700184818875, 0.3254079406673508, 0.3216396580346277, 0.3179921049348118, 0.3143874879540154, 0.31081696229451344, 0.30730100858581316, 0.3039006205433674, 0.30046382402038335, 0.29707577413830505, 0.2937303517067878, 0.2904398261558889, 0.2871841154463941, 0.28399055861255007, 0.2808437276998267, 0.27766838171325026, 0.274624393906288, 0.27162276991705975, 0.26866404251316967, 0.2657486566330422, 0.2629228050293174, 0.26008932653284644, 0.2573120390702927, 0.25457074431057664, 0.2518763394363908, 0.24916388797991107, 0.24657051302121674, 0.24404650193332705, 0.24153458855706464, 0.23906687081898317, 0.23660560276782358, 0.23423057084556623, 0.23195585990262615, 0.22965660625302264, 0.22740230278193613, 0.22520888447975929, 0.22304085985347508, 0.22082552357646276, 0.2187571480093579, 0.21672673287427296, 0.21474617256679682, 0.21279054658825877, 0.210941903709872, 0.20905515603193742, 0.20721069529441238, 0.20538539977760661, 0.20362598109792465, 0.20187474668692573, 0.20019613010783296, 0.1985534665198237, 0.19692413861694172, 0.195355300045307, 0.19388247595882338, 0.19237303328109648, 0.1909003758958421, 0.18938733460806748, 0.18799556372024906, 0.1866633721761782, 0.18532818056863515, 0.1840245594797179, 0.1827320729042981, 0.18149272091167484, 0.1803599399788445, 0.17916846154561386, 0.1780096157021017, 0.17686121309196193, 0.17576724397113588, 0.17469352814994293, 0.1736568268595752, 0.17264669922875386, 0.17159788264473735, 0.17064718086191952, 0.1697809968137734, 0.16886429819915685, 0.16797196390960764, 0.16711502008446727, 0.16626776871882748, 0.1653964050430952, 0.16460009951363072, 0.16382251074651105, 0.16304095371502977, 0.1623025184391119, 0.16161211836486294, 0.16090203300238184, 0.16020948580287955, 0.15951156151411885, 0.1588551462064737, 0.15819444454086962, 0.15756902437027762, 0.15695621763351356, 0.15641330137869658, 0.15581749909219325, 0.15523888345289663, 0.15467159864779131, 0.154117599617129, 0.15355492325772174, 0.15302776748979757, 0.1525221201693513, 0.15201244137106848, 0.151512079511791, 0.1509933703541996, 0.1505131650027138, 0.14999424469260625, 0.14953119004649293, 0.14907081101584096, 0.1486918020398893, 0.14822665684583355, 0.14769548696132553, 0.14725240360338482, 0.14681048103373648, 0.14641305219874112, 0.14596748136958387, 0.1455284958084489, 0.14508800854884432, 0.1446496173901475, 0.14417983938951454, 0.1437480809472934, 0.1433113696552798, 0.14287694802414044, 0.14244037958614342, 0.14200023848318505, 0.14155875992118694, 0.1411225059719415, 0.14067371266031412, 0.1402218272061562, 0.13975239689635516, 0.13929505960920968, 0.1388316229848124, 0.1383643631425371, 0.1378916603556053, 0.137409763136385, 0.13692593656149069, 0.13650745796310595, 0.13600169606114432, 0.13549320663729708, 0.1348965948101277, 0.1343910534746652, 0.13388292899320206, 0.13335731682473867, 0.13282261344462867, 0.13228819629653643, 0.1317340371811857, 0.13119822954758836, 0.13062316600935422, 0.1300406731404487, 0.12944805157326839, 0.12884998003935952, 0.12823986385832337, 0.12762495488121314, 0.1270008628195539, 0.1263873928342213, 0.12574191188790518, 0.12509378107495145, 0.12443022411213894, 0.12375794166687584, 0.12304611932534883, 0.12235949856749052, 0.12165940633393947, 0.12095092333131477, 0.12023135129639904, 0.11952781575831507, 0.11878294094205717, 0.118039357386476, 0.11727445171348262, 0.11650063260124106, 0.1156707384069906, 0.11488459465880228, 0.11411590022042006, 0.1133024984890933, 0.11247942124455168, 0.11167373268245807, 0.11082801206543993, 0.10998015932313683, 0.10911753901742191, 0.10824699606460633, 0.10732846230663463, 0.10644681831863133, 0.1055289228901666, 0.1046300587942572, 0.10371995351018569, 0.10286725913280702, 0.1019275106000601, 0.10097233687128207, 0.1000215852196919, 0.09902526191326454, 0.09806584249853771, 0.09709751347928391, 0.09613240585402541, 0.09514589609889712, 0.09419218319588887, 0.09318655245156696, 0.09217649452081382, 0.09113138092232882, 0.09011614425276414, 0.08913225995062163, 0.08810005014038622, 0.08706426531745445, 0.08594380557615419, 0.08491110417205679, 0.08394318700469439, 0.0828858678018341, 0.08182598635510992, 0.08075066738164627, 0.07968747765573045, 0.07858951142993977, 0.0775244706185344, 0.07645508017813488, 0.07537244683342056, 0.0742970434385779, 0.0732452406611073, 0.07216008306449212, 0.07107402006306962, 0.06997789714778632, 0.0688919550599272, 0.06784410975648673, 0.0667522367557231, 0.065662521954796, 0.06451269741248104, 0.06343524272300465, 0.06236951049682663, 0.06128861845306972, 0.06020841873737548, 0.05911053821525649, 0.05803536700296227, 0.056986916715242746, 0.055910744244083405, 0.05483791808810968, 0.05379925049619978, 0.05273003314212923, 0.051614950639092, 0.05056396048284181, 0.049515961689474634, 0.04853489333990985, 0.04748627949149177, 0.04642913977094773, 0.04539835582161839, 0.04437441478635645, 0.04334215274005135, 0.042334183588309586, 0.04132201240355728, 0.040328410348269436, 0.03934114998837963, 0.03839584467049621, 0.03741787839722044, 0.0364492730533944, 0.03549006653822578, 0.034540320391767486, 0.03359659177542714, 0.032666477726704564, 0.03179292986233644, 0.030876157311871103, 0.02997191253436005, 0.029040039838752033, 0.028165346836549414, 0.027306358907492338, 0.026450841579781694, 0.025605998881000024, 0.024740308121335302, 0.02392144158523147, 0.02310386010085584, 0.02230551499039586, 0.02151710551847259, 0.020811948843042563, 0.02003554691588603, 0.019229792928775014, 0.018489413058521902, 0.017761419065343242, 0.017018998389314154, 0.016319826347258846, 0.01564623659084842, 0.01496864488680327, 0.014304090595215821, 0.013705669573668778, 0.013061137733132559, 0.012395608707793035, 0.01178878660083377, 0.011195986467352714, 0.010590300443352489, 0.010029311839686554, 0.009554019987752854, 0.009009817350938313, 0.008483141430734559, 0.007954855801659728, 0.007464649717128384, 0.006981812316749591, 0.006523769508399793, 0.0060807407804567976, 0.0056198467063907215, 0.005211075648507127, 0.004835517615462051, 0.004450979588449065, 0.00408133607126872, 0.003793625789457204, 0.0034454690676451946, 0.003057359669464424, 0.002753728554053539, 0.002464646703790245, 0.002212516803952496, 0.0019499264108611856, 0.0017667854194123246, 0.0015280233149761176, 0.0013085534513274026, 0.001108925641203159, 0.0009260880937280574, 0.0007609420858297254, 0.0006130476178380433, 0.00048201729718083593, 0.0003252071053811684, 0.00023227244250868717, 0.00016702464598292323, 9.958651590043547e-05, 4.672647251361401e-05, 2.603622980592265e-05, 0.0, 8.460916897127434e-05, 7.728685534685039e-05, 9.042984242485093e-05, 7.259615284609916e-05, 0.00013042559070323997, 0.00025398252714128845, 0.0003356009506884964, 0.00043484042792917943, 0.0005581739231020245, 0.000690100883835297, 0.0008878665922820812, 0.0010460755014754415, 0.0012226990726171075, 0.0014581257304991946, 0.0016642520588768684, 0.0018785742541214167, 0.0021227594713392798, 0.002383585544439547, 0.002681667808238421, 0.0029715656898722676, 0.003323722476614128, 0.0036401756360911345, 0.003974680138484003, 0.004357042940538109, 0.004721652136234352, 0.005075880917544387, 0.005478978588557199, 0.005896974081993737, 0.006346013924155954, 0.006790861294585415, 0.007253110464662019, 0.007727458994865135, 0.008216429968109505, 0.008783245682313664, 0.009292780144055029, 0.009837539504280287, 0.01037940250441947, 0.010938661781515016, 0.011494726025542213, 0.012089546202340564, 0.012790705235549354, 0.013403078718893655, 0.014034875444056696, 0.014704014569856053, 0.01536975588107784, 0.01607248350932401, 0.01677151234452486, 0.017488476235999112, 0.018180414249735696, 0.01893672520188526, 0.01975392026315793, 0.02053200259133485, 0.021326538133972197, 0.022148905259603953, 0.022973810766533417, 0.0238055032940201, 0.02466368334472983, 0.02553700141237766, 0.026466478622935382, 0.027364586113526084, 0.02833279689529288, 0.02925832007692188, 0.03020340475698835, 0.031194425902692575, 0.03217336278412138, 0.0331658433947241, 0.03418376839360933, 0.03521969625876402, 0.03630029667321038, 0.037367814149039794, 0.038443414715098365, 0.03954920801259472, 0.04068531185937052, 0.04182409205910275, 0.04298073672722459, 0.044123361014037216, 0.045319325197918786, 0.046546324937036206, 0.04777210998126223, 0.049014981688139045, 0.050336159873416414, 0.051605840261231016, 0.05286704974750411, 0.054181921530944976, 0.05551544988362985, 0.05690057072824252, 0.058267379003222944, 0.0596525170354162, 0.06106082156287005, 0.06248940306084471, 0.06399579451934181, 0.0654575483912131, 0.06688402605448912, 0.06839975669901094, 0.06993493446754082, 0.07155558596652202, 0.07312201073887424, 0.07467583570602881, 0.07629423497042276, 0.07793391292483645, 0.07959970730905719, 0.08128177961519269, 0.08297176020627593, 0.08469978343034348, 0.08644933989283671, 0.08823717447771573, 0.0900285964866254, 0.09186332666784071, 0.09369904109795371, 0.09555953168270914, 0.09742954194492508, 0.0993416053621903, 0.10133648778769565, 0.10328947435058213, 0.10527027424561192, 0.10722341922525887, 0.10926617382104672, 0.11133310483505869, 0.11342458417619725, 0.11554097255368591, 0.11773197364647942, 0.11989297938585658, 0.12210265975863763, 0.12431845961990037, 0.12656396630067782, 0.1287873149580883, 0.13109834132059486, 0.13349106801999996, 0.13584844628419765, 0.13823616503221434, 0.14059891336774383, 0.1430540917027586, 0.14554813396871827, 0.14805652280904935, 0.15059359690709814, 0.15321255759690744, 0.15580127092488077, 0.15840494116982062, 0.1610609111424393, 0.16374823969142444, 0.1664775840738867, 0.16922655174111137, 0.1720206839252219, 0.1748325284846841, 0.17767742436198122, 0.1805341854903727, 0.1834477814956988, 0.18633680987513768, 0.1893214149157591, 0.1923350943526814, 0.19537966999464695, 0.1984532271052839, 0.20163641264581314, 0.20476227408388817, 0.2079243320035356, 0.21111997638396857, 0.21435398331628752, 0.21758930847645389, 0.22089827682874982, 0.22424047423475865, 0.22759845305446508, 0.2310098564160596, 0.2344810126780762, 0.23795472187350533, 0.241463183596411, 0.24498758695441242, 0.24856790069406898, 0.25215367479418593, 0.2558050127760745, 0.2594886742346229, 0.26321437486940463, 0.2669623905984468, 0.2707898875460499, 0.2745995178250406, 0.2784455507824008, 0.28231356440522387, 0.28623324324307764, 0.2901441506703162, 0.2941385857492551, 0.298164976214162, 0.3022705158910494, 0.30635539819322577, 0.31039305161620473, 0.3145580710874049, 0.3187528752186805, 0.32301895217271853, 0.3272691292676704, 0.3315734083696915, 0.3358866311989672, 0.34023361253352213, 0.3446127924410395, 0.34902629017141157, 0.3534229867725428, 0.35790746631712006, 0.3624210016012474, 0.3669789010829539, 0.3715486622149802, 0.3761153815323529, 0.3807487917742373, 0.38540972621606895, 0.39009111745895864, 0.39480788594800686, 0.39954099530287135, 0.40431282127446216, 0.40911069416991264, 0.4139767930356754, 0.4188209858530148, 0.42364371974221343, 0.4285493328593175, 0.43347885346411114, 0.4384308958312283, 0.44340769881649794, 0.4484040424582365, 0.4534270859243735, 0.45847228405632867, 0.4635886067181272, 0.46867068600414413, 0.4737071017402585, 0.4788443993459633, 0.48399973147375686, 0.4891610624775979, 0.4943530417874754, 0.4996072148797284, 0.5048257933750077, 0.5100625827910277, 0.5153062018520286, 0.5205783360326235, 0.5258668521592812, 0.5311685357135726, 0.5364840504274777, 0.5418161766335448, 0.5471566651450332, 0.5524995234310119, 0.5578639450244463, 0.5632380127221218, 0.5685305157215312, 0.5739331151922312, 0.5793979843800766, 0.5847976453787378, 0.5902028248612445, 0.5955763770298987, 0.6009950207498034, 0.6064254889111569, 0.6118448000751628, 0.6172649130163979, 0.6226616432200955, 0.6280842482599153, 0.6335006615884214, 0.6389177907960846, 0.6443308291486327, 0.6496815431582761, 0.6550916738505829, 0.6604876923846625, 0.6658792834607078, 0.671260488870578, 0.6766637686807115, 0.6820186384807441, 0.6873046647021708, 0.692645870590519, 0.6979718387363594, 0.7032820851189412, 0.708576050269851, 0.7138390062586855, 0.7191002512554914, 0.7243423697628502, 0.7296128666422156, 0.734808563899406, 0.739925728215957, 0.7450905880080108, 0.7502310754694096, 0.7553218084497868, 0.7604145064465581, 0.7655132677406042, 0.7705449917111102, 0.7755492830899889, 0.7804875206633703, 0.7854386359747196, 0.7903430238789928, 0.7952299293961176, 0.8001159734389609, 0.8049279883195906, 0.8097055240677709, 0.8144075659241996, 0.8191180099620661, 0.823775623446406, 0.828407156812313, 0.8329965527570237, 0.8375654395929524, 0.8420656035900268, 0.8464439452322536, 0.8508669013946218, 0.8552403859859122, 0.8595487729526128, 0.8638241186765026, 0.8680819400376747, 0.8722493403388379, 0.8763661181560753, 0.8803832618459803, 0.884402370117763, 0.8883444535089121, 0.8922540028820818, 0.8961054633064287, 0.8999442437205026, 0.9036724113795721, 0.9073401011415178, 0.9109538603772834, 0.9145085782280534, 0.9179504706190417, 0.9213910830652206, 0.924763467661526, 0.9280746654663377, 0.9313200109327525, 0.9344578723187646, 0.9375751693361686, 0.9406462031976627, 0.9436207429281703, 0.9465262662263128, 0.9493387174061328, 0.9521074981024729, 0.9548054027095534, 0.9574295220534159, 0.9599808047727129, 0.9624141220831116, 0.964823932495786, 0.9671721985315878, 0.9694262768248822, 0.9716040218983617, 0.9737027072062384, 0.9757269330251074, 0.9776547055020152, 0.979525598853661, 0.981316963571129, 0.9829956264926695, 0.9846312606654526, 0.9861799480229316, 0.9876516274393307, 0.989040643533587, 0.990385681270784, 0.9916041566379931, 0.9927488263561601, 0.9938042149818127, 0.9947782008613099, 0.9956702924666863, 0.9964800305002158, 0.9972046376248098, 0.9978487161756604, 0.998409123535886, 0.9988573445294414, 0.9992530649856922, 0.9995015737792912, 0.9997328051556587, 0.9998744980016055, 1.0, 0.9999548243101838, 0.9998090633906418, 0.999597461141183, 0.9993003628681617, 0.9989071624203598, 0.9984403384081437, 0.9978709436922426, 0.9972340777763544, 0.9965104142551547, 0.9956673235736937, 0.9947750411006168, 0.9937726011542308, 0.9927080169313056, 0.9915553942483472, 0.9903142226384726, 0.9889876246272106, 0.987624153834881, 0.986119433254905, 0.984532373311227, 0.9828325527570133, 0.9810851050599233, 0.9792881779162084, 0.9773697866142173, 0.9753707115418561, 0.9732124340729864, 0.9710626235591713, 0.9688202420016412, 0.9665037424111365, 0.9641043165430659, 0.9616746171896425, 0.9591056094199398, 0.9564228861016263, 0.9537043436530938, 0.95090736859757, 0.9480527237571179, 0.9450987088354191, 0.9420849972268046, 0.938979716467361, 0.9358015633347929, 0.9325028888387136, 0.9291867074791431, 0.9258130964388585, 0.9223480935188317, 0.9188121573684764, 0.9152002715113429, 0.9115257952838478, 0.9077568019336849, 0.9039491932066631, 0.9000733304158473, 0.8961726623581171, 0.8921583599525718, 0.8880228047922388, 0.8838916916043992, 0.8796963287899087, 0.875435657823869, 0.8711159381508266, 0.8667285764773789, 0.8622897990655453, 0.857792481504465, 0.853290755769417, 0.8486734100725335, 0.8440218182211539, 0.839299274784106, 0.8345274414123752, 0.8296341771981663, 0.8247751732747461, 0.8198498154100028, 0.8148920364438607, 0.8098851896955378, 0.804876617726092, 0.7997703444477597, 0.7945703018630283, 0.7893874776053339, 0.7841617902934697, 0.7789029606727325, 0.7735949579349036, 0.7682818417417352, 0.7628949838387448, 0.7574746148551925, 0.7520405800962713, 0.7465539650171129, 0.740986385082978, 0.7354487384768972, 0.7298808710559936, 0.7242654182864089, 0.7186437750199468, 0.7129868766571531, 0.7073137423802344, 0.7016161377529658, 0.6959143915343663, 0.6901700142645596, 0.684377319926583, 0.6786000536591599, 0.6728047430458481, 0.6670575145227516, 0.6612223971822013, 0.6553701972921077, 0.6495167867424131, 0.6436547452007235, 0.6377510032279715, 0.6318790563335862, 0.6260196347645629, 0.6201316044710047, 0.6142399157150686, 0.6083504183694902, 0.6024542710857307, 0.5964959091961923, 0.5906088872553429, 0.5847206817197313, 0.57887170093056, 0.5729810569045631, 0.5670690959660023, 0.5611944435393057, 0.5553262848216701, 0.5494871270026584, 0.5436333130691603, 0.5377876187590483, 0.5319586279357348, 0.5261432520614985, 0.5202955885140477, 0.5145166767806926, 0.5087567103648344, 0.503007137926273, 0.4972749028676494, 0.49157657428913937, 0.485880915885737, 0.48024480089387983, 0.4745893128131219, 0.46888943634715796, 0.4632957966163643, 0.4577257346148341, 0.4521970008925862, 0.4466758540002982, 0.44121818846601046, 0.4357500468831262, 0.4303140930344314, 0.42484166044246147, 0.4194808475736097, 0.41421615036664083, 0.4089088780972967, 0.40363802182481906, 0.3983900626134951, 0.39319557610674666, 0.38803613358694067, 0.3829174468260144, 0.377837438960382, 0.37274511483774536, 0.3677511130122999, 0.362856072985407, 0.3579311372278803, 0.35304957587702923, 0.3481989195692761, 0.343407114023098, 0.3386628591085066, 0.33395922195368416, 0.3293009194241795, 0.32469785632868525, 0.32013053441949946, 0.31561524987394385, 0.31114239765597196, 0.3067179216980312, 0.3022622575827899, 0.2979456593930309, 0.29371039550150163, 0.2894799749424688, 0.2852983589569529, 0.2811554815329912, 0.2770743028514612, 0.2730944553837535, 0.2691064795978515, 0.2651719608850332, 0.26126855880009775, 0.2574437491944996, 0.253627660949203, 0.24991294476373635, 0.24624836451818022, 0.24263443181497635, 0.23907159740456416, 0.2355861073563101, 0.23212333043870323, 0.22871413031886165, 0.22535267007655863, 0.22205146491351455, 0.21876831859906096, 0.21557822870298834, 0.21243951929575594, 0.20941121896558754, 0.20636860814378666, 0.20329672714820185, 0.2003751317455471, 0.19750342881914462, 0.19469489424513708, 0.19192231577690905, 0.1892575878193658, 0.1865808067288683, 0.18395866464698854, 0.18139065671195043, 0.1788762952882362, 0.1764233330878349, 0.17401381833081153, 0.1716570280763677, 0.1693113260668486, 0.1670636750437467, 0.16489433414757598, 0.16274069317869125, 0.16063731776970985, 0.15857436517659912, 0.15657138339818782, 0.154623862990344, 0.15271644192374922, 0.15085707616902103, 0.14896893433903372, 0.14721397964451358, 0.14555783000114134, 0.1438806913869574, 0.14224932867664564, 0.1406609262468408, 0.1391200033948335, 0.13759508828290096, 0.13614566763382274, 0.13473789369422287, 0.1334173116623996, 0.13208614659231235, 0.13080410849235516, 0.1295579413413626, 0.128353846012984, 0.1271734150369831, 0.12605336609139228, 0.12491805256335002, 0.1238818237807185, 0.12288015810991557, 0.12190700906808317, 0.12097463955697929, 0.12006054000723179, 0.11919690656789474, 0.11836533581772961, 0.11758906792498185, 0.11681780953139081, 0.11614361364702869, 0.11542844525069021, 0.11474811231791872, 0.11408970880780214, 0.11347711855522528, 0.11290713960988896, 0.11235386504765715, 0.11183029900252014, 0.11126262439845237, 0.11080483672280664, 0.1103933856001816, 0.10997801350972214, 0.10958618315143542, 0.10926668752174598, 0.10891400378994445, 0.10854948008504643, 0.10824958219677601, 0.10797027616018323, 0.1077438375362646, 0.10749967115980155, 0.10723257536588261, 0.10703410522123923, 0.10685197773973994, 0.10667160280494876, 0.10652245944576999, 0.1064390553768321, 0.10631102506925703, 0.10619906610272913, 0.10609171979524254, 0.1060106244967268, 0.1059495038365428, 0.10589265775136754, 0.10584773168339774, 0.10572938462362712, 0.10571681269009371, 0.10578682458670469, 0.1057745054266414, 0.10577150507451015, 0.10575239855632809, 0.10576893541047167, 0.10576067948789271, 0.1057921157382407, 0.10582662672554802, 0.10589686951761025, 0.1059326009274759, 0.10591601915342201, 0.10596646837553005, 0.10601666251303216, 0.10610878482861859, 0.1061527154564553, 0.1061900508728638, 0.10623770425578792, 0.10628538292085067, 0.10629734769065566, 0.10634807931058662, 0.10640598881839669, 0.10644840065473953, 0.10648760640555277, 0.10652210697825662, 0.10655406733007833, 0.10660878376232291, 0.10662844814496321, 0.106644680551524, 0.1066768970351403, 0.10668208486108459, 0.10663635540433164, 0.10663901417736234, 0.10663387532666838, 0.10664073226187684, 0.10661691403751102, 0.1065564677749918, 0.10652149765737161, 0.10647691529661023, 0.10642027476898473, 0.10635646439667797, 0.10633663906964275, 0.10624574663434881, 0.10614759129414676, 0.1059746341032517, 0.10586879448241314, 0.10575040067486774, 0.10561956958844021, 0.1054763906998794, 0.10538908509037201, 0.10521277093268155, 0.10502337454191371, 0.10483035847046517, 0.10462768860805559, 0.10435269978770904, 0.10413748422136933, 0.10392689255599123, 0.1036811814226251, 0.10342279390884013, 0.10311533644800006, 0.1028363025184871, 0.10257202248442619, 0.10226035145139224, 0.1019833220291047, 0.10164100594745137, 0.10128901228010517, 0.10092816647193753, 0.10055567133783516, 0.10011861114839744, 0.09973171134630146, 0.09933087365977632, 0.09891521919229708, 0.09848752377702208, 0.09809483698579667, 0.09763496569182195, 0.0971651265996653, 0.09667576321051953, 0.09618674851927425, 0.09564105574401274, 0.09513616317745174, 0.09461792349721455, 0.09414435124486717, 0.09359341493054285, 0.09299481054352761, 0.09243089544187685, 0.09185574927607985, 0.09129433270601132, 0.0906944493789486, 0.09004089994127393, 0.08942870645156736, 0.08880515401279847, 0.08814133390071474, 0.08750015655744921, 0.0868496493844079, 0.0861854470983062, 0.08551091283997662, 0.08489354863088582, 0.08419141149250513, 0.08349121411304551, 0.08277785189702512, 0.08205959270886434, 0.08133517383528807, 0.08060704911194627, 0.0798738230633354, 0.07913553493367377, 0.07839225530648973, 0.0776546591206747, 0.07690038269631083, 0.07607157570926304, 0.07531824791900367, 0.07455713642825089, 0.07385945356231804, 0.07307593456539385, 0.07222124419830515, 0.07144282221308262, 0.07065873027192834, 0.06984727961476234, 0.06905654391903877, 0.06826655643888921, 0.06746552978088369, 0.06666106571583755, 0.06585607326813844, 0.0650460766065192, 0.06422259219323646, 0.0634110465625516, 0.06259795769206138, 0.06181906451159503, 0.06099985901400488, 0.060164829454998556, 0.059351574560557493, 0.058539379900330084, 0.05772500293778362, 0.05691621539978569, 0.05617022219088832, 0.05535737999922709, 0.05455023222432747, 0.05371448621762949, 0.05292244494929922, 0.052166600181161454, 0.05137719280883823, 0.050593343618430785, 0.04976800091142388, 0.049001103296847766, 0.048271164912760504, 0.0475061496886755, 0.04674676291453527, 0.046001343071127354, 0.04525252730795826, 0.04445378043171065, 0.04372512964443697, 0.04299997819595934, 0.042280074298163293, 0.04156344891276786, 0.04087078282442142, 0.04016253947701027, 0.039461363485792024, 0.03882741412259432, 0.038133475941144766, 0.03738130151939649, 0.03671804009501078, 0.03606147906674866, 0.035417871814298285, 0.03477507437046114, 0.034142708659593415, 0.033516029371256924, 0.03289805123592314, 0.0323136521130874, 0.03171054685622348, 0.031131020404682647, 0.030547554276015552, 0.029975416264659775, 0.029441524023224943, 0.02888832047387315, 0.028318324540815842, 0.02779374106351278, 0.02727960837908925, 0.02683238346581016, 0.026332183150760576, 0.02580934122449524, 0.025340927901960367, 0.024883531299188286, 0.02449826595489908, 0.024055215549357193, 0.02359846392610919, 0.023187521835303485, 0.02278864434772555, 0.022471052194555568, 0.022087232801236152, 0.021689730191834584, 0.02134040732974517, 0.02100400167519325, 0.020700278150718357, 0.02038658321497525, 0.020132226239274846, 0.019839480716916567, 0.01956231049588081, 0.019270777527347398, 0.019026869084673496, 0.01880013387649785, 0.018580463707032032, 0.01837332912722587, 0.018273808258606552, 0.018079420893816506, 0.017849784931653286, 0.01769653379380085, 0.01755643262941297, 0.01751273206628209, 0.01738787311792905, 0.01728039955567216, 0.017189546738402797, 0.017114654175936248, 0.017104507961424882, 0.017053675310810232, 0.01699543105483783, 0.01698150481495092, 0.016982076390661762, 0.017002675230716136, 0.01703052016315656, 0.017118151615450872, 0.017167879551100534, 0.01723370485699829, 0.017332730277353083, 0.017427030066239434, 0.017534723742187456, 0.017660354238883416, 0.01780075935158387, 0.018002641711584225, 0.018165803414605473, 0.01834797793818076, 0.01854362932932122, 0.018755080378875563, 0.019057134238676113, 0.01928953485631311, 0.01957266808712707, 0.01983823842068595, 0.020123056974682835, 0.020383964725146777, 0.020710188285690222, 0.021101615348402415, 0.02145062527595609, 0.021816844464385168, 0.02216922848709713, 0.022572338495934374, 0.023021441254169002, 0.023449052018177086, 0.02389270015879863, 0.024346288936896946, 0.024822142494702416, 0.025329639608067382, 0.02583375996976657, 0.026353948805665127, 0.026957069127075732, 0.027500612356743337, 0.028034362346001068, 0.028620231296463634, 0.029223013774177447, 0.02987076462361437, 0.030503409965656574, 0.031193013049169153, 0.03185685672176453, 0.032540597722780965, 0.0332273239746381, 0.03395164132196563, 0.03473962211349105, 0.03549371265394494, 0.036283325011665264, 0.037075586334628735, 0.03788825196223146, 0.0387350614776409, 0.03958574676837238, 0.04048262206994873, 0.041370450716814056, 0.042279609560498616, 0.043214458351795895, 0.04416474210521775, 0.04510880402259291, 0.04610395318132931, 0.047118127318178, 0.04821847674904422, 0.04926276374113123, 0.05029750290532297, 0.05139234540664111, 0.052508147702271885, 0.053649711113340326, 0.054807171831904956, 0.055988596017264455, 0.05718912872513236, 0.05841171610460023, 0.059727032811412874, 0.06098534379077407, 0.062207954320105674, 0.06352695544942855, 0.06486843833517271, 0.06624799501195186, 0.06763346209304558, 0.0690737806209683, 0.07050418629959464, 0.07196102904850345, 0.07341844572731293, 0.07493144052855692, 0.07654589251751433, 0.07809969416513497, 0.07968348614504725, 0.08125467053441099, 0.08290298630931087, 0.08462056484149312, 0.08631770814430967, 0.08804471338721362, 0.08981914992638519, 0.09160353171600484, 0.09335999008620459, 0.095213403588897, 0.09709428600999206, 0.09904310448893099, 0.10097539884116885, 0.10296709957596883, 0.10495838185080472, 0.10698276699847432, 0.10903082041699709, 0.11112254557693348, 0.11326920766845316, 0.11542349837928166, 0.11761201157781886, 0.11981362743993709, 0.12207339464408536, 0.12434172882752344, 0.126671409321948, 0.12903356456161852, 0.13148393566656277, 0.13390557049360094, 0.13635837325349418, 0.13885484138409665, 0.14138806631093184, 0.1439158628689335, 0.14652832560254356, 0.14919086221867975, 0.1518715018572719, 0.15458879297797623, 0.15737597117583946