0.037704248982093326, 0.0371552340948667, 0.0366303655270337, 0.03613200819977674, 0.03564479002860748, 0.03519039698989516, 0.03472943889334186, 0.0342805431401371, 0.03387383504665491, 0.033439783398687535, 0.03304974841692261, 0.032628235966926024, 0.032215369213068654, 0.03165885392089184, 0.031279034719907575, 0.031067886686903114, 0.030661442697647232, 0.030263051756545374, 0.02975569887539033, 0.02938593385444617, 0.029044886899259714, 0.028671352701345635, 0.028300275401849196, 0.027897122186359098, 0.0275363980698276, 0.027122021969102395, 0.026772053164336326, 0.026421824659108976, 0.026168267724628196, 0.02580842195372745, 0.025505961034730924, 0.025155868885128416, 0.02481662205300235, 0.024351329423550852, 0.024050166599911504, 0.023745627999282072, 0.023451039159807098, 0.02316040544759472, 0.022857134633628196, 0.022579064066044374, 0.022373099482720905, 0.02209788203395303, 0.021833132453548974, 0.02153243313689424, 0.021294730283927643, 0.02105640661733733, 0.020836458458749086, 0.020624991886582112, 0.02046604137783563, 0.020267322318328628, 0.02003134468029318, 0.019863134014458033, 0.019704264735106346, 0.01956385684374424, 0.01942373797016534, 0.01926258473425055, 0.019148601014967875, 0.01904420285406237, 0.019013778350924902, 0.018921800692954065, 0.01890817592507695, 0.01883679142327214, 0.018783111192781466, 0.018627376329158073, 0.01862240845952278, 0.018594912185380952, 0.018613453610385838, 0.018640778830831383, 0.018741576321084478, 0.018780592264534206, 0.018781745022283858, 0.018856312402056333, 0.018942504774403474, 0.019084407548382164, 0.01918978935848514, 0.01930480367810214, 0.019441845618925195, 0.01959409380922223, 0.019764565893923506, 0.01994720144428544, 0.02013975045422328, 0.020354679554276188, 0.020585233060985288, 0.020767653350434227, 0.02103805518315783, 0.021341353604306307, 0.021634983272936222, 0.02194362462055051, 0.022299647677142938, 0.022635455811026623, 0.022992101233516117, 0.023363468860107598, 0.023753068322762833, 0.02415805196906936, 0.024584667586936393, 0.02506442734661005, 0.025523290977607343, 0.026002609338049664, 0.026510938171269774, 0.027029616255334444, 0.027542710238819827, 0.02810570341717954, 0.028719539533583468, 0.029316396048230466, 0.02993422334586223, 0.030570009983380057, 0.031229861704633363, 0.03184927338487754, 0.03255801008486254, 0.03328392855636716, 0.034015931622484646, 0.034779214123792326, 0.03555465234230179, 0.036355090243405774, 0.03717409082722681, 0.038032431823208424, 0.03888724763192518, 0.03975131390208492, 0.04064948794034969, 0.041568148042223405, 0.04238544845605934, 0.043361088525491864, 0.04443516019922957, 0.04542957446189337, 0.046444949931983184, 0.04747853747813571, 0.04853663965375606, 0.04965368972240126, 0.05074944778205527, 0.05186864849469776, 0.05296453102052541, 0.05413571030020392, 0.05532987182698996, 0.056540983587796315, 0.057772593210508164, 0.05906543828206153, 0.06033303898961656, 0.06162641476197699, 0.06293904172185698, 0.0642740320445518, 0.06553516228627695, 0.06692603436313632, 0.06844337722131406, 0.06985287366975086, 0.07128551445734645, 0.07260998066748404, 0.0741038219715511, 0.07558577231612294, 0.07711205127242539, 0.07865223652683104, 0.08023019752636465, 0.08179701284195168, 0.08340673817642962, 0.08500389532716289, 0.08661948724931767, 0.08832306754693792, 0.08996612720524595, 0.09153211105266341, 0.09323030457089836, 0.09494311837913488, 0.09666192455152063, 0.09840529513513452, 0.10018905837233448, 0.1019576108348916, 0.10374183914241682, 0.10562281201849777, 0.10742720244647559, 0.10921603519996972, 0.11106247157725803, 0.11292435692986608, 0.11474299928090614, 0.11664142978777761, 0.11849808225264552, 0.12042413270304991, 0.12235763378505854, 0.12435989676175166, 0.12630135809635257, 0.12822814711843383, 0.1301954310588939, 0.13217183168147906, 0.13427624436022104, 0.13625504694072235, 0.13811806224124654, 0.14014206599094228, 0.14217122998772083, 0.1441967821494893, 0.14623715223454983, 0.1483312747034635, 0.15037397310950587, 0.1524234863016548, 0.15447047561969388, 0.15653286643783423, 0.15862589830433724, 0.16069343149610954, 0.16276586362656736, 0.16488313462928333, 0.16695801753878883, 0.16893912425118254, 0.1710355407433803, 0.17312948136722991, 0.17526443038892162, 0.17734754332877956, 0.17942434874209165, 0.18150660524529363, 0.1835868436753753, 0.18568776411971266, 0.18775938275422646, 0.18979667198193775, 0.1918668585027581, 0.1939314178594168, 0.19598990026265123, 0.1980418397097826, 0.20007222586510096, 0.2021114598916928, 0.20414185260451806, 0.2061136018408228, 0.20813132597924372, 0.21020008558339756, 0.2121838649015479, 0.2141581223761875, 0.21611051783546936, 0.21806506018409919, 0.2200479869015081, 0.22197219176668787, 0.22388518231630036, 0.22579474448076536, 0.22768144734068324, 0.22950534159573616, 0.2313705764061701, 0.23321787433186406, 0.23510201936759695, 0.23690516165172038, 0.23859042481631695, 0.2403731599334107, 0.24213221620597195, 0.24386175987747344, 0.24557406059469228, 0.24729406163509418, 0.24895363649936805, 0.25059037596494893, 0.2522473542536486, 0.253831359542821, 0.2554224637057958, 0.2569579858097403, 0.25847143917261756, 0.2599733994912624, 0.26143816495157296, 0.26275650632153097, 0.2641869798537243, 0.2655843483016071, 0.2669952313040194, 0.2683208155168912, 0.2696073540554198, 0.27087294189443695, 0.2721068225695552, 0.2733783566788091, 0.274538853225867, 0.27553962124058917, 0.2766577566888498, 0.2777377203909503, 0.2787739082680671, 0.2797788101375512, 0.2808589463589025, 0.2817733801192297, 0.2826561226244805, 0.28352654587437454, 0.28434049529889405, 0.2850688830596467, 0.28582199316141127, 0.2865371048372134, 0.2870917943266149, 0.2877452208014222, 0.2885183367255691, 0.28905956673004335, 0.2895653113968246, 0.28997655106477105, 0.290416045099411, 0.29082303164021733, 0.291178754756697, 0.29149330860628214, 0.2917809420236011, 0.2920104927039679, 0.29208846653852555, 0.2922493162581111, 0.2923621317931682, 0.2925262992034477, 0.2925322281261994, 0.2924100050646488, 0.29234457059542296, 0.29223243883976197, 0.2921291652147273, 0.2919176380311264, 0.29164886701278014, 0.2913535138119358, 0.2910141845122888, 0.290630805712733, 0.2902033111054804, 0.2897200190573617, 0.289205597301107, 0.2886462614369587, 0.288152500463631, 0.2874895719737696, 0.28673000898038103, 0.28599657970049913, 0.2851937039766454, 0.28437686758747216, 0.2835150555974909, 0.28258518031525176, 0.28163684278768264, 0.280654352032822, 0.2796133639512236, 0.2785279830839401, 0.2774507700826895, 0.27627075804657525, 0.27504715850337885, 0.2737859984648211, 0.27248374805835324, 0.2712420975501752, 0.26984480856148235, 0.2684209493740902, 0.2669512846718475, 0.26544556656015744, 0.26379577856638214, 0.2622301761627661, 0.2606765650376305, 0.25901824810285584, 0.2573212099760612, 0.25559150021755345, 0.2538170429626074, 0.25203990484537625, 0.2501862498535685, 0.24829766854950133, 0.24643529493997798, 0.24446954551805325, 0.24246120206174487, 0.24043478895294637, 0.23837648079556015, 0.2362631457610592, 0.23414441267882805, 0.23201921140044685, 0.22983244953240103, 0.22761561028788788, 0.22547368326838085, 0.22318465166414617, 0.22084074359148345, 0.2185096175331397, 0.21615330589032158, 0.21377493462248673, 0.21136863037844542, 0.20897017701097362, 0.20651203213248512, 0.20403248901962295, 0.20149406520673188, 0.19897746709438843, 0.19646462633221637, 0.19390075202048535, 0.1913176146317592, 0.18873330093502044, 0.1861114295035237, 0.18348497299334815, 0.1808298384551991, 0.17816044155684596, 0.17550936500545575, 0.17280930419059234, 0.1701801331641975, 0.1674493259891479, 0.1647136580233609, 0.16189753826708608, 0.15916172049541158, 0.15639092097369703, 0.1536416811755261, 0.1508840225073632, 0.14821792063133363, 0.14543444761755978, 0.14256732162411406, 0.13979608451785855, 0.13702151404532734, 0.1343203503211558, 0.13153310706890758, 0.12882293468647996, 0.12603589060698675, 0.12325848309096428, 0.12044138259739023, 0.117689826940736, 0.11496894546519222, 0.11223009959157078, 0.10950161222220826, 0.10686843126824534, 0.10415208944775219, 0.1014413917830129, 0.09876119070284071, 0.09609799466704858, 0.0935278093685641, 0.09089051145542067, 0.0882324661546979, 0.08564642525419258, 0.08308103843742586, 0.08054859123761804, 0.07802508851738464, 0.07550180175515941, 0.07302888804284946, 0.07057962919188727, 0.06819280328190067, 0.06578909519155289, 0.0634229184478409, 0.06107646074632192, 0.05876079707326201, 0.05646794004547726, 0.05421719494413105, 0.05198161667152371, 0.04979917570650261, 0.047650161747120695, 0.04551238467926495, 0.04343632296380716, 0.041439105936893005, 0.03942925113014498, 0.037459471356364654, 0.035516017755722114, 0.03363057530539326, 0.03185649826166156, 0.030046401858662655, 0.02828366125255114, 0.02655407496817209, 0.024888922056174986, 0.023230769478396408, 0.021666714732395915, 0.020149258250407844, 0.01872294132153462, 0.01729600170177396, 0.01589182426335077, 0.014572721681534385, 0.013304868401843094, 0.012103579056019362, 0.010938724174102958, 0.009848574101072963, 0.008790485976705299, 0.007789120901199446, 0.006897221447684759, 0.006004012096570522, 0.005197959769218043, 0.004423497743412776, 0.0037116556963459205, 0.003079810088939755, 0.002490895420426469, 0.001945257784322276, 0.0014861315888731917, 0.0010895037078979917, 0.0007178553658285076, 0.0004517979299598872, 0.00033994831452750063, 0.00018519333102949882, 9.809043523531872e-05, 0.0, 5.764421907901991e-05, 0.0001752759990807885, 0.0003596938783974209, 0.0006080428571990474, 0.0008889256004291605, 0.0012708406279344742, 0.0018065591519513579, 0.0023052354497922825, 0.002874037463014087, 0.0034517938656925735, 0.004168148680258311, 0.0050234906207006136, 0.0058637559611928215, 0.00677522394981571, 0.007737295814495298, 0.008792998788823001, 0.009909358969041446, 0.011104896125063388, 0.01236927907609957, 0.013722890636302233, 0.01512250142423317, 0.01656602026864736, 0.018108884901871215, 0.019719994362201922, 0.021370325073961118, 0.023121674135798798, 0.024968712672777178, 0.026849829818987106, 0.028799512924520678, 0.03087281000712639, 0.03295213164879086, 0.03516068018037839, 0.03737420125529295, 0.0396607859437061, 0.04196414834539845, 0.044400700949782636, 0.04696235101214815, 0.04952510312544544, 0.052157272883593606, 0.05476208495991985, 0.057542624028940344, 0.06043701346056769, 0.0633340558110468, 0.06629557061134413, 0.06926001953041168, 0.07235664645157973, 0.07552729245330472, 0.07874102020748114, 0.08201490028762054, 0.08530505114785165, 0.08870382039330414, 0.09224645497145025, 0.09574750503998505, 0.09930990481546656, 0.10293272088076269, 0.10661503700723018, 0.11040535128121222, 0.11419772777793526, 0.11799449250003671, 0.12191177909689419, 0.1258830801882107, 0.1298030590234282, 0.13389342664468562, 0.1380471554384581, 0.14222724317968166, 0.14645426187955424, 0.1507308221367744, 0.15505036732578323, 0.1594420341095279, 0.16384966530076164, 0.16830358381904706, 0.1728145440054677, 0.17735693640175787, 0.18189128610034455, 0.18652778998696565, 0.19120355807004202, 0.19594412164540848, 0.20069318798489244, 0.2054373627897627, 0.21026834150206972, 0.21513356850759655, 0.22014569734775144, 0.22506300684863922, 0.23001582420015157, 0.23500858551568404, 0.24003618252747252, 0.24504181942572936, 0.2501413716277552, 0.2553145632095623, 0.26046153735988464, 0.26563627147364527, 0.2707676327639675, 0.2760025635460088, 0.2812485457318986, 0.28652337688425095, 0.2918159623972608, 0.29709358065030433, 0.30242339904204674, 0.30783651301047016, 0.31318399593020413, 0.31854762831351274, 0.3238883213884791, 0.3292851082425601, 0.33465425836329393, 0.3400751370516783, 0.34550208246677316, 0.3509082339148386, 0.35634843849907455, 0.36176189287230387, 0.3672097354060998, 0.37265688162546956, 0.3781202194345955, 0.3835620439355681, 0.3889848346280667, 0.39442475751783346, 0.3998602448289186, 0.4053950637257003, 0.41080587216095266, 0.4161921994347573, 0.4216016694220768, 0.42700505553559726, 0.4323776303334741, 0.4377673867757676, 0.443032101429669, 0.44841158024780275, 0.45377063200829726, 0.4592136159512208, 0.464517726275255, 0.46985562491672717, 0.4751208964596273, 0.4803706224458764, 0.4854490884331682, 0.4906821661697931, 0.49587455223441135, 0.5010507153940783, 0.5061965696427891, 0.5113902442855399, 0.5164644878504878, 0.521447664473188, 0.5264745307901728, 0.5314683219333788, 0.5364109720605917, 0.5413388819107323, 0.5462888389553755, 0.5511366561247245, 0.5559504130802796, 0.5606417805737894, 0.5653950064513962, 0.5701785444705352, 0.5748375389951862, 0.5794574607147004, 0.584069197696224, 0.5886037283787824, 0.5930687690529082, 0.5975248548274944, 0.6019364222647362, 0.6062793115869917, 0.6106020645768223, 0.6149199079231137, 0.6191394914063095, 0.6233116956897301, 0.6273773876471754, 0.6314591801294885, 0.6354467350943084, 0.6394261395777873, 0.6433488425589344, 0.6472379594388498, 0.6510438711832404, 0.6547589654768827, 0.6584569320430564, 0.6620960623845922, 0.6657865798290756, 0.6692934358579379, 0.6726481387792517, 0.6760595903110268, 0.6794098501692808, 0.6827335597823649, 0.6859563161897306, 0.6891248953306419, 0.6922263709299823, 0.6952670708770488, 0.698098226458434, 0.701034434494846, 0.7039783849923885, 0.7067639443424342, 0.7094844767380498, 0.712139825599401, 0.714729817174841, 0.7172135821280712, 0.7196774320549395, 0.7220730543762577, 0.7244819338787247, 0.7267311327964056, 0.7288268314989551, 0.7309599453055847, 0.7330233648251953, 0.7351480511042526, 0.7370560997808494, 0.7388209092668481, 0.7406145448984408, 0.7423399454902355, 0.7439941168987183, 0.7455831617894775, 0.7471006740360043, 0.7485528056822102, 0.7499361043831456, 0.7512505895319518, 0.7524962903806374, 0.7537139293723161, 0.7548170500708565, 0.755853826277512, 0.756812385350908, 0.7577172492582256, 0.7584324815223319, 0.759217603756026, 0.7599283169564384, 0.76067899067386, 0.7612295850642556, 0.7617033610499027, 0.7621249179955043, 0.7624804425975273, 0.7626770186725976, 0.7629124833465346, 0.7630566652041569, 0.7631537279602906, 0.7631804607835185, 0.7631959306216235, 0.7630774324603729, 0.7629206627422978, 0.7626703034432418, 0.7623575871593042, 0.7619680911217288, 0.7615328562094418, 0.7609477054773605, 0.7603983463154153, 0.7597820375800537, 0.7590969415364196, 0.7583502355977921, 0.7575655728053904, 0.7566882462312133, 0.7557500385281138, 0.7547660804064915, 0.7537060655979781, 0.7525935684655325, 0.7514166883622317, 0.7501827662557282, 0.7489677878380376, 0.7476115453447404, 0.7460527469291404, 0.7446125873368605, 0.7431123448419193, 0.7415852523779751, 0.7399645335737766, 0.7382687761715149, 0.7365420478588871, 0.7347610877192527, 0.7329123067324806, 0.731027506712775, 0.7290438875695366, 0.7270612824040619, 0.7250169207411804, 0.7229306102782292, 0.7207932372457702, 0.7186786476783961, 0.7164334940956314, 0.7142115936228544, 0.7118712621523425, 0.7094920003182746, 0.7069894904503118, 0.7045429726022276, 0.7019948018333065, 0.6994694423300926, 0.6968990325241774, 0.6942877983339577, 0.6916308114033142, 0.6889530380776635, 0.6862123342448349, 0.6834338181430708, 0.6806474074991149, 0.6777921534224385, 0.6749090604645259, 0.671986354128057, 0.6690315101802408, 0.6660799735396781, 0.6630581913118864, 0.6599499005690609, 0.6568790419122219, 0.6537772974861155, 0.6506891797963762, 0.6475229107784647, 0.6442960615757489, 0.6410833158203465, 0.6378440030217841, 0.6345877162546271, 0.6312967848539911, 0.6278661413811977, 0.6245437331723279, 0.6211928866932827, 0.6179431768155882, 0.6145243206447186, 0.6109989322366484, 0.607558939223011, 0.6040982290521825, 0.6006499430777305, 0.5971472311659342, 0.59359409288374, 0.5900654453621205, 0.5865208093881572, 0.583039672430232, 0.579456182981217, 0.5758611648957135, 0.5722610797200577, 0.5686528204490201, 0.5649786645446813, 0.5613626254982722, 0.5576812253566172, 0.5540528241989843, 0.5504130529742778, 0.5467981169050572, 0.5431351168942036, 0.5394432171792866, 0.5357726763947976, 0.532096800683243, 0.5283845835494808, 0.5247049071584639, 0.5210992988860774, 0.5174020082727019, 0.5137068377929023, 0.5099995874370842, 0.5063115060648956, 0.5025909154399235, 0.4989124754171055, 0.4952354615115299, 0.4915345145930973, 0.4878660070519551, 0.4842055519820284, 0.4805417013113735, 0.4768821856416198, 0.4732422977530375, 0.46959186747326265, 0.46597492092564563, 0.46233638887462475, 0.45870772797515263, 0.4550514678817797, 0.45144825781012865, 0.4478595687914846, 0.44427368870157874, 0.4406981077309565, 0.43714499358550146, 0.4335901550559201, 0.42999263383420055, 0.4264702320506252, 0.42295805239795237, 0.41954991634942546, 0.4160488644716758, 0.4124725923520106, 0.4090187561127545, 0.40557736164832164, 0.402172415239728, 0.39875518730836423, 0.395316045306491, 0.3919357377603975, 0.3885699913840954, 0.3853270086388118, 0.3819787906319054, 0.3785513580024338, 0.3752606524997629, 0.37198613724733304, 0.36874004792059384, 0.3654982307274587, 0.36226041938566617, 0.3590578923264903, 0.3558738235846386, 0.35270575521801384, 0.34956027686151475, 0.3464953517487676, 0.34338158540571073, 0.3402914781378768, 0.3371638233667301, 0.3341282345610326, 0.3312141348999087, 0.3282056522208233, 0.3252234215602921, 0.322165247658109, 0.3192469819267801, 0.31631602936611986, 0.3134408763218291, 0.31058418557451056, 0.3078338049202163, 0.3050049543540491, 0.3021344152318817, 0.29936406941109445, 0.2966146699190289, 0.2938807570682347, 0.2911749967518499, 0.28858377121598383, 0.28590962347281557, 0.2832627543079146, 0.28055834638090016, 0.27797510821803345, 0.27550012728189704, 0.27294831950812815, 0.2704230258234599, 0.26791503976759584, 0.2654424622586338, 0.2629568177293307, 0.2605381567972758, 0.2581415558831344, 0.2557699981253817, 0.2534173650921719, 0.2509767144722465, 0.24868286051261196, 0.24640521454037254, 0.24426669274863755, 0.24200851792910447, 0.23976693800971363, 0.23756004768161224, 0.23537712644403763, 0.23319461418889498, 0.23106164778159963, 0.22891558380787191, 0.22683049009372386, 0.2247650359199512, 0.22266418424581613, 0.22064546840712904, 0.21869599073619558, 0.21670501985286564, 0.21473481494587796, 0.2127969029875289, 0.210866450233857, 0.20897159621557734, 0.20708120003394875, 0.20521219568325527, 0.2033409691423572, 0.20151659935524638, 0.19967057004099015, 0.19788924380575307, 0.19612435183046212, 0.1944719432856986, 0.19272820941821214, 0.19091071422742517, 0.189222615677255, 0.18754981701829815, 0.18599124547929782, 0.18433688925794336, 0.1826745637788127, 0.1810652661018977, 0.17947390234705746, 0.1779087521738205, 0.17635086429603095, 0.17478981488381543, 0.1732684161761998, 0.1717621983076172, 0.17034648665978297, 0.16886039715661647, 0.1674046752065059, 0.16595377486079413, 0.1645206894622398, 0.16310173728288888, 0.16170239616405194, 0.16032150143748616, 0.15895232351806576, 0.1576413879700023, 0.156295531046225, 0.1549658664068001, 0.15353541590954267, 0.152250681578711, 0.1510084841140635, 0.14973507516710852, 0.14847203254302355, 0.14724842086102785, 0.14600243861554857, 0.14475680166718075, 0.143535955248958, 0.1423258988574622, 0.1411846031985407, 0.13998833959935184, 0.1387737269120311, 0.13760812599162459, 0.13645318550085822, 0.13527669937763423, 0.13414641277866582, 0.13305918440065242, 0.13194092186217826, 0.13083289860961633, 0.12969707605699854, 0.1286135388999753, 0.12756063272137808, 0.12648901360817513, 0.12542623739977027, 0.12434310111239774, 0.12330125546720458, 0.12230688117811461, 0.12127356867158387, 0.12024950013442805, 0.11933319864538297, 0.1183143162784867, 0.11717868812218364, 0.11620336319330617, 0.11523280562349975, 0.11438350651504428, 0.11340851892586395, 0.11236412065756957, 0.11142255262828366, 0.11048691040223527, 0.10965023173496283, 0.10871482580458748, 0.1077906932275868, 0.10687711824277275, 0.10597347363799425, 0.10501528302069342, 0.10413801350592022, 0.10331796151844262, 0.10244406577042443, 0.10157833436714624, 0.10065365544253595, 0.09981191651051079, 0.09913661602286675, 0.0982820991148811, 0.09744114716889027, 0.09647909525879865, 0.09567932484202302, 0.09499344696205414, 0.09418709780918258, 0.09339126967308721, 0.09260545368010063, 0.09182922252868658, 0.0910622224562039, 0.09030416588708991, 0.0895548247134385, 0.08878787119136913, 0.08805879063914884, 0.08729588855344211, 0.08658583629895622, 0.08588069484411429, 0.08526523793095173, 0.08456073743076686, 0.08388181312356201, 0.08319729807936437, 0.08252416055502733, 0.08184178078199374, 0.08119319538491729, 0.08045538694444268, 0.0798384965909607, 0.07922576009100747, 0.07862387606501907, 0.07802129227854933, 0.0775215084000662, 0.07692123187435372, 0.07633442927516429, 0.07575213004448432, 0.07519267093094828, 0.0746223423596175, 0.07409053723990741, 0.07356975426328344, 0.0730718207514019, 0.07257222532053237, 0.07196868470701553, 0.07150847940338005, 0.07105428008661302, 0.07067689842134697, 0.07022899863652558, 0.0697416161718576, 0.0693261971936941, 0.0689210995739548, 0.06850370186630361, 0.06812400442452028, 0.06776084240254678, 0.0674025115851453, 0.06705647359381196, 0.06681038876886738, 0.06647932006837008, 0.06605923845138771, 0.06577843357966569, 0.06550947480407592, 0.06525589745962879, 0.065012090372869, 0.06477619108524246, 0.0645609982612452, 0.06436003843441235, 0.06422602703808344, 0.06404811069433161, 0.06386232933042382, 0.0637241835091107, 0.06360265988197339, 0.06354440089040993, 0.0634506845441888, 0.06332432885828758, 0.0632763247821606, 0.0632446280314837, 0.06324403931052774, 0.06324391857478255, 0.06317160707861466, 0.06321877091533684, 0.0632789967611291, 0.06344320730787721, 0.06352060079791345, 0.06361256614073917, 0.06373133901821225, 0.06386994917930776, 0.06400221567284571, 0.06418373766846168, 0.06433418748028766, 0.06455883219241515, 0.06479945841080492, 0.06511186487265823, 0.06537917131123944, 0.06559158254491898, 0.06590972754414649, 0.06624423859610995, 0.06661314264729118, 0.06697988645651937, 0.06742947606214952, 0.06782623075119862, 0.06824597737454136, 0.06857797396802043, 0.06905674550571415, 0.06964444589940952, 0.07014400542963461, 0.07066596688303901, 0.07112290813377757, 0.07169998105327825, 0.07228807929239126, 0.0729000758875477, 0.07352954099089447, 0.0741449340499434, 0.07481458452648708, 0.07555910892607491, 0.07625542574771654, 0.0769726834860207, 0.0777398216991989, 0.0784949213530323, 0.07930127041781251, 0.0800967026018517, 0.08091523018393143, 0.08162842999655617, 0.08250766802979077, 0.08338673872795578, 0.08429712688894656, 0.0852221447200879, 0.08616522249680794, 0.08712061223488068, 0.0882083322250531, 0.08918146273689644, 0.09017763979575076, 0.09114665064304599, 0.09219279034057228, 0.09321916908908694, 0.09430586822165636, 0.09540796253898703, 0.0965719929614696, 0.09769909756244746, 0.09885003652081849, 0.10001200925900543, 0.10119146073046492, 0.10232690554365942, 0.10354766093616002, 0.10484506158727633, 0.10608323807749162, 0.10733781305749633, 0.10854722596440948, 0.10984072412088601, 0.11118632995273442, 0.11249754635210742, 0.11382244762831178, 0.11504148828236764, 0.11640761113693542, 0.11782020449003137, 0.11919331464072103, 0.12066266244776179, 0.12204287290987814, 0.12343698009119387, 0.12480058615029409, 0.1262256090066313, 0.1276103694170263, 0.12905956207808492, 0.1305144026568179, 0.13195166141409226, 0.13342072689715018, 0.13502477171223554, 0.13648576849711266, 0.13795832070412306, 0.13933376441762768, 0.14083965693898812, 0.1423943417987661, 0.14389887253272662, 0.14540809900927384, 0.14692437389932253, 0.14844096834433007, 0.14990265450650847, 0.15143244840309042, 0.1529610602494867, 0.1545348934568036, 0.1560549367832704, 0.1575207672429057, 0.15904917803785062, 0.1605742736134982, 0.16208427575865245, 0.16360369687611395, 0.16516503667177854, 0.16666923302339212, 0.16817102521925453, 0.16965813106136027, 0.1711546171821664, 0.1727274611346598, 0.1742031063833991, 0.17567722828684923, 0.1770091449025242, 0.17849433561008385, 0.1801091935748714, 0.18155107694464534, 0.18298842591324813, 0.18429803522053478, 0.18573834898605904, 0.18725701683354581, 0.18865633924843564, 0.19004625034753805, 0.19130386838796484, 0.1926879244533532, 0.19418700443129902, 0.19551712466975465, 0.19683652608858757, 0.198147126721284, 0.19944182012968126, 0.2006301824714979, 0.20190910192703737, 0.20316781775647572, 0.20439760695180356, 0.20561694889365117, 0.2068851701772962, 0.20805389329496646, 0.20920546774800702, 0.21034788635694535, 0.21146192034849154, 0.21258918353201192, 0.2136610041934385, 0.21471451759661514, 0.21568781177058013, 0.21670982335173886, 0.21769018437325463, 0.21866574357453972, 0.2196156431111391, 0.22058045437824536, 0.22147353103713802, 0.22232829126202125, 0.22317512162774486, 0.22399635376832613, 0.22476258057203327, 0.22553525106523625, 0.2262941941821972, 0.22700841718124737, 0.2276949826634187, 0.22826936466259287, 0.22891050139143673, 0.22955625563384882, 0.230126716752418, 0.2306668932990521, 0.23127844965613395, 0.23174504642372648, 0.23209387718315136, 0.23252174733062905, 0.23291785041316443, 0.23331413484181293, 0.23364259345947244, 0.23389447927488374, 0.23416833527760986, 0.2344088765651149, 0.23469174714509877, 0.23485635340640532, 0.23503567200560507, 0.23513643274196377, 0.23520965931753346, 0.23512667714100333, 0.2351586494184411, 0.23519442536689444, 0.23514797196081083, 0.23506781996182982, 0.23489880455150985, 0.23475837539433267, 0.2346742749483718, 0.2344492603593339, 0.23419373382347514, 0.2338986227001486, 0.23358216230999254, 0.23324831998418447, 0.23286606295067752, 0.23245247037239403, 0.23198991969081748, 0.23151534345421315, 0.2310080226083043, 0.23046803523916462, 0.2298954781443631, 0.22924397190625628, 0.22861251493079326, 0.22794917909810716, 0.22724832255660968, 0.2265138876963211, 0.22581316523518016, 0.2250044693403866, 0.2241120426930626, 0.2232531556452186, 0.2223624379323258, 0.2214548341545484, 0.22049985544174058, 0.21958191967432023, 0.2185591856542823, 0.2175109816009356, 0.21638476803724402, 0.2152916148604508, 0.21413471345497573, 0.2129886166131315, 0.2118124984814785, 0.21060124597903146, 0.20936788903807846, 0.20819337929907833, 0.2068930160809129, 0.20557054192230098, 0.204150334625811, 0.20279305298797376, 0.20135420360394946, 0.19995192001546672, 0.1985216179900955, 0.19709058132738974, 0.19560425609552562, 0.19405678713124036, 0.19252922958929067, 0.1909776112406136, 0.18954820861036348, 0.1879329897965961, 0.18624653316425396, 0.18461208818796898, 0.182960700335678, 0.18125202492236683, 0.17957293893321685, 0.1779658128446387, 0.1762398437427029, 0.1745022951212503, 0.1727153891092963, 0.17095953186649376, 0.1691233634322869, 0.16734952093475897, 0.16555950461721225, 0.16371372473320184, 0.16189973218165085, 0.16018083857286092, 0.15832351941352357, 0.15645956411746434, 0.15452238804306206, 0.15265441062364993, 0.15076821967718304, 0.14888327140747415, 0.14699014443408615, 0.14513335691217735, 0.14322111758780567, 0.1412186615755116, 0.13931185200219776, 0.1373981042424867, 0.13552223057962817, 0.1335926958804273, 0.13165632171120614, 0.12972614545425756, 0.12779596432968784, 0.12583161636351803, 0.12390794709763177, 0.12207739208628772, 0.12014317184733127, 0.1182161605345463, 0.11622964623541815, 0.11432593020636385, 0.11252500774446099, 0.11061760298944415, 0.10866903815289904, 0.10679051300314256, 0.10492022535483334, 0.1030761533636152, 0.10122177537575709, 0.09928528349615294, 0.0974648398633458, 0.09565093176354637, 0.09389417723044645, 0.09209067238052972, 0.09025631966231917, 0.08848441792375562, 0.08672402347992862, 0.08506325585370828, 0.0833176307927291, 0.08150971773176688, 0.07981263141487333, 0.07813029758065665, 0.07652167305080812, 0.07486396888021954, 0.07313658331045479, 0.07153131805945687, 0.06994191518513593, 0.06847399929476368, 0.06690606004937771, 0.06522610321004353, 0.06372451981669797, 0.06223981780393188, 0.06091263673693944, 0.059447434959824866, 0.057981068042785106, 0.05657509290442633, 0.05519497524702602, 0.05382630594115861, 0.05250012295287026, 0.05130401712724906, 0.050015832501566146, 0.04875957207291641, 0.047415545733074556, 0.04623665171874417, 0.04506420569119627, 0.04393596213181743, 0.042831933547873347, 0.041796433259046986, 0.04073743848385942, 0.03970129173442999, 0.03870055748097477, 0.03772856397159906, 0.03678264697189312, 0.03586921458945009, 0.03499085824220825, 0.03413544590561465, 0.03331006052359491, 0.03242476715914087, 0.03167125694246262, 0.031059363480085738, 0.03034275897286516, 0.029659636320241142, 0.02894577725940026, 0.028336865568081793, 0.027820999266467923, 0.027262542504565477, 0.026737357417320428, 0.026111480442652168, 0.02566888529760344, 0.02539364015707766, 0.024983811561307457, 0.024608509738360436, 0.024127727993379002, 0.02383758509521455, 0.023659867894519283, 0.023409911846123843, 0.023191408362821714, 0.022937320801768607, 0.02278956324803458, 0.022634015696564626, 0.022545145918700847, 0.02248196142370205, 0.022564060122883926, 0.022538456650817364, 0.022473668368330132, 0.022523410229376928, 0.022601054866017496, 0.022747191862272295, 0.022875184610968914, 0.022992299160316813, 0.023184525952471058, 0.023403250643005292, 0.023732576812784914, 0.02399311082274728, 0.024304622830604288, 0.02462292977212759, 0.02497121788291128, 0.025232274139289825, 0.02565235574087306, 0.026189053074196354, 0.026638593388148415, 0.027114449221842214, 0.027473471702437517, 0.02801771762793114, 0.028697256916629634, 0.029259228925421786, 0.029844894396469018, 0.03043903030413337, 0.0310718618246133, 0.03169359189850949, 0.032371675235911807, 0.03306779631098726, 0.033799131977341114, 0.03452831642745077, 0.03525240027777781, 0.03602032871664333, 0.03680411471721361, 0.037586006268125645, 0.0384027312376957, 0.03926816701608984, 0.040107903504888194, 0.040962876784997555, 0.0418963991464108, 0.042771913883439386, 0.04353654938687536, 0.04446106363349674, 0.04539319557216433, 0.04637946488684609, 0.04732095579151885, 0.048217321865321607, 0.04918541577983758, 0.05015938602520975, 0.0512146611331122, 0.05219039676497297, 0.05323090939174378, 0.05421789757803724, 0.05521578708679802, 0.05614193358612681, 0.05716815620870384, 0.0581738663203043, 0.05920809564512824, 0.06024293159018798, 0.06124325089575508, 0.062282911624374215, 0.06336684422086127, 0.06439610378787325, 0.06542553161653798, 0.06644293393876297, 0.06747245378251997, 0.06850558146965882, 0.06952947488496351, 0.07055051110600721, 0.07156523197563884, 0.07257926212043246, 0.07357408005173366, 0.07458004907548736, 0.07557945261429914, 0.0766125541033303, 0.07759241200403234, 0.07862771417058027, 0.07958791692782625, 0.08054443649621801, 0.08145828975081938, 0.08240868950895577, 0.08325984662272223, 0.08420265997059465, 0.08512997718313106, 0.08607970217389818, 0.086971569510996, 0.0878851296011935, 0.08874588539353431, 0.0895947195450414, 0.09039031048187322, 0.09121855841587515, 0.09211213982395422, 0.09289781366101063, 0.09367155970547447, 0.0943278615839792, 0.09508833582747381, 0.09581978686019177, 0.09654088413864496, 0.09724140078218949, 0.09802605687115053, 0.098672463587402, 0.09922298563494363, 0.09984978253416676, 0.10045585130441374, 0.10108471659102965, 0.101643607955285, 0.10211713651222211, 0.10264695985313504, 0.1031536102627079, 0.103625600508255, 0.10408774531095945, 0.10461354037648395, 0.10501774031725127, 0.10540353023517408, 0.10565984889687165, 0.10602092713279529, 0.10641959024342114, 0.10672031398482046, 0.10699905412887772, 0.10731662138776235, 0.10754305660217907, 0.10766026083193815, 0.10785913318653838, 0.1080325673829431, 0.10825633211903994, 0.1083699600495725, 0.1084048492345527, 0.10848412784015037, 0.10859097947637021, 0.10861430746082341, 0.10861608880616337, 0.10854662104384777, 0.10851069679859526, 0.10855430186653052, 0.10845521829593564, 0.10833737817535041, 0.1081594734672981, 0.10800748535176666, 0.10778637318449664, 0.10759497518071573, 0.10737831479410632, 0.10714842585802739, 0.10688098433604637, 0.1066278894448306, 0.10630908265602637, 0.10596950791126063, 0.10552195719050347, 0.10515181292012415, 0.10485192110504882, 0.10441914614992966, 0.10396760910971622, 0.10340131557764197, 0.102924128396783, 0.10244007901722309, 0.10191290199945219, 0.10136396826246453, 0.10084905127219365, 0.10025128082879212, 0.09965679903944753, 0.09902239686066508, 0.09837221110947997, 0.09764807713626394, 0.09697358311496498, 0.09630911258196549, 0.09559343660455936, 0.09486146346994137, 0.09410186463624212, 0.09333966672033286, 0.09249461275741853, 0.09170925354634017, 0.09090498247954683, 0.09019319069968697, 0.08933997188430816, 0.08836632806621778, 0.08750697054807977, 0.0866312826973265, 0.08580119827110275, 0.0848878070292066, 0.08402219096642252, 0.08308103067980724, 0.08213333757426423, 0.08109758234788647, 0.080146692111866, 0.07918733266955798, 0.07821401881298509, 0.07723085542866479, 0.0762617117536532, 0.07525775886800581, 0.07428194687257189, 0.07326051327838434, 0.07223509268821986, 0.07118837731690246, 0.07015761318994668, 0.06907008639551145, 0.06803740737354018, 0.0669981207253623, 0.06595887016203504, 0.06490808776995481, 0.06386502236001225, 0.0628056285571028, 0.061744297494141426, 0.06075711097839035, 0.05968393008943459, 0.0584896584074425, 0.0574398952557327, 0.056386838862494626, 0.05547390452503235, 0.05439927009598403, 0.05327118801486833, 0.05221911220765868, 0.05117065964749386, 0.050065158502125555, 0.049032734008369216, 0.04809458250585881, 0.04705384102828128, 0.046021289786100004, 0.04500275985466209, 0.04398595966385642, 0.042913941568820904, 0.04192274681933253, 0.04093691324043589, 0.03999199717165031, 0.039014500306777514, 0.03801722029637554, 0.03706225882036655, 0.03611556908538169, 0.035160271617767344, 0.03423397202762825, 0.03336595892645002, 0.032451811232647614, 0.031550533826301685, 0.030627410174047763, 0.029756760695089243, 0.028868474333634646, 0.028024818800399354, 0.02719188098436032, 0.026352885820942133, 0.025545516887011094, 0.02474971686621303, 0.023966142900745602, 0.023195394243744137, 0.022438017092073506, 0.021694509022779696, 0.021075746713965813, 0.02034733468189747, 0.019640231482727127, 0.018884151356419687, 0.01822692912618281, 0.017611850718301375, 0.01698353387581908, 0.016373123541743095, 0.015795144237185223, 0.015218709465828425, 0.014614528324838089, 0.014081381847428987, 0.013564224671920028, 0.013089539175860525, 0.012602012213424428, 0.012144465884103976, 0.011692218122632011, 0.011259050339040889, 0.010743199275231197, 0.010360888776638247, 0.009991806784242753, 0.00963673789469066, 0.009296369600453014, 0.009064288884514646, 0.008743280367152995, 0.00836819948956971, 0.00809933431521195, 0.007847000054558984, 0.007637645523628188, 0.007415903221293756, 0.00727973437942373, 0.0070869642988399635, 0.006916563430780655, 0.006738858130072674, 0.006615081079260977, 0.006492924178853011, 0.006409231407148913, 0.0063431639796554425, 0.0062626854735919136, 0.0062356845713164855, 0.006317257014310009, 0.00630982429630395, 0.006323464117648288, 0.006273234372558574, 0.006337717055352615, 0.006425412357229968, 0.0065179430267422464, 0.006625734673443392, 0.006867934612854834, 0.0069911751020901615, 0.007145017621649918, 0.007309895982425819, 0.0074951877334966405, 0.007627331367469666, 0.007859978179621575, 0.008106468120255082, 0.008366703118904893, 0.008640573631178108, 0.008898899750145703, 0.00920334044048682, 0.009507764075738397, 0.009836964933830053, 0.010177234658177166, 0.010554819305665158, 0.010914153349376843, 0.01128326294489701, 0.011668082928923776, 0.012064923150003489, 0.012508414874178671, 0.012924157600490083, 0.013254326910719805, 0.013708463282557754, 0.01416920396023393, 0.014770510137421781, 0.01522835269922209, 0.015584711665358452, 0.016085757388818383, 0.01659311378465679, 0.017069085424652367, 0.01759402771504375, 0.018190079630191425, 0.018715355799023496, 0.019249050510850553, 0.01974712595662375, 0.020301823647176177, 0.020971579168871893, 0.021521496304358387, 0.02200066563538236, 0.02258105436703343, 0.023165473405707553, 0.02373333664023915, 0.02432763723674023, 0.024956010035635478, 0.025550360013438838, 0.026148332042427863, 0.026711709831631177, 0.027320389974202247, 0.02797867401385431, 0.02858140110199154, 0.02918684382416038, 0.029739220279788973, 0.030355389495802375, 0.03100440883719727, 0.031612071379263786, 0.032219521568219056, 0.03293096776090756, 0.033523564213709146, 0.034132256143832265, 0.034731106293103595, 0.03533275195009881, 0.035915752520160674, 0.0365223671380242, 0.03713054662645046, 0.03773346051474153, 0.03833395101583249, 0.038919828649422256, 0.03951529347176057, 0.04005672770421093, 0.040648837984698157, 0.04123289057705032, 0.04191650613361838, 0.042471128588682995, 0.04294839700894749, 0.04350812711861986, 0.04406021541454174, 0.044639458662243135, 0.04517162701751244, 0.04575889530554354, 0.04627113095613666, 0.046780158676626035, 0.04716603565540983, 0.0476813919893167, 0.04826896857627397, 0.04874995892884585, 0.04922435186095647, 0.049726624544147675, 0.05018227261400604, 0.05060896670160163, 0.05105557332287515, 0.05149409869903508, 0.05191266133788064, 0.052335749171402546, 0.052795908551462156, 0.053194188088987376, 0.05358549547756682, 0.05405075708942682, 0.0544165735014983, 0.05475267817188334, 0.0551137435085001, 0.05546802485416296, 0.05577434378504144, 0.05611878658660758, 0.05649357094486346, 0.05681222015334584, 0.057122888616960237, 0.05749795363644298, 0.0577827178216425, 0.058080354269670634, 0.0583530746638813, 0.058620894418603964, 0.0588773584818811, 0.0591342890735236, 0.059410526748493515, 0.059650152868235815, 0.05988386082054933, 0.06007349452746773, 0.06029908722518553, 0.060617450917827546, 0.06081246468574297, 0.0610045742558315, 0.06123964885151935, 0.061418315949085776, 0.061571911715176154, 0.06174919305111475, 0.06192212483644099, 0.0621020919979072, 0.06226422234694606, 0.062407650457551846, 0.06256316294448896, 0.06271353851279152, 0.0629083164801671, 0.06304263084031148, 0.06319545661846145, 0.06332338933801637, 0.06345040989941846, 0.06359087876583554, 0.06371381218837813, 0.06386834111876594, 0.06398642672187017, 0.0641058728633201, 0.06425264315227551, 0.06437102436587262, 0.06447739280423369, 0.06460248273784062, 0.06472903915528576, 0.06495307863113166, 0.06507086696903665, 0.06508270285803251, 0.06522907396140952, 0.06537559496879579, 0.06552583490433693, 0.06567427078234733, 0.0658918228000212, 0.06603698729809092, 0.06618941275978225, 0.06634916806453149, 0.06651638257330937, 0.06666508642965284, 0.06685112274071203, 0.06704383664429996, 0.06740357142822008, 0.06759099968018711, 0.06775787819777787, 0.06798378881456817, 0.06822347410527635, 0.06852910540971012, 0.06878941701438443, 0.06908083623895227, 0.06937216474284817, 0.06968040044407295, 0.07000825434926336, 0.07034946117270757, 0.07074233856820508, 0.0711128098662241, 0.07150226393146629, 0.07185543075921905, 0.07228975204004431, 0.07277202343426048, 0.0732349144696991, 0.07371687599509057, 0.07417762682524849, 0.07470411292807244, 0.0752719407161994, 0.07583249858484553, 0.07641408051692429, 0.07704634279371184, 0.07766809593671826, 0.0783985793411288, 0.07905897008407556, 0.07974932505046337, 0.0804577704238826, 0.08120887788792307, 0.08192782711141192, 0.08274450562616929, 0.08358693608286599, 0.08453140225754978, 0.08541796289241127, 0.08625820791897103, 0.08721905599358425, 0.08820786646324168, 0.08925742894343495, 0.0903005653974832, 0.09137002636092927, 0.09247864618352789, 0.09362003207823565, 0.09482377170041413, 0.0960285970572844, 0.09733622498995861, 0.09860481253415754, 0.09991369635128884, 0.1012859052515637, 0.10267187025153314, 0.10411645544595263, 0.1055824018565355, 0.10709022430906691, 0.10864556224398024, 0.11023596509707606, 0.11184503690345879, 0.11352220442583344, 0.11524002966673094, 0.11695812180510827, 0.11876330191710202, 0.12063103741303688, 0.12251256459368035, 0.12443601315853807, 0.12641052251598334, 0.12841797087583542, 0.13046616973534814, 0.1325616277392088, 0.13470123687371113, 0.1369463695375566, 0.1391676049706936, 0.14144906424654563, 0.1437658649356589, 0.14613163786300612, 0.14841836041526824, 0.15089780149894053, 0.1535407356692316, 0.15608863018019903, 0.15869542652162688, 0.1613424136110554, 0.16403976680043153, 0.16667398700685723, 0.16948592946679772, 0.172483863285664, 0.17536584681578163, 0.1783010099088669, 0.18124819012207286, 0.1842934807912257, 0.18740875593661457, 0.19055078033652517, 0.19374363026131083, 0.19693195261116012, 0.20023302888530226, 0.20359308362279283, 0.20698774745536458, 0.21043106646464074, 0.2139929449051789, 0.21752521601067712, 0.2211395163595333, 0.2247735712741298, 0.22846130495747172, 0.2320829407287954, 0.23589124980116924, 0.23978840733913573, 0.2436822076696351, 0.24762459902289505, 0.25168820726687263, 0.25571850757108217, 0.25966766931619045, 0.26381925736859924, 0.2680145708685828, 0.272303499246922, 0.27658138969527735, 0.28086337658399513, 0.28524197265240686, 0.2896654311546457, 0.29419489966387274, 0.29870067236852604, 0.3031793548575197, 0.3077910522290961, 0.31244587317071043, 0.317219438175217, 0.3219510855418229, 0.32662257494776964, 0.33146179982009, 0.3363408984000655, 0.3413007182748799, 0.34625482355023285, 0.3512629347388118, 0.3562999186244697, 0.36137907420563, 0.36659282220371314, 0.37174284815680203, 0.37689202817407297, 0.3821378757139384, 0.3874241367336445, 0.39272964433122465, 0.39809684529082695, 0.40352123435736353, 0.40895894215852296, 0.41443339867573503, 0.41993508853915434, 0.4254817620582557, 0.4310361783664332, 0.43665324760494323, 0.44230133588698395, 0.44791891836660935, 0.45363522422776664, 0.45938914954951215, 0.46515587605475467, 0.47094895993327973, 0.4768290617955493, 0.482665994715694, 0.4884849478634101, 0.49438376539137835, 0.500306456498978, 0.5062233390641226, 0.5121955450891523, 0.5182257941524707, 0.5242332668305992, 0.5302620886811281, 0.5362910156411531, 0.5423623893573033, 0.5484570454290661, 0.5545618590581878, 0.56068290838895, 0.5667699263799415, 0.5729270739857416, 0.5791938315933313, 0.585359588678118, 0.5915406007582739, 0.5975930477941039, 0.6038183242101319, 0.6101222580334791, 0.6163440309708517, 0.6225727212800147, 0.6288335099486817, 0.6350698001973287, 0.6411778535104514, 0.6474406958326129, 0.6536990548014895, 0.6599760677299552, 0.6662220718774687, 0.6725688327585884, 0.6787932795484863, 0.6850184375700966, 0.6911758900605595, 0.6974062302997087, 0.7035969787199449, 0.709815210179647, 0.7160222031210555, 0.72220274107662, 0.7283869810689984, 0.7345889209380988, 0.7407398806860954, 0.7468769006322767, 0.7530599427738466, 0.7591581756308146, 0.7651903826302373, 0.7712662196054744, 0.7773223206625146, 0.7833692719686929, 0.7893813164709824, 0.7952926984983255, 0.8012691185707956, 0.8072166686626476, 0.8131174288843745, 0.8190079217400311, 0.824887257063235, 0.8307116539402851, 0.8365045753433037, 0.8422535851032056, 0.8479825568061599, 0.8537843934462094, 0.8594296683511048, 0.8650447004415217, 0.8705870912866841, 0.8761417193531927, 0.8816124307601432, 0.8870969416005562, 0.8925391458129484, 0.8979383181406415, 0.9032937108064821, 0.9085522509144011, 0.9138243801078881, 0.9190474466153133, 0.9243053333895643, 0.9294183964636741, 0.9345032249167154, 0.9395215192341427, 0.9444927173362422, 0.9494329758045948, 0.9543039978452404, 0.9590613035990196, 0.9638395752771814, 0.9685620165145772, 0.973204756543342, 0.9778165954092797, 0.9823490602070203, 0.9868449457506794, 0.9912797112571791, 0.9956936936548777, 1.0