0.0643917871221625, 0.06384104676637617, 0.06326106683380667, 0.06268831153145193, 0.06213226807769279, 0.061569624685735964, 0.0610067815335308, 0.06045417387454917, 0.05990491772008861, 0.05941643539241794, 0.0588650951435982, 0.05818737759291869, 0.05766252396002892, 0.05713417764943445, 0.05668976339916317, 0.056144961301323223, 0.05552134677633935, 0.05499222941201199, 0.054460830659089826, 0.05399872345926219, 0.05345513725469071, 0.05286188028176841, 0.05233073994553655, 0.05179925780411825, 0.05130985545293242, 0.05077319691998976, 0.0502314538340223, 0.049701312355243873, 0.04917334030122701, 0.04859749665963859, 0.04808018777528799, 0.04757015864046587, 0.04705103500237187, 0.0465325420343035, 0.046099231384519365, 0.0455721549019771, 0.04501169314979593, 0.04450137198612556, 0.04399406651583503, 0.04348447361072654, 0.04298376918685425, 0.04253838160748348, 0.04203634991846578, 0.04154000208457945, 0.04099892356076581, 0.040519191373703564, 0.04004399452836487, 0.03956790653609188, 0.039094205222143436, 0.03856771988355111, 0.038106176989853344, 0.03770223461715989, 0.0372332527362829, 0.036768245008632384, 0.03625452055638423, 0.03580406683431541, 0.035357226939080826, 0.034908826136445775, 0.03446235752301066, 0.03406554007510123, 0.03361785488932772, 0.03314400650157361, 0.03271103537597387, 0.03228143298058666, 0.03188430515480108, 0.03145817653858135, 0.03104795161256372, 0.030631101236819388, 0.030219973790512215, 0.029814394652934274, 0.029414216939181944, 0.029006151460972903, 0.028618099435728853, 0.028234411503054255, 0.02778402944048317, 0.02741820296319553, 0.027081868099978368, 0.026714052002271043, 0.026349570086879485, 0.02596498412520866, 0.02561093006556806, 0.025320161626935338, 0.024964259204987054, 0.02461518826622823, 0.024306996059962407, 0.023966720340600257, 0.023611006613770746, 0.0232898628630032, 0.02297492266293049, 0.022626584794065995, 0.022328770877975673, 0.02204524079520962, 0.021753868453586088, 0.021467360017680105, 0.021156888610740804, 0.02088418562662938, 0.02063091715113243, 0.020363829547718426, 0.02010191797778766, 0.019908535904383212, 0.019649418705962436, 0.019320426181156383, 0.019089160731681428, 0.01886184909472957, 0.01873626860760594, 0.018505521320616114, 0.018214000024923446, 0.018012360990899434, 0.01781604564098086, 0.01769368725707895, 0.01749983468057556, 0.017226055981391902, 0.017062324932441777, 0.01690238755057966, 0.01675454700674175, 0.01660236276950599, 0.016460764683424726, 0.01631877328540993, 0.01618281275383424, 0.016105683935621784, 0.015975502504153367, 0.015883624402231743, 0.01576811586190727, 0.015662941515640478, 0.015546545417992233, 0.015463302120804755, 0.015324723916180416, 0.015265060761243373, 0.01520944384757633, 0.015160909342405932, 0.015114215021640382, 0.015125462057512066, 0.015082908781808412, 0.015049067425713223, 0.01506058181849266, 0.015038853390407383, 0.01499307155018217, 0.014995586191061373, 0.015005517349537766, 0.015004361146584107, 0.015031258580580784, 0.015040657985423075, 0.015083064630874141, 0.015130543005623925, 0.015164930269932295, 0.015225663207226427, 0.015362251569512105, 0.01542381973617503, 0.015494732538085532, 0.015498285240440541, 0.015596578288193282, 0.01571746308976946, 0.015822111492937, 0.015932643158497833, 0.016022847165688373, 0.01614882287903704, 0.01630847310408118, 0.016440466251469128, 0.01657928298326883, 0.016769643407105433, 0.016916290830827737, 0.0170194344361953, 0.017190644922890654, 0.017367246972027454, 0.017594079464475696, 0.017775991555566452, 0.01789221831906831, 0.018099213390081373, 0.018370030995205656, 0.018576173992343188, 0.018789523917260107, 0.01895713202877723, 0.019190739297094063, 0.019506824460986272, 0.019737586489383886, 0.019976614649130538, 0.02017336399484372, 0.020433773868043813, 0.020740391824445644, 0.021003641884462028, 0.021273361561563245, 0.021417532006928065, 0.021715838284124857, 0.022107084182681428, 0.02239046295969879, 0.02267877087361462, 0.022937592261815666, 0.023239550735603166, 0.023549254786270703, 0.0238556096678451, 0.0241649176426484, 0.024477181546175435, 0.02479238367779913, 0.025107854294065535, 0.02542914044463856, 0.025753059877415763, 0.02607691876631776, 0.02640624203169366, 0.026740460604804107, 0.027073895526120603, 0.02740956890535647, 0.02772102047080305, 0.028064116909448693, 0.02847604639880765, 0.028811274537715297, 0.02915080643238174, 0.029496730937455876, 0.029842946520057513, 0.030157869429261453, 0.030513851346559456, 0.030869993052121, 0.031234087844731386, 0.03158922247945475, 0.03197622310188049, 0.032327702539166794, 0.0326808481848261, 0.033016790472507544, 0.03337432839553274, 0.033715490628444665, 0.03407368238434421, 0.03443002939797365, 0.034871381304659554, 0.03521287145137601, 0.03553349261935096, 0.03588286036455474, 0.036232240257309, 0.03658118759324037, 0.03692929766227306, 0.03727356803821853, 0.03761926174117115, 0.03796295596192861, 0.03829385452504061, 0.03863411490923284, 0.039060594248124414, 0.0393827680396702, 0.039706400191984605, 0.0400201180872341, 0.04034557448265338, 0.04064067859697625, 0.040966523543677684, 0.041288400841210486, 0.04168778014917821, 0.0419909079943483, 0.04231262114968412, 0.04261293467490325, 0.042912954913764, 0.04324352429897654, 0.04353677529879445, 0.04381369300197353, 0.044107111819318104, 0.04439767774519331, 0.044798177399317005, 0.04506741919520965, 0.04538111676095147, 0.04564847302183751, 0.04591827600027557, 0.046263025717892696, 0.046524852665570715, 0.04673210062859437, 0.047006592784664444, 0.04727863218790402, 0.04762931393001423, 0.0478845918929505, 0.04811694668925816, 0.04837583731910489, 0.04863244220300585, 0.04897846329607105, 0.04921752364407779, 0.04940829152863449, 0.04965620352617207, 0.049901280353206845, 0.05021962622502924, 0.05044864696247409, 0.05072329590602628, 0.05094768502566578, 0.05117419378686647, 0.051441512780436946, 0.051664973304418424, 0.051938151412144015, 0.05215950192675874, 0.05238447647882172, 0.052643815328036504, 0.05286961459858748, 0.05316188654495089, 0.05338553929123634, 0.053614766000589606, 0.05379859909826697, 0.05404268257795977, 0.054353082978908195, 0.0545897414675433, 0.05483052894010477, 0.05501968998214085, 0.0552744932259297, 0.05563728826346937, 0.05587879000279478, 0.05612702644773635, 0.05642363191083663, 0.05667863181012053, 0.0569257918426491, 0.05719821183610754, 0.05747683675000895, 0.05776417396766631, 0.05805458472585865, 0.05839072424921404, 0.058688677734374244, 0.058995306654322545, 0.059289427241261655, 0.059615810663822606, 0.05992588921983341, 0.0602703479981438, 0.060621482211186975, 0.06102987609583666, 0.06138968259361387, 0.06180539894148049, 0.06218198166244837, 0.06257258087600577, 0.0629481207443577, 0.0633701785046171, 0.06378348185628115, 0.06423318361131397, 0.06469475330264303, 0.06520300666057177, 0.06568572656588008, 0.06622348576941366, 0.06673259481891052, 0.06726011294345534, 0.06772972666160072, 0.06830396043682281, 0.06898485734759041, 0.06957726943139356, 0.07019101987823106, 0.07079983021340831, 0.07145982498166557, 0.07209527737655848, 0.07280183903092, 0.07352704138053906, 0.074269104524035, 0.07503445452175513, 0.07587608153908929, 0.07667718457160397, 0.07750393848753802, 0.07839352132503363, 0.07926787774851039, 0.08015518321013831, 0.08108914671894676, 0.08205125423360779, 0.08301552546867438, 0.08403834963503463, 0.08505740173024057, 0.08614054013861713, 0.08725104940453922, 0.08838720284331607, 0.08955547229284991, 0.09077201766875305, 0.09199847020095116, 0.09325743109496594, 0.09457322757582133, 0.0958960786081656, 0.09715718506835125, 0.09856416152410027, 0.10000221146142327, 0.10150943360331754, 0.103008573152076, 0.10453376407572683, 0.10610810806410156, 0.10771982280620274, 0.109330140357405, 0.11102376184644683, 0.11277307830035434, 0.11453984985498589, 0.11639944162659184, 0.11824054162297054, 0.1201260880783954, 0.12201940914420706, 0.12399912515359518, 0.1259455053151024, 0.1280215041971627, 0.13013734095371704, 0.1323231109414283, 0.1345182457669324, 0.13676584774358194, 0.13904974976953055, 0.14137988448500716, 0.14378570739738375, 0.14620607735582036, 0.14858877824722622, 0.15111878506958623, 0.15369350792099745, 0.15630066355212235, 0.15896905261789024, 0.1617259641572331, 0.1644825586474049, 0.16728934791012434, 0.17012553827257218, 0.17303618179037955, 0.1760597998147008, 0.17906237391201194, 0.18211898886792527, 0.185174138763135, 0.18834525035855545, 0.19158257718091007, 0.1948528379033103, 0.19817500009300387, 0.20146491171082065, 0.2049018755174639, 0.2084179227479969, 0.21194660002276236, 0.2155259243504675, 0.21917989640646518, 0.22285836191691052, 0.22664748271945276, 0.23042401882530447, 0.234256425211688, 0.23812309061184495, 0.24206831158081638, 0.2459903331678771, 0.25005128470793403, 0.25416058527725366, 0.2583791539392892, 0.2625784625698025, 0.26678557037173556, 0.2710953245477867, 0.27545442847281976, 0.2798365500046547, 0.2842976426886697, 0.28881437145910793, 0.293370011386788, 0.2979739126675913, 0.3026233227192478, 0.30732367175066777, 0.3120979633468789, 0.31688995712513107, 0.32173051107346273, 0.326663856883243, 0.33159424416446837, 0.3364950468720175, 0.3415333279130804, 0.34661475292392724, 0.3517127418318607, 0.35688299235467547, 0.3621440427176797, 0.3673892991567462, 0.372677665977458, 0.37800577294679133, 0.38337847067521447, 0.38884455286386715, 0.39429126577663687, 0.3997801253871756, 0.4052361848084863, 0.4108150717856079, 0.41633890651505784, 0.4219975668528291, 0.4276845936594108, 0.4334106181811094, 0.43915320246226974, 0.44501418126864944, 0.450802795741028, 0.456624479629624, 0.46237000294310915, 0.46826772069587763, 0.4742914192773828, 0.4802223397586776, 0.48618147828072134, 0.4921305869836214, 0.49814670502751923, 0.5042059554527377, 0.5102625028779154, 0.5163402005593566, 0.5223824905477819, 0.5285057167749336, 0.5345800168397938, 0.5407389733195586, 0.5469069671128857, 0.5531757483184384, 0.5593487819398696, 0.5654817598839644, 0.5716852105056031, 0.5778953844261773, 0.5840638445847247, 0.5902903098926722, 0.5965650028606669, 0.6027863423431804, 0.609009521743966, 0.6152279551098694, 0.6214515037463888, 0.6276383471113106, 0.6338599551668006, 0.6400744929539891, 0.6462808689572804, 0.652477942088787, 0.6586118565003605, 0.6647933862535165, 0.670958984161891, 0.6771446491473195, 0.6832710303908944, 0.6893912386239507, 0.6954814899231893, 0.7015528369567454, 0.7075274012156223, 0.7135660710147783, 0.7196507559346178, 0.7256237537729835, 0.7315712852458552, 0.7374364067732168, 0.7433350913393744, 0.749224026932795, 0.7550516574949594, 0.7608448133242038, 0.7666020690128292, 0.7723219910191518, 0.7779452025820318, 0.7835934597436948, 0.7891968022092508, 0.7947121124638076, 0.8002279516970326, 0.8057539732845638, 0.8111605836396167, 0.8165185377577457, 0.8217368659443167, 0.8270045362811093, 0.8322695363599263, 0.8374135584746836, 0.8425012101726052, 0.8474890444311107, 0.852465340697449, 0.8574105460689516, 0.8622564697528441, 0.867039449968231, 0.8716712580926085, 0.876335372617165, 0.8809119040788213, 0.8854338397950424, 0.8898818028557521, 0.8942920298541603, 0.8985854138847597, 0.9028232181460254, 0.9069651203406481, 0.9110317886893997, 0.915006137157096, 0.9189204978627837, 0.9227628367403746, 0.9265152523710277, 0.9301859922531912, 0.9337923410353884, 0.9372939682500068, 0.940693129633697, 0.9440277894998114, 0.9472749540544074, 0.9504125505570576, 0.9534843961187025, 0.9564909517835319, 0.9593754512319295, 0.9621682748277501, 0.9648500207687561, 0.9674589574347433, 0.9699407866531634, 0.9723619955022687, 0.974684516347738, 0.9768763228103673, 0.9790041783369919, 0.981096105162215, 0.9830119098790158, 0.9848292245708162, 0.9864814326418421, 0.9881078015737933, 0.98965612281177, 0.9910702836483971, 0.9923812922583808, 0.9936203883193754, 0.9947200248622788, 0.9956593063749153, 0.9965608682029866, 0.997397820416667, 0.9980805679916546, 0.998658936171119, 0.9990851761487259, 0.9994597841853717, 0.9998054466485018, 0.9999543243599678, 1.0, 0.9998814201081112, 0.9997269820828748, 0.9994647312374559, 0.9990949002709894, 0.9986177299685156, 0.998091409020263, 0.9973930023299045, 0.9965149322101794, 0.9956194296415425, 0.9946160882186523, 0.9934738995604756, 0.9922606494100026, 0.9909421817697068, 0.9895137319937543, 0.9879792209263251, 0.9864052490567541, 0.9846525651163976, 0.9827655295023601, 0.9808171468667551, 0.9787672008898223, 0.976595229650421, 0.9743466640614226, 0.9719919795168165, 0.969543228313366, 0.9669950401383629, 0.9643772927016713, 0.9616293008960015, 0.9588020459569566, 0.9558626289646813, 0.9528304783704238, 0.9496430464511293, 0.9464354448042881, 0.9431573969706027, 0.9397598261703535, 0.9362720692811045, 0.9326794323780343, 0.9290166390450428, 0.9252661447489186, 0.9214292359712608, 0.9175072024992961, 0.9135355752451907, 0.9094428571579373, 0.9052260762228768, 0.9009814797017021, 0.8966572182552539, 0.8922942915505783, 0.8878101939260898, 0.8832504998057646, 0.8786219871234292, 0.8739227625120275, 0.8691593758612718, 0.8643219461628456, 0.8593890866691608, 0.8544237408002586, 0.8493930311877217, 0.8442643687590995, 0.8391122029606347, 0.8338845340716837, 0.8286112952351241, 0.8232788192976126, 0.8178759236488957, 0.8124325583344367, 0.806911369977831, 0.8013647573193684, 0.7957666544865879, 0.7901428845179844, 0.7844451177643865, 0.778790313749254, 0.7729954681787498, 0.767165136986381, 0.7612371936533335, 0.7553471954798734, 0.7494347978053654, 0.7434738056982012, 0.7374815930817973, 0.7314703887635066, 0.7254194992128584, 0.7192561927167583, 0.7131669105393401, 0.7070505417295747, 0.700893660485528, 0.6947321697836811, 0.6885996580526863, 0.6823920304071563, 0.676170693303301, 0.6699584845836781, 0.6637123667341467, 0.6574247738507011, 0.6511700852830932, 0.644909409396861, 0.6386261932880614, 0.6323614949523858, 0.6261269525445718, 0.6198573296610781, 0.6135919232143306, 0.6072955004400397, 0.6010480962127337, 0.5948656806396727, 0.5886269801173586, 0.5824023943873332, 0.5761116666176, 0.5699298003803934, 0.5637616751988703, 0.5576093842796115, 0.5514749511062883, 0.5453471668218342, 0.5392559297249265, 0.5331769764284223, 0.5271346020985741, 0.5211181823194629, 0.515266518923305, 0.5092902075792068, 0.50319754916309, 0.4973195218477718, 0.49147304602884406, 0.4857206781496814, 0.47993551412086605, 0.4742041621088757, 0.46849987007554084, 0.462839445706238, 0.45721083931381884, 0.45164316824486217, 0.4461298763380398, 0.4406553793765569, 0.43523021604651674, 0.429813361971876, 0.4244955153204138, 0.41921212998729185, 0.4139982116610098, 0.40883642076378995, 0.40376240929082957, 0.39870472400817936, 0.39371039845093136, 0.3887691762688768, 0.3838882050030131, 0.37902093308331436, 0.3742689916265805, 0.36956659961124283, 0.36493732584355465, 0.36036981174457333, 0.35588887564320637, 0.3514451609856028, 0.34705976996787574, 0.3427502210001101, 0.3385078515845028, 0.3343043997286097, 0.3302021275481376, 0.3261647637506961, 0.3221987188061004, 0.31830161957980285, 0.31443466023243094, 0.3106824727045532, 0.3070937201393028, 0.30346763377411057, 0.29991706459094425, 0.2964260991493857, 0.293028238215336, 0.2896546696721693, 0.28641183634732864, 0.28324059670112356, 0.28014663493256997, 0.2771191022490305, 0.274196118184138, 0.2713106705014054, 0.2685002676713992, 0.2657489435627379, 0.26309011844482155, 0.2605101782729555, 0.2579978379316981, 0.25555920739606186, 0.2531730248633772, 0.25088386951708797, 0.24865341184540554, 0.24650954639975128, 0.24443654842022572, 0.24240535586078146, 0.24047741798714564, 0.23864724163453857, 0.23685320390880554, 0.23512946154185696, 0.23350457800082272, 0.23191651018362344, 0.2303437318365733, 0.22890309531181927, 0.22752844862345944, 0.22630111687280016, 0.22504712440721678, 0.22385731291438363, 0.22274173825215504, 0.2216930587789686, 0.220652292903824, 0.21974161273989956, 0.21884935355421425, 0.2180645763596761, 0.2173368631582083, 0.21669225053977972, 0.21607435339215558, 0.21555335211271412, 0.21504449679336807, 0.2145357730749473, 0.21414923333358182, 0.21381521944836548, 0.21356992429200333, 0.2133342149024571, 0.21315617284646515, 0.21302346846634113, 0.21294119335928915, 0.21284495668068878, 0.21286796936009156, 0.21300276850672284, 0.21310306813297028, 0.21324908718737573, 0.21338942619252294, 0.2136291356142764, 0.2139208741898335, 0.2142357170261432, 0.21458826979324572, 0.21501429306948938, 0.21543425816998318, 0.21583794763306377, 0.21633590108692322, 0.21686439454396894, 0.21744086726212683, 0.21802508950395605, 0.21856932908303972, 0.21921794863629648, 0.21988873308500798, 0.22061785235541811, 0.22132613445746935, 0.22207214295219532, 0.22282108600719056, 0.2235904425481362, 0.2243999345349849, 0.2252034216656253, 0.22602711764174535, 0.22686392602551364, 0.22771549312182254, 0.22849871779621891, 0.22938576513204406, 0.2303734904470537, 0.23125956696004685, 0.23215532407364253, 0.2329274888642193, 0.23385451298835438, 0.23487135366425468, 0.235781611141566, 0.23669379423474313, 0.23762765871574243, 0.23853711329748797, 0.23939839833556442, 0.24031089393509114, 0.24121716446246538, 0.24206621439619155, 0.24296347399327867, 0.2439040981577804, 0.24476990651717798, 0.24562566562607532, 0.24651502182303694, 0.24734166830086565, 0.24815745790962587, 0.24896095869379037, 0.2497508017268196, 0.2505256773235789, 0.25128433155702007, 0.251954458183125, 0.2526861046915831, 0.2533940797476924, 0.2541173956258931, 0.2547715329688234, 0.2553499919198915, 0.2559638909154264, 0.256550086466025, 0.2571871727868302, 0.25770671034136255, 0.25812002520272603, 0.2585995994323669, 0.259047836688026, 0.25950653584574196, 0.2598857353609547, 0.2602085472906563, 0.26053023633692945, 0.26081895536975963, 0.2611005773403028, 0.261318644226654, 0.26140640698511847, 0.2615704094722975, 0.26169480345767454, 0.2618903946592189, 0.26192211922890035, 0.2619550945561143, 0.2619156683943133, 0.2618435463374085, 0.26170087241726137, 0.2615651583655282, 0.2614236102177855, 0.2612086140277748, 0.26095717033375715, 0.26058178989951786, 0.2602667599408792, 0.2599668003460621, 0.25955902590580415, 0.2591122369664228, 0.25860779599003453, 0.25808473859389625, 0.2574473992131418, 0.2568526336291916, 0.2562133134757502, 0.2556012235469424, 0.25486578721585035, 0.25411009844815363, 0.25329491755873196, 0.25244203999308895, 0.2515408132699389, 0.25061357051411987, 0.24964256961404488, 0.24863912351792478, 0.24759715001246782, 0.2464562991165382, 0.24534561677621072, 0.244159509828102, 0.24297155976891746, 0.24174202544577797, 0.24058250217945898, 0.23925871767400786, 0.23787337756375446, 0.23648802165021815, 0.2350684039930374, 0.2335516306245993, 0.23207244426495555, 0.23060914668109228, 0.22905065043456896, 0.22746011929411117, 0.22577477457398898, 0.2241294690518438, 0.22250787668019475, 0.22078781062861239, 0.2190387595071274, 0.21723486371731762, 0.21543262774149155, 0.2135724724013146, 0.21171676763929814, 0.20983202499583076, 0.20790607815636064, 0.20596790026931788, 0.20401340291794745, 0.20202122009497292, 0.20000481200767906, 0.1980256410999979, 0.19595578701759564, 0.19386248063688938, 0.19175729674757785, 0.1896344360047065, 0.18742068168768738, 0.18527339552371785, 0.1831639140907533, 0.1809702636530242, 0.17876214219648548, 0.17657183235992574, 0.1743328390693515, 0.1720542921913383, 0.1697982851266812, 0.16753110441424482, 0.16530624207619188, 0.16301253238593014, 0.1606604357205638, 0.1583623830744321, 0.15605658087826788, 0.1537703341147424, 0.1514486090592275, 0.14903923829094193, 0.14672216729215118, 0.1443985061720048, 0.14215662353143207, 0.1398131144716795, 0.13743258007634862, 0.1350995971710937, 0.1327680629556995, 0.1304231355590163, 0.12809936118307005, 0.1257895218562895, 0.12347226597875548, 0.12116107119767935, 0.1189095175511071, 0.11660650132050919, 0.11424408599113456, 0.11197391734368867, 0.10971239532930112, 0.10753434976803665, 0.10528403183886376, 0.10301278520038509, 0.10079939453133462, 0.09860068501494945, 0.09639634508505128, 0.09423192466705528, 0.0920727181313614, 0.08994202921439665, 0.08782827461577801, 0.08574028473932051, 0.08366215163357418, 0.08157773931095627, 0.07954380656490107, 0.07760105012072158, 0.07559919361536455, 0.07362319749764784, 0.07160484871664566, 0.06969003367063814, 0.06782706060377647, 0.06595521122835238, 0.06410957272449873, 0.06227489314280445, 0.060485305247851534, 0.05869103769505321, 0.05695991725352186, 0.05525516703814413, 0.05365397640597833, 0.051994702419207804, 0.05033149033526264, 0.048742773914116626, 0.04718501434378989, 0.04568492724779472, 0.044186875873063455, 0.042690746714724295, 0.041263856451181385, 0.03986895944414306, 0.03851697580050537, 0.03718586415489163, 0.03593054988512096, 0.03466165510903752, 0.0334292161141941, 0.03212511360821715, 0.03097882859762363, 0.029902082075299947, 0.02881166417184943, 0.027754986039871525, 0.026763943418177928, 0.02577159026699591, 0.024747042881007975, 0.02383582737948232, 0.022956896373123613, 0.02214758930897912, 0.021329903332312945, 0.02057410274595746, 0.01982415814199708, 0.01911116184745098, 0.01837426074938662, 0.017741978712223834, 0.01716348400026276, 0.016594194860342307, 0.016059184374750714, 0.015574188215696902, 0.015105511261942822, 0.014666448883027343, 0.014267924220398832, 0.013903422513076765, 0.013630627616780223, 0.013326071679772268, 0.013068520544910277, 0.012834812444576635, 0.01263668703402195, 0.012410176919100393, 0.01228896307292015, 0.012250293081462398, 0.012182029179869812, 0.01214628532927071, 0.012068696514933782, 0.012105458003920135, 0.012263590806512079, 0.012341518497328254, 0.01245131815515513, 0.012486794803590256, 0.01267113632315719, 0.012960636283250608, 0.01318180064293471, 0.013431201423095104, 0.013726576514526415, 0.014028046780757052, 0.01433041283803569, 0.014688874822248453, 0.015071519145829975, 0.015388272521602011, 0.015828995923394974, 0.016339930153936123, 0.016809245666128642, 0.017299303228807537, 0.017859704925716403, 0.018383590480701456, 0.01884274115634385, 0.019421048271557707, 0.020014862011196646, 0.020663531536849595, 0.021282840768078497, 0.021879728126982058, 0.022537551303184723, 0.02320894680310744, 0.02389620996400378, 0.024593357634907463, 0.025279378890806534, 0.026004192540535195, 0.026739259147431887, 0.02758167178973947, 0.028323837507070113, 0.02910688518330077, 0.029873561007654068, 0.03065381932316378, 0.03136468121227607, 0.03217848726281745, 0.03299750949649125, 0.03382128585056547, 0.03464933386158647, 0.035489053564983, 0.03632312869477673, 0.03711823582820489, 0.03796336915368441, 0.038808092102955716, 0.03964686658247255, 0.04049057862080427, 0.04142482066190631, 0.04225325049038265, 0.04308449128021796, 0.04392529660322924, 0.044757786027236034, 0.04556921511342128, 0.04640335747978887, 0.04723433242236962, 0.04802716209543556, 0.04885393348120359, 0.04970507747944645, 0.05051300930373533, 0.051314705114706656, 0.0520542034861063, 0.05284847095377253, 0.05371840325462767, 0.05447905691625941, 0.055233024986551055, 0.05592936406158457, 0.056673627654611626, 0.05739795322029965, 0.058118803293674, 0.05882649476392023, 0.05948651349379533, 0.060171372190890235, 0.06086925981108251, 0.06151855247814658, 0.06215344558375216, 0.06280258038396473, 0.06340403021924013, 0.06397855971093842, 0.06455361411080378, 0.06511310033048022, 0.06564609963576358, 0.06617464361154322, 0.06669645686583846, 0.06718888763599472, 0.06766414636550114, 0.06809030551143289, 0.06853425658706143, 0.06895833656112109, 0.06936252408117947, 0.06974678230071124, 0.07011106166553027, 0.07045530247676784, 0.07083210752349972, 0.07112940425327899, 0.07140940220952095, 0.07160839629620187, 0.07186033789950473, 0.07217699071494686, 0.0723737094991609, 0.0725533997239245, 0.07258907171903088, 0.07274901608572804, 0.07294650928063363, 0.07304778651118, 0.07312815589996056, 0.07312704236024387, 0.07317324949701655, 0.07326363264751663, 0.07325310063714016, 0.07322308251696094, 0.0731286714992399, 0.07306495951724443, 0.07296312255953255, 0.07285706638266534, 0.07272839132344087, 0.07265649908260809, 0.0724737571255642, 0.07222389920701204, 0.07201301078905929, 0.07178166699290775, 0.07148003580983577, 0.07121472346809721, 0.07092940116910808, 0.07061908338835708, 0.07028745293896925, 0.06997715292190193, 0.06959905778169646, 0.06921924304312, 0.06880419184987167, 0.06837269433826118, 0.06793528258167138, 0.06746959020437122, 0.06695127193490533, 0.0664587405485973, 0.06596951637469778, 0.06543918427242643, 0.06489303999453899, 0.06436552914477754, 0.06378408163129118, 0.06313149412804307, 0.06253095661288685, 0.06191399517751276, 0.06126799369429195, 0.060621487102192825, 0.06003842976916368, 0.059351435707727204, 0.05865452288821482, 0.057876519673857756, 0.05716861842757992, 0.05645468073753044, 0.05571857355523956, 0.05497027983648574, 0.05423932060057112, 0.05346463448221971, 0.05265993648341601, 0.05187030838763504, 0.05107113650885045, 0.05030504380888241, 0.04948291164156316, 0.04867084567782005, 0.04783537895996311, 0.0469953680951865, 0.0461298231353351, 0.04528366854846066, 0.04440845467338442, 0.043554954022927556, 0.042695522693828675, 0.0419176520282397, 0.04103711340451173, 0.04011773288862484, 0.039243356567356835, 0.03836719113026329, 0.037500075864258395, 0.036619936429939326, 0.03572377213524249, 0.03484545658172489, 0.03396660102515699, 0.03307448194810727, 0.0321975447510337, 0.03132066379286668, 0.030444389952254576, 0.02956925936002362, 0.028801134418052203, 0.027916524264506297, 0.027053663687289294, 0.0261841901150806, 0.02532340584286765, 0.0245210564523012, 0.023670539186650602, 0.022801932438363197, 0.021976379479696877, 0.021159278337653294, 0.02034271588690589, 0.01954353885965528, 0.01883940904905038, 0.018045734675071205, 0.017265526491735395, 0.01657209087927406, 0.01580830592027395, 0.01506641372107055, 0.014334483226308526, 0.013618161531848248, 0.012932759029879174, 0.012244308448485472, 0.011579137716279383, 0.010920157638725737, 0.01027652176190084, 0.009658598948198685, 0.009043908370142135, 0.008521271547331495, 0.007928260580214754, 0.007355226864221095, 0.006864854676036326, 0.006322349080763857, 0.0057810995580734, 0.005285209466389464, 0.004809215396180158, 0.0043660352207926705, 0.003927512838554243, 0.003603951328501414, 0.0031936413656129562, 0.0028086614356911746, 0.0024746131316424522, 0.0021349125767952614, 0.0018518528482207332, 0.0015576869837217312, 0.0012893675660191294, 0.0010437010591632918, 0.0008258575234679819, 0.0006903442622841029, 0.0005137671346853553, 0.0003645304407569585, 0.00023423121803912633, 0.00013928748377364079, 5.95459303678865e-05, 1.728553110077523e-05, 0.0, 5.5189617907180083e-05, 8.219372124726958e-05, 0.00015041093526900216, 0.00023166293851296826, 0.0003414129462672137, 0.0005532459244572426, 0.0007102743239441436, 0.0008864991229281394, 0.0011093448199179054, 0.001362779381765377, 0.001722921092123177, 0.002027192859194049, 0.002292059347623572, 0.002673652445807178, 0.0030842297644139605, 0.0035660881969499696, 0.004029812632861879, 0.004538603030200165, 0.005064339766859595, 0.0056225279376200385, 0.006213041459357822, 0.006835806854979909, 0.007540832852168167, 0.008221730962315233, 0.00893771740826044, 0.009664761858198229, 0.01045300925329524, 0.011313743667293779, 0.012163022665564509, 0.013047643969023621, 0.013998997708068358, 0.014949729767130077, 0.0159265738536919, 0.01695161651779128, 0.018012157140002472, 0.019073862819406453, 0.020209479575070723, 0.021341636341405033, 0.022549024013134494, 0.02378832700438041, 0.025139123746824178, 0.02643394298980834, 0.02776143301102199, 0.02913260721329022, 0.030541093582594783, 0.03195522695921859, 0.033442172367120736, 0.03503301952242852, 0.03658243415021735, 0.03817164029203274, 0.039771359628159565, 0.04144293888067281, 0.04307817981377913, 0.04483395646104364, 0.04662315358559272, 0.048517561619595764, 0.05036659996898523, 0.0521548390197329, 0.05409500920079685, 0.05606871850602877, 0.058071472135958674, 0.06011515754974775, 0.0622757955696272, 0.06438036994863232, 0.06652593876155609, 0.06873600157370835, 0.07095998279201379, 0.07321259172763445, 0.07552150803656907, 0.07787088351161531, 0.08018684808601013, 0.08262609159709457, 0.08511712493540698, 0.08762686781757503, 0.0901744673763938, 0.09273123653616881, 0.09535902431631027, 0.09805276192158974, 0.10075127525035843, 0.10348919403128465, 0.1062192067837204, 0.10904219022509865, 0.11186264805630794, 0.11476501199936298, 0.1177029409837701, 0.12067443885227427, 0.12368565532861399, 0.12684455427710792, 0.12991635716993755, 0.13303221854752917, 0.13611517298182502, 0.1393270832929419, 0.14263245381461057, 0.1459138602292953, 0.14923684417868013, 0.15250363252405488, 0.1559211187766403, 0.15941329547913452, 0.1628966859344113, 0.16641844963722235, 0.17002341348616123, 0.17361641043652387, 0.17725039379835816, 0.18092499409638763, 0.18457403022020483, 0.18833718163945815, 0.19213629147717118, 0.1959242035782121, 0.19980191435060105, 0.20378988895970135, 0.2077262169720678, 0.2117016159361666, 0.21566312726248826, 0.2197224674777063, 0.2238012708181345, 0.22793328459038642, 0.23209992022209217, 0.23635402608054254, 0.2405837229375957, 0.24479869422483688, 0.2491105364427088, 0.2534565694038174, 0.2578578973068258, 0.2622697100557769, 0.26665103152548847, 0.2711416004392548, 0.275663283885674, 0.28025055667190724, 0.2848307792645739, 0.2894471593870255, 0.29409384521939924, 0.29877367401678834, 0.30352846068229916, 0.30826826569424265, 0.3129609219333485, 0.31777931752683103, 0.3226262251547832, 0.3275569437463669, 0.3324538082662574, 0.33735576295112796, 0.34231819208541825, 0.34730934612283515, 0.3522919681716908, 0.3573440498890956, 0.3624268309404504, 0.3675289620660012, 0.3726564685831464, 0.3778406575748431, 0.3830139941056922, 0.388166074446527, 0.3933970384513232, 0.39865016918236734, 0.4039383546219051, 0.4092332667067849, 0.4146080414601155, 0.4199389600710527, 0.42529399357708186, 0.430682645034036, 0.43608152072964074, 0.4414389127747745, 0.44688820438188903, 0.4523536720269077, 0.45781907308275677, 0.4633175300296319, 0.46880877811077487, 0.4743372018060034, 0.47987742624151, 0.485415950705153, 0.49098038217992174, 0.4965705024748763, 0.5021523193003733, 0.5077440666894855, 0.5133161431691796, 0.5189294818729935, 0.5244885569819242, 0.5301216740536401, 0.5357566547346069, 0.541427620682589, 0.5470615513600398, 0.552724950185018, 0.558361137455178, 0.5640005314464631, 0.5696790249059231, 0.5753172318186711, 0.5808708513889471, 0.5865233840651881, 0.5921707889449276, 0.5978625581955306, 0.6034916850110327, 0.6090692740092823, 0.6146950081927922, 0.6203117174606586, 0.6259002385638411, 0.6314989985188676, 0.6370774839782105, 0.6426517941625187, 0.6482118346475261, 0.6538200759254458, 0.6593413358671553, 0.664728389674903, 0.6702374634239147, 0.6757239545145127, 0.6812191182862355, 0.686655310519881, 0.6921220407340679, 0.6975064446277983, 0.7028699046595531, 0.7082215943965696, 0.7135377761195396, 0.718761119231217, 0.7240358421510193, 0.729279621336973, 0.7345548859685742, 0.7397264180559264, 0.7448338680884293, 0.7499486373718581, 0.7550288748037995, 0.7599997823351323, 0.765017093781636, 0.770053109265711, 0.7749785472873346, 0.7798644784977201, 0.7847045234394778, 0.7895087697286228, 0.7942198407848944, 0.7989430691958734, 0.8036182137568831, 0.8082551393379764, 0.8128307266837864, 0.8173672035041823, 0.8218412831120712, 0.8262645128578995, 0.8305832086376299, 0.8349083505154239, 0.8392187655375458, 0.8434242518328096, 0.8475739832226018, 0.8516721875503305, 0.8557066280106502, 0.8595639921508945, 0.8634952088702684, 0.8673590761038286, 0.8711871006568503, 0.8749118815006951, 0.8785467934322057, 0.8821416045992378, 0.8856676136044428, 0.8890979680551337, 0.8924880976574588, 0.895824678651222, 0.8990680688535275, 0.9022395676759477, 0.9054069478609608, 0.9084238876623397, 0.9113679846458397, 0.9142435349720843, 0.9170461798845059, 0.9198010878893446, 0.9224511441767141, 0.9250185257062187, 0.927518803126048, 0.9299414763455889, 0.9322249485727565, 0.9344970491182092, 0.9367115668537055, 0.9388121208742718, 0.9408294600414194, 0.9426786969931149, 0.9445384361500442, 0.9463769168233144, 0.9480486624049558, 0.9496347044940122, 0.9511028967626239, 0.9525199167163438, 0.9538873957324756, 0.9551211111396586, 0.9562675464130919, 0.957284012787298, 0.9582595955692967, 0.9591150202493282, 0.959911784048048, 0.9606155204628569, 0.9612658521446162, 0.9617788701686203, 0.9622434924734893, 0.9625698513792091, 0.9628075338116756, 0.9628690805127305, 0.9629388066805641, 0.9629108882906614, 0.9627912661478908, 0.9625771385169768, 0.9622477481934012, 0.9618481854520194, 0.9613696118137636, 0.9607788601935526, 0.960095021026586, 0.959381554103583, 0.9585043143070147, 0.9575225003790688, 0.9564694668665896, 0.9553263539865497, 0.9540220773760678, 0.95270790523497, 0.9513683381708112, 0.9498585078413402, 0.9482205868700725, 0.9465387068413892, 0.9447663366491934, 0.9428724239599782, 0.9409247261831478, 0.9389154078622768, 0.9367837020247852, 0.9345646804293525, 0.9322352096416922, 0.9298462769652915, 0.9274679014533856, 0.9248937031543176, 0.9222397287607935, 0.9193848735822105, 0.916586874889878, 0.9137659116561581, 0.9107888767123542, 0.9077317658153551, 0.9046189922813526, 0.9014009033218219, 0.8980404711247701, 0.8946783194544706, 0.8912372710364387, 0.887697518992621, 0.8841051079740412, 0.8804653241722808, 0.8767179592332853, 0.8728986340930195, 0.8689715876504468, 0.8650163378411408, 0.860977246324453, 0.8568837503618303, 0.8527216917128637, 0.8485373391588076, 0.8442369629803254, 0.8398064804787827, 0.8353925571839854, 0.8309153159074799, 0.8264738684150077, 0.821862645686492, 0.8171668691153905, 0.8124545204515773, 0.8076890820183905, 0.8028559270394946, 0.7979898599449784, 0.7931023969338802, 0.7881333258294698, 0.783118301761112, 0.7780084637713597, 0.772911426725006, 0.7678298416728417, 0.7626365967434157, 0.7574049900320067, 0.7520966860343326, 0.7467968985747272, 0.7414917725248757, 0.7361157218542743, 0.7307077284042358, 0.7251585384126904, 0.7197047339136493, 0.7142643269081107, 0.7087388387495915, 0.7031865586150863, 0.6975460528641166, 0.69195346612576, 0.6863779134891377, 0.6807320038186615, 0.6750676923490005, 0.6694656986169184, 0.6637597128576906, 0.6580237635664635, 0.6523036643865561, 0.646575576104931, 0.6407933951763864, 0.6350592495924863, 0.6292947342072416, 0.6235520055611625, 0.6178047637939182, 0.6121181063096854, 0.6063594788465592, 0.6005369544808653, 0.5947973860136342, 0.5890610807707475, 0.5833088216666569, 0.577587210161543, 0.5719152239791357, 0.5662051461267863, 0.5605086276703359, 0.5547717933061768, 0.5491136618291338, 0.543530813536255, 0.5378962929167956, 0.5322835075763639, 0.5265909828488348, 0.521038355016725, 0.5155896788707581, 0.5100678207594316, 0.5045744008133951, 0.49904477271955705, 0.49362012471910865, 0.48833702521410044, 0.48295638340369074, 0.47761375053696326, 0.47226238435973433, 0.4670037970696985, 0.4617458196104591, 0.45656802830624055, 0.45142798498155834, 0.44626656133819387, 0.44121394616620896, 0.43628148833255576, 0.43129736571004496, 0.4263597927579619, 0.421448619331882, 0.4166095542586901, 0.4118501840976277, 0.4071043656523062, 0.40241049351795577, 0.3976823985388296, 0.39310561650643244, 0.3885491406665648, 0.38407599696917893, 0.37965326005976957, 0.3752955741231261, 0.37097630498887374, 0.3667702245170626, 0.36255519558801, 0.35840072037365217, 0.35427828308823, 0.35024992920349723, 0.3463002731267909, 0.34239077466219353, 0.3385438533053311, 0.33474677425545674, 0.33102795132565266, 0.32733533834940964, 0.32374781519685847, 0.32022222806142575, 0.31680142239027465, 0.31339643852789917, 0.31004977969670405, 0.30677842143305456, 0.3035731809388899, 0.30044743290077947, 0.2973733594333562, 0.29430875160924014, 0.29137683485086036, 0.28850910824135956, 0.2857165708771214, 0.2829772149979137, 0.28032488963453633, 0.27771496986361016, 0.27517249505469676, 0.27271054120439014, 0.27030099278311687, 0.26790134432807083, 0.2656345259051645, 0.2634317424964757, 0.26133793611623346, 0.25925800803627014, 0.25718173112979725, 0.255243116968966, 0.25336702040158804, 0.25164570483594767, 0.24988318278819174, 0.24820419449254916, 0.24657427109198563, 0.24501125854131864, 0.24350104718682153, 0.24207073098910917, 0.24066436055055743, 0.23936519170525325, 0.23812577401563564, 0.23693515949732719, 0.23581529689135075, 0.2347690431042971, 0.23376236143412965, 0.23281345722876248, 0.23186111107901647, 0.23103345039299145, 0.2303266224713071, 0.22959479635841112, 0.22891862973276264, 0.22820764331209, 0.22765129466043577, 0.227190156019906, 0.22672319746344374, 0.22630615138708804, 0.22598036179870323, 0.22565540494157088, 0.2253433866334877, 0.22512148691778175, 0.22494490232665834, 0.22486804333130309, 0.22477239223534706, 0.22467237131991316, 0.2246729734953093, 0.2247136556683598, 0.22475661012251605, 0.22487927551979142, 0.2251108080406333, 0.2252937028392984, 0.2255144000681542, 0.22569249247789006, 0.22599460604808744, 0.2263338644713152, 0.2266927768622162, 0.22708520351406986, 0.2274990782586658, 0.227939723338034, 0.22834558314228598, 0.22884444504668885, 0.2294321149293718, 0.22996242126006697, 0.23051568403640624, 0.23108536350282327, 0.23168139167842075, 0.23229101019526507, 0.23292420411205658, 0.2335735305978067, 0.2342035835447159, 0.23488598923361886, 0.23562122279033407, 0.23631878363020706, 0.23702756598380856, 0.23771466571968072, 0.23844599755869433, 0.23922769119979204, 0.2399635485598251, 0.24070549876637526, 0.24138368454774514, 0.24214235410581983, 0.24294135335507738, 0.2436903446804764, 0.24443837980401836, 0.24517377554241343, 0.24591779578811274, 0.24670163052346616, 0.2474290560272075, 0.2481519950608885, 0.2488058688052619, 0.2495237533679561, 0.25022699657239306, 0.2509204751249121, 0.25160033042044105, 0.2522816230251105, 0.2529299960266394, 0.25358443320957724, 0.2541992279702833, 0.2547983968841783, 0.2553492810482636, 0.25591805577705706, 0.25653482768545677, 0.25705328831275726, 0.25755369849487736, 0.25800319601754457, 0.2584677916646, 0.2589010907597055, 0.25931908642286927, 0.25971165544101993, 0.26002543657543936, 0.2603717558434662, 0.26079301195016685, 0.2610649908465255, 0.2613120154821178, 0.261424988708868, 0.2616324682128629, 0.2618400379384088, 0.261974870101559, 0.262077380482424, 0.2621550888218939, 0.26219081841560204, 0.2621935413215092, 0.2621628309709421, 0.26209827799663504, 0.2619678887795835, 0.26183849009509447, 0.2616670894039227, 0.26146480591654875, 0.26122531864368315, 0.2609986060699377, 0.26067820021791216, 0.26027842804100865, 0.2598940090679073, 0.2594715695548726, 0.2590242529336779, 0.25852403549639963, 0.25791536278360727, 0.25734931220076657, 0.2567416955013093, 0.25623784475874084, 0.2555301998416212, 0.254764108031224, 0.25399476658001136, 0.2531903451443101, 0.2523346733822004, 0.2514610543972327, 0.25054267286282855, 0.2495962899225162, 0.24861256737728996, 0.24759688161343582, 0.24653817330147942, 0.2453901714879849, 0.2442650330585819, 0.24310066238707922, 0.24192667270976137, 0.24068208625310558, 0.23943336568151768, 0.23811366674841558, 0.23676073355099117, 0.23534046641208242, 0.23392584981277142, 0.2324976964165523, 0.23101175447637784, 0.22949349241058134, 0.227945935472349, 0.22636390408925827, 0.22476676134302717, 0.2231213599628214, 0.22144686580960288, 0.21976472630950422, 0.21803056157078013, 0.21615913620074487, 0.2143859730059, 0.21258064870360102, 0.21079978126632798, 0.20892701983735562, 0.20701578737990167, 0.2050947781691385, 0.20314912436721508, 0.20122704787065473, 0.1992285639481662, 0.1971394375058315, 0.19511129837120494, 0.19306053771645493, 0.1910488173217051, 0.18894839709007463, 0.18672659686890855, 0.18460793636058898, 0.1824684028809134, 0.18038580852196703, 0.17819912123394452, 0.1759446538344316, 0.17374063614938945, 0.1715223221040231, 0.16930663297934387, 0.16706105418053696, 0.1648395612855823, 0.16257025416459525, 0.16029450951966345, 0.15796289909909575, 0.15568245870338956, 0.15337624349714662, 0.15108453922052767, 0.14878660219773945, 0.14652311278624353, 0.1442112063548436, 0.14188815983410988, 0.1395771176903939, 0.1372663752303292, 0.13501471389441813, 0.13269977411735726, 0.13027239837074372, 0.12798495259483017, 0.12569771406565705, 0.12350427571681784, 0.12120998256431995, 0.11890140867978725, 0.11662942630139266, 0.11436651393635668, 0.1121107663211109, 0.1098685150819723, 0.10769005009318335, 0.10546412809359368, 0.10325378900917272, 0.10104092637900225, 0.09886511709026928, 0.0967181487291213, 0.0945726271707673, 0.09244474393397459, 0.09032712424573498, 0.08823711577628413, 0.08606586807886306, 0.08402682426772048, 0.08200228825081682, 0.08003584778493174, 0.07803925366402463, 0.07606095838760661, 0.07410739499227341, 0.0721762450927182, 0.07033149495110035, 0.06843949126333616, 0.06652038585509393, 0.06469195138325261, 0.06288899349032416, 0.06105161926113511, 0.05930927435004727, 0.05760674664295099, 0.05591150883801007, 0.05424323050042503, 0.0527211947936162, 0.05109411826335755, 0.04944486758907422, 0.04789630051512592, 0.04637963176896975, 0.04486614987512356, 0.04341770896614523, 0.04205033866156403, 0.0406581166092528, 0.03920584966256231, 0.03789514305302479, 0.03661390552799154, 0.03545774202650482, 0.03422576788638723, 0.03295436302384946, 0.03180573110699569, 0.030689390123471837, 0.029682181625152564, 0.028622119654313848, 0.027599879900344876, 0.02661516154397562, 0.025667694587506222, 0.02467559647777413, 0.023812244989574384, 0.0229966945715195, 0.02219581190188383, 0.0214286790373929, 0.020703400655504023, 0.020003336092638165, 0.019369547549469627, 0.01873484948304495, 0.018136598434031165, 0.017563963837908758, 0.017039054205146047, 0.016588626886633887, 0.01612848022704729, 0.01570511631107932, 0.015286392742179146, 0.014938997401580074, 0.01465667322607176, 0.014372006970877012, 0.01412214214670718, 0.013830210493746857, 0.013658131800348305, 0.013496690820953266, 0.013385245080802091, 0.013302083771715467, 0.013257914848720404, 0.013230435220828311, 0.013295332328916656, 0.013318083016344297, 0.013373257653969474, 0.013396926621877225, 0.013522785658677535, 0.013675406524388239, 0.013854627496887921, 0.014060237251454376, 0.014344649103523073, 0.01459556469435186, 0.01486966582723447, 0.01517735741148392, 0.015511636323515909, 0.01585072033905022, 0.016238705802099265, 0.01667368558395506, 0.017104742424773427, 0.017559373076176058, 0.018052642923459365, 0.018550227542498757, 0.019075364919366115, 0.019616021882470542, 0.020177616918871596, 0.02076195168987563, 0.0213626178374957, 0.021910837249427717, 0.022557018945015793, 0.02321630511768573, 0.023933280848611987, 0.02461250512204194, 0.02531189507345341, 0.026019551639037145, 0.026741006760134453, 0.027414952908558873, 0.028169460039578344, 0.02893744319683734, 0.029707471292679474, 0.030485486460969293, 0.0313000787203584, 0.032089230165540134, 0.03287357706023528, 0.033680401874975736, 0.03449341681104345, 0.03533571448988141, 0.03615627507213777, 0.03701146659970215, 0.03783886221799267, 0.03867190984465681, 0.039501683918254316, 0.04034400440209998, 0.04119122345026185, 0.04203690430377695, 0.04288335187896423, 0.043700792459804814, 0.044550046999997095, 0.04541980539082034, 0.046259168600673375, 0.04709565829614037, 0.047960173041992925