0.043133025240110104, 0.042343844653030566, 0.04155006611545183, 0.04086547082922172, 0.040208946899169415, 0.039590415951862565, 0.0390396924296254, 0.03846199715781085, 0.03790464686433424, 0.03736810842837668, 0.036842202816466725, 0.03638601686373521, 0.03587649562940966, 0.035379643223184036, 0.034783388918388926, 0.0343214386549325, 0.033819405659953505, 0.03336843098558946, 0.03291824168075681, 0.0324731475183595, 0.03202635136347189, 0.03163990378497954, 0.03119333500171797, 0.03075489226425962, 0.030203746961130415, 0.029797999902704594, 0.029533804612946604, 0.02911704058952171, 0.0287134612382912, 0.02831253956465631, 0.027937233160420686, 0.02748249291652493, 0.027145764939360488, 0.026817870128886295, 0.026549875988148404, 0.026236761188424173, 0.02583161717644243, 0.025562354321409502, 0.02530304486648177, 0.02509425739671613, 0.02485386016389172, 0.02472201343888512, 0.024502369169201604, 0.024305170995506466, 0.02406612561201999, 0.023921569052372832, 0.023806281917542332, 0.02369803931384073, 0.02360997125644512, 0.02349255347277177, 0.02345225759316312, 0.023348451698597165, 0.02335620232330627, 0.02337925613976343, 0.023497324006420336, 0.0235448362134987, 0.023672606114558268, 0.023759694007738745, 0.02387385320010732, 0.02387236154274192, 0.024058280723253028, 0.024312856544214206, 0.024531113371250628, 0.02477308980071322, 0.025082094202033074, 0.025367683531034024, 0.02566309517804291, 0.026006337652978162, 0.02637647259099348, 0.026702516918441763, 0.027136357745443367, 0.027636776108585167, 0.028113708474036214, 0.028618553459626467, 0.02911964974928207, 0.02968561624381177, 0.030289610038516754, 0.030909543575736848, 0.03155867406380404, 0.0321875955526281, 0.03290289013282664, 0.03358897894475452, 0.03436797173087927, 0.035173210665156156, 0.036130626629504475, 0.036976025946370915, 0.03786860258452302, 0.038785509512389946, 0.039739329023162115, 0.04065867120415116, 0.041695063046617215, 0.04278558144255254, 0.0438853552434847, 0.045020243117954724, 0.04610506925813925, 0.047322090615658584, 0.04863109192950702, 0.049904259418954905, 0.05121418572385476, 0.05247569740235115, 0.053871045390621285, 0.055338615315143905, 0.056796047304890095, 0.05829061719240485, 0.059819267668541794, 0.06139004232330211, 0.0629884591685946, 0.06463767422809995, 0.06632542517720896, 0.06800937620481434, 0.06978087021161744, 0.07166453256523925, 0.07350186620655523, 0.0753819742067427, 0.07724418484492078, 0.0792172759264327, 0.08129012943824226, 0.08333434014728348, 0.08542194859542741, 0.08750290695485327, 0.0896831900215736, 0.0918252560986285, 0.09409613772674838, 0.09640335727018731, 0.09877627071450411, 0.10115497299109671, 0.10356311429998387, 0.10602373117741098, 0.1085244195974337, 0.11105832411556689, 0.11364081606218046, 0.11641688614079018, 0.119060798477265, 0.1217539084252363, 0.12439525183203415, 0.12719598737311058, 0.12992664696009498, 0.1328221128095615, 0.13575162932417087, 0.13886923158449072, 0.1418496595956413, 0.14468577270887317, 0.14777844500642434, 0.15090351920842582, 0.154086742668913, 0.15727571131717835, 0.1605788577147948, 0.16382963322680633, 0.16712087148638952, 0.17041276238238925, 0.1737880790396889, 0.17727827861661324, 0.18071634802759223, 0.18419470714572586, 0.18762327847523522, 0.19119061563004747, 0.19487956917752025, 0.19850053209167792, 0.2021586919314492, 0.2058495311218794, 0.209579716510187, 0.21336197820216724, 0.2171576046762765, 0.22098687837071765, 0.2247669066016213, 0.22867112807887358, 0.23262669779283915, 0.23658039422216567, 0.2405614932777903, 0.24458376634548587, 0.24861638374610176, 0.25263289463297867, 0.2567235686557858, 0.2608371367916651, 0.265008884472063, 0.269162610048114, 0.27326515349709873, 0.2774748831209382, 0.2817024847895903, 0.2860190357814558, 0.2902726633896578, 0.29450809303352987, 0.2988076861158509, 0.30312407699891303, 0.30747797049795395, 0.3118231767561943, 0.31618423814766006, 0.32056020607701285, 0.32495012587552446, 0.32927105920240174, 0.33369635820748894, 0.3382742393219788, 0.3426936372755821, 0.3471269543993241, 0.3514976782077221, 0.355963379717916, 0.36033422207908244, 0.36482155529150073, 0.369306473410631, 0.37378174011091614, 0.37826228582778854, 0.3827108299681505, 0.3871876267723763, 0.39165848122658875, 0.3961266232920522, 0.40058403188251035, 0.4051234888649233, 0.40955486184002776, 0.4140006162366589, 0.4184213455144198, 0.4228366433699708, 0.42728412044038405, 0.4316788547188247, 0.436083520606766, 0.4404584343054448, 0.4448229561204622, 0.4490897541732494, 0.45343901575465484, 0.45772873596264224, 0.4620413965235127, 0.4663297174093234, 0.47071425714173126, 0.47493663936026337, 0.4791287375186334, 0.4833115251043572, 0.4874706707765032, 0.4915832588204688, 0.49569328692043024, 0.4997811655305145, 0.5038305239349257, 0.5078485983513543, 0.5118555406589418, 0.5158046658326813, 0.519602454468379, 0.5234976755107323, 0.5273499335189161, 0.5311517773288487, 0.5349179571486458, 0.5387144074193305, 0.5423814709078884, 0.5460070971186209, 0.5495009544010881, 0.5530513158553646, 0.5566906291580214, 0.5601228602902169, 0.5635118732601783, 0.566699145529423, 0.5700165465069753, 0.5732699572924573, 0.5764743339014785, 0.5796209536857071, 0.5828306848247462, 0.5858454439062325, 0.5888080766191831, 0.5917170882518401, 0.594571053755363, 0.597404255785329, 0.6001396049316619, 0.6027966245000879, 0.6054193166404634, 0.6079810060797366, 0.6104484812101114, 0.6128888737561319, 0.6151384705785347, 0.6174618141640811, 0.6197106671028144, 0.6219494847921845, 0.6240420305015834, 0.6260214902193201, 0.6279782985961062, 0.6298613492072554, 0.6317488627177542, 0.6334738582587988, 0.6350111634463655, 0.6366099440621261, 0.6381302129439056, 0.6396896885801502, 0.6410382884003732, 0.6422901227691572, 0.6434972164127859, 0.6446291098669726, 0.6456779903153362, 0.6466583733330957, 0.647504199345928, 0.6483362291475026, 0.6490865505529547, 0.6498300288330716, 0.6504074936059675, 0.6509715858069963, 0.6513852368612595, 0.6517237358279869, 0.6519361503046041, 0.6521276777898631, 0.6521422788326546, 0.6521842996563395, 0.6521396953117361, 0.6519591431411716, 0.6517492745809018, 0.6515870002772505, 0.6511851554172556, 0.6507046672987681, 0.6501237520382486, 0.6494875604012652, 0.6488489626606518, 0.6480412037113286, 0.6471570394631752, 0.6460462105008534, 0.6450265957433562, 0.6438531127321278, 0.6426707324240551, 0.6414002822777289, 0.6401643523320859, 0.6387065494132315, 0.6370787112432801, 0.6354780372267371, 0.6337951293408647, 0.6321343308920566, 0.6302767801675482, 0.6282957029321503, 0.6262972351477468, 0.6242224722240661, 0.6220898122223683, 0.6198619542747149, 0.617596229012715, 0.6152173357798246, 0.6127679529541258, 0.610144997998732, 0.6075686173114446, 0.6049526397997469, 0.602222587151321, 0.5994218773848589, 0.5965657122584986, 0.5936247240000802, 0.5906095982690244, 0.5875363406084285, 0.584397391625663, 0.581154495459687, 0.5778919887384222, 0.5746642885163095, 0.5712604941138916, 0.5677999161166714, 0.5641974860562579, 0.5606356612434115, 0.5570281779768294, 0.5533461175555222, 0.5496077194601797, 0.5457607705215427, 0.5419202098739933, 0.5381096110390037, 0.534148765060176, 0.5301404720287077, 0.5260856448234706, 0.5219852454329345, 0.5177476113694757, 0.5135708494779798, 0.5093464607712684, 0.5050798792773392, 0.5007653366983811, 0.49644444868247783, 0.4920431073922888, 0.487605107935428, 0.48308544186319674, 0.47858397096764094, 0.47413278323119, 0.4695516999078852, 0.46494356046782104, 0.46029150366761223, 0.4556344403769214, 0.45097731169770977, 0.4462683195811442, 0.44153824891864585, 0.436688403572585, 0.43193214632522114, 0.4271419548529426, 0.42234259299308496, 0.4175233754090039, 0.41277539248864803, 0.40791108518862484, 0.4030305574841474, 0.3981500572918078, 0.3932622847726896, 0.3883934131984853, 0.38349163792669805, 0.37845229415641773, 0.3735644789353677, 0.36866915754054985, 0.3638648216623125, 0.3589489898097222, 0.353912777380093, 0.34902265493345824, 0.344132319151542, 0.33942934657698004, 0.3345217481333846, 0.32963428759119345, 0.32475982818511406, 0.3199031284901604, 0.3150897441035949, 0.31026731207365965, 0.3053627403483261, 0.30059645565514465, 0.29584694094649727, 0.2911906647938869, 0.28647004673242604, 0.28160049630189016, 0.27695429622503087, 0.27232586101561385, 0.2678138074488234, 0.2632157355447663, 0.25865824260271125, 0.2541197962720727, 0.24961422890150653, 0.24521034514537277, 0.24076521919315597, 0.23624951250240037, 0.23189869316364722, 0.22745079396615261, 0.2231877503783705, 0.21895504920093845, 0.2149190786690916, 0.21073344032955144, 0.20659764954478468, 0.20250471358757716, 0.19845945027879744, 0.1943697768644828, 0.19043335100058487, 0.18655545226527107, 0.18270712621222324, 0.17890650595247534, 0.17519743895563786, 0.1714899903841501, 0.16782143871944344, 0.16422265848277207, 0.16067733931456762, 0.1571968278355371, 0.1537590152588684, 0.15033081468270945, 0.14701124696800325, 0.14374599612313968, 0.14051451160175837, 0.13736304026596255, 0.13423849170131982, 0.13120232764916312, 0.12822158313181303, 0.1254005349590117, 0.1225202094767564, 0.11971070219641868, 0.11695667867234529, 0.11426642146058295, 0.11158272228729754, 0.10902669302506454, 0.10653432681734468, 0.10409838749552898, 0.10172338889212276, 0.09943807284807103, 0.09718199727177006, 0.09496052242061477, 0.09283417173998149, 0.09076911058413613, 0.08872980261433085, 0.086792106799358, 0.08503508879013365, 0.08320134033733827, 0.0814343804040966, 0.07978684499698155, 0.07814427967218796, 0.07652285731258839, 0.07502000537498756, 0.07357991985073216, 0.07227689167025579, 0.07095122465032196, 0.06968378719215954, 0.06848863339372716, 0.06735631362536253, 0.06615406180284353, 0.06516147134497215, 0.06427170251040858, 0.06337895951229644, 0.06254246351318155, 0.06165500547138117, 0.060943639034838085, 0.060342151623800175, 0.05972216422213336, 0.05915565425899928, 0.05867797012920388, 0.0582129668824796, 0.05780238394080567, 0.05744547273498739, 0.05714147124937017, 0.056836140099590496, 0.056642375918682486, 0.0564890218204717, 0.05639084632903491, 0.05633896174179606, 0.056386368103110394, 0.05641885016660008, 0.05644201561569242, 0.05657605719629093, 0.05675246572072631, 0.057045479591093004, 0.057295270906153, 0.05761102087390669, 0.05794588931929034, 0.058323832653422135, 0.0586400118984985, 0.059112791933662444, 0.05956865280108826, 0.06011318140408754, 0.0606867773829869, 0.06138898436769018, 0.062007223977464256, 0.06263410332089633, 0.06332132486849484, 0.06403805279711243, 0.06478317454400984, 0.06555556951090472, 0.06634698167241353, 0.06717143574944338, 0.06801936338725278, 0.06883265139491068, 0.06973146955421361, 0.07081835738937382, 0.07172886345718467, 0.07266458758586765, 0.07348437781951674, 0.0744817938682234, 0.07556182285179368, 0.0765721839977371, 0.07759642969565711, 0.07860468481625114, 0.07965625445352982, 0.0806127593135635, 0.08169295385739611, 0.08277356289878882, 0.0838436799531645, 0.0849257243305402, 0.0861171312429987, 0.08718253977552151, 0.0882521199520458, 0.08922105398162644, 0.09030772550483276, 0.09138853267785513, 0.09246297600647785, 0.09353048969275927, 0.09459401387740997, 0.09564529444243808, 0.096748419293094, 0.09777375825281508, 0.09879215161579238, 0.09973811969440065, 0.10074680475356981, 0.10173396776665601, 0.10271407863544535, 0.10367799174960718, 0.10463571870586538, 0.10556381576232354, 0.10654904981671959, 0.10743143091560585, 0.10829864285611483, 0.10918846302766079, 0.11001617102308284, 0.1108304191581387, 0.11162210671890815, 0.11239403136909772, 0.11314484378887071, 0.11387328763443924, 0.11461739925000124, 0.11529271796926527, 0.11594459158148535, 0.11652542232320913, 0.11713257876413982, 0.11764604508906575, 0.11820163854676011, 0.11872291685902003, 0.11922767419716658, 0.11967795345272408, 0.12008048093585001, 0.12046531309355153, 0.1208153266214891, 0.12119452724097843, 0.12146632681756776, 0.12182760381776178, 0.12201997209499856, 0.1221861031907396, 0.12230305914730219, 0.12241493675018894, 0.12256651325497171, 0.12260530689739783, 0.12261482957944488, 0.12260095416026866, 0.12254743316451919, 0.12252235095670468, 0.12239600631032001, 0.12223932998969947, 0.12202271979536743, 0.1218058912859805, 0.12160426218838334, 0.12131133262055317, 0.1209858184113387, 0.12069840033311138, 0.12029702386659745, 0.11980860674955338, 0.11935359699128356, 0.11886390669172198, 0.1183216760630606, 0.11776484254292637, 0.1173007584913304, 0.11665689924034792, 0.11598536713090585, 0.11517860686560308, 0.11446352545391392, 0.11385948869546152, 0.11305642413736063, 0.11222782757998964, 0.11140886273713252, 0.11052341623359756, 0.10957424980575751, 0.10864439394723256, 0.10770868070744338, 0.10672189690960568, 0.10570967664698283, 0.10471147384831703, 0.10364425397392585, 0.10251558967220477, 0.101409022429894, 0.1002784622064039, 0.09923151772992937, 0.09804154145143865, 0.0968036683551445, 0.09558605208324794, 0.09435083820530815, 0.09315908092083704, 0.09188247768477664, 0.0906681456297875, 0.08935711590648834, 0.0880382131754824, 0.08667917600909572, 0.08534820366334558, 0.08405027324951678, 0.08269497145657571, 0.08133350483249649, 0.07991277508334986, 0.07854694907676033, 0.07724467041576073, 0.07585546057781042, 0.07446474972973295, 0.07301965714924233, 0.07163454358838348, 0.07031822505444074, 0.0689203759686279, 0.06752656182644644, 0.06611253522908246, 0.06473212918372487, 0.06344935686733853, 0.062068269870639896, 0.06069959333275067, 0.05929028078425568, 0.05795454917494041, 0.05674029714867142, 0.05541372286446962, 0.054106666092511906, 0.05272320415831168, 0.051468413420892194, 0.050179146228667384, 0.04896293906411662, 0.047762204996991436, 0.04675340628947493, 0.04556692227621582, 0.044318315085434025, 0.04320488809621788, 0.042117425956287695, 0.04109636486312008, 0.04005957147320271, 0.03893703164283437, 0.03797978450941897, 0.03704970472379597, 0.0361772512023826, 0.03530364632568349, 0.03454635920911978, 0.03373253686600041, 0.032960546878892535, 0.03224537224140466, 0.031557467145792224, 0.03096440014017849, 0.030360792386062277, 0.02980642473220368, 0.029273191607512017, 0.02882221588426167, 0.028381133277541996, 0.02803416737092958, 0.02773583302204975, 0.02752655163886053, 0.027324145052876368, 0.027140504116569323, 0.02705225067235427, 0.02701808172865215, 0.026946471141960603, 0.02703559169712495, 0.027305255651538955, 0.02748441953230637, 0.027726505234142218, 0.027910871574131545, 0.02829577652268514, 0.028813350197439674, 0.029306009566784832, 0.0298637375670994, 0.030458787732537553, 0.031152541680889254, 0.03182646772313151, 0.03266340293200255, 0.033563078300329584, 0.034637514723645804, 0.03565315939253224, 0.03666354184500466, 0.037835684606502315, 0.039077149875893294, 0.04035678557328709, 0.041743654214113524, 0.04331822140960205, 0.044831348877148756, 0.04642300855147523, 0.04802889267121094, 0.04978531146656885, 0.05156997940425218, 0.053481885134923746, 0.05546665238961942, 0.05754998006610497, 0.05967947816940475, 0.06186741420701728, 0.06415199327138081, 0.06651240581301351, 0.06886704011666446, 0.07139052276035172, 0.07400754740072556, 0.07667349700285363, 0.0794143871949896, 0.08231262868339378, 0.08519424532525165, 0.08804238515664138, 0.09109910428288968, 0.09422905966266738, 0.09753250794997881, 0.10079758285931883, 0.10411047248880985, 0.10753874269624339, 0.11104382706243318, 0.11451487062018936, 0.11818643763512393, 0.12194170972298873, 0.12575082115947386, 0.1296309479028487, 0.13357503955640893, 0.13759823292763443, 0.14167772800765047, 0.14584370052743217, 0.15007906461287998, 0.1544834284904874, 0.15884429994079713, 0.16318666991497893, 0.1677063631871351, 0.172292591260319, 0.17709818770282756, 0.18179675318435057, 0.1864691697415206, 0.19132580109720415, 0.19624687613625352, 0.20119232393995096, 0.2062446276557974, 0.21142779833208775, 0.2165896372439112, 0.22181376570295477, 0.22699551428555456, 0.23235338864811478, 0.23787080891964238, 0.24331996946243603, 0.24882679124758414, 0.2542935669187562, 0.25992348570035395, 0.26550152097778096, 0.2712392536269786, 0.27701794932130197, 0.28296949416380407, 0.28881330073724454, 0.29474421319583627, 0.3006773468057713, 0.3066575554306811, 0.31246559829983533, 0.31856201943000967, 0.3248483528230598, 0.33098357040387494, 0.33715718636458714, 0.3432463987011669, 0.34950728320224395, 0.35585194921959584, 0.36215849592251137, 0.36849360784969654, 0.3749022996963101, 0.38128468203587973, 0.3876335592793391, 0.3940759733775706, 0.4005384840494363, 0.40698059978591383, 0.41348435880942697, 0.42001627935695657, 0.426544947167922, 0.43308605066410966, 0.43966675191977983, 0.44622502137428766, 0.4528038346044594, 0.4593787533791179, 0.46596071895394686, 0.472515862189623, 0.4791106140531493, 0.48563041987639943, 0.49223293660509027, 0.49882812332309473, 0.5055183966316632, 0.5120829241835041, 0.5184895564719094, 0.5250621713613051, 0.5316175409735884, 0.5381228676021422, 0.5446455234854024, 0.5512749396952676, 0.5577374835237036, 0.5640628071589593, 0.5705065649487674, 0.5769234503731712, 0.5833267297402204, 0.589685008450428, 0.596024683726271, 0.6023216811010985, 0.6085872638675447, 0.6148698263471943, 0.621061735310254, 0.6272097652940528, 0.6333346991757619, 0.6394219794473001, 0.6453878420532424, 0.6514048479072407, 0.6573671941324896, 0.6632889935620112, 0.6691607158976366, 0.6750311698951429, 0.6807931100826468, 0.6864259540766544, 0.6920948294596406, 0.6977054168029045, 0.7033387548729525, 0.7088195303134389, 0.714101076097622, 0.719484817282575, 0.7248004658382888, 0.7301758352638953, 0.7353374814320666, 0.7404150755076445, 0.7454523073174458, 0.750422167651778, 0.7553338636017776, 0.7601632103545277, 0.7649428282983897, 0.7696257842860362, 0.7742359568487895, 0.7787183455078237, 0.7831851656877753, 0.7874541644737241, 0.7917745312949663, 0.7960062542239349, 0.8001137205545985, 0.8041726398130067, 0.8081727614168602, 0.8120458947771162, 0.8158298859862404, 0.8196347848339062, 0.8232251468309264, 0.8265635816736852, 0.830004851773404, 0.8333494827269069, 0.8367365314109989, 0.8398703720312408, 0.8429330882017056, 0.8458854805044246, 0.8487474017164901, 0.8514355875447426, 0.8541231629001196, 0.8566407919903295, 0.8591396897028672, 0.8615351855605514, 0.8638738144917135, 0.8660571794029116, 0.8681365830705903, 0.8701192562133309, 0.8720006410868987, 0.8738303316701638, 0.8755019234064595, 0.8769779051621631, 0.8784622401193093, 0.8798405182510184, 0.8811664322330882, 0.8823264890275981, 0.8833306140615202, 0.8842922072691594, 0.8851477947589493, 0.8859760060585417, 0.8866103006596338, 0.8870402327769221, 0.8874851486289863, 0.8878224429140184, 0.8880740306592225, 0.8881949317356763, 0.8881716952283613, 0.8880879632854592, 0.8878976480608245, 0.8876797614930722, 0.8872681330030555, 0.8867132674220825, 0.8861060144869133, 0.8853957618902911, 0.8846399112935166, 0.883717588893552, 0.8826823882334749, 0.8815646003356178, 0.8803474191998707, 0.8789918809978753, 0.8775816546763815, 0.8760849850147899, 0.8744722734015435, 0.8727611067811074, 0.871012701003348, 0.8690988619909553, 0.867123999503481, 0.8650201197865733, 0.8628254630128142, 0.8603940250551043, 0.8580367865386326, 0.8556988913909819, 0.8531318304770442, 0.8504762365186033, 0.8476292881417932, 0.8448113914856219, 0.8418902981203745, 0.838890313330327, 0.8358003131617342, 0.8326289917039684, 0.8293627101084395, 0.8261147404591048, 0.8226666765164257, 0.8191421174678697, 0.8154239618034793, 0.811762927408593, 0.8079956612235106, 0.8041769265753114, 0.8002788806552633, 0.7964245278285661, 0.7923579377214124, 0.7882134312597873, 0.7840144320437801, 0.7797490624642827, 0.7754075576947308, 0.7710136414009136, 0.7664238324179042, 0.7619197338268178, 0.7573466043536198, 0.7527210037982711, 0.7480148169726518, 0.7433004774560684, 0.7384662133037923, 0.733577105300703, 0.7286309655818115, 0.7236367581575358, 0.7186059189003529, 0.7135095631401897, 0.7083659883125504, 0.7031658313153112, 0.6979331800488027, 0.6926246819222635, 0.6873100236654628, 0.6819527523081965, 0.676686490340303, 0.6712325312231427, 0.6655952634716314, 0.6601012080692833, 0.6545698563778495, 0.6491208958748771, 0.6435062241012155, 0.6378775809686542, 0.6322131906352851, 0.6265267333467912, 0.6207301195355567, 0.6150139139403958, 0.6092596366463799, 0.6034995265188822, 0.5977186074307866, 0.5918974560573752, 0.5860834614553828, 0.5803494389581476, 0.5744927546321188, 0.5686291552712617, 0.5626029317143849, 0.5567487288538632, 0.5509428872130584, 0.5450590633446344, 0.5391712876494913, 0.533423905859084, 0.5275154871227244, 0.5214167255718289, 0.5155525638411571, 0.5096875866245038, 0.503970248370463, 0.4980920134619456, 0.4921458213381533, 0.48630682820873067, 0.4804789870019604, 0.4746318270441519, 0.46883513215548656, 0.46308102010017377, 0.4573106221666501, 0.4515593598797292, 0.44572172161773826, 0.4400264709835726, 0.4343984254210425, 0.42873367881820584, 0.4230933121466818, 0.4174824423893785, 0.4118949847136115, 0.4063472869708036, 0.40081797335054636, 0.39529962182140765, 0.3898388996902677, 0.3844116831943031, 0.37911908307124587, 0.37375015084985613, 0.368356408288575, 0.3630822414313895, 0.3578480119579635, 0.3526476354840533, 0.34749729447117744, 0.342268379337989, 0.33721962120822213, 0.33220872628797554, 0.3272911182181421, 0.3223549228687718, 0.3175969182788754, 0.3127378016619981, 0.3079345899760853, 0.3032086186733294, 0.2985144435400027, 0.29385963457539027, 0.289282079711204, 0.2847607726010089, 0.28027816993176136, 0.27587248496673805, 0.2715550724155761, 0.26725824238384877, 0.2630204559297473, 0.2587065423673206, 0.254604808238036, 0.25056966754648485, 0.24657223462840552, 0.24263067824826426, 0.2387389513587044, 0.23491320269847388, 0.2310781874194331, 0.22737879172144956, 0.22373573325536789, 0.22019661589885545, 0.21666404096705183, 0.21314746931084516, 0.20974594133364677, 0.20640511287569444, 0.20315426201657907, 0.1999334197300328, 0.19680895515810956, 0.19371291401115473, 0.19068343876627392, 0.1876491489019102, 0.18476151954587203, 0.18202523932360823, 0.17925127249712894, 0.17654535102372637, 0.17388922008581698, 0.1713203599720389, 0.16876739662156257, 0.1663361927164173, 0.16396748586378032, 0.16169705648473007, 0.15944919161454935, 0.15735160471056756, 0.15522208171056662, 0.1531614531311496, 0.1510688928593832, 0.14915566089026397, 0.1472921551039205, 0.14550107872148474, 0.14376970152111934, 0.14212648953307508, 0.14051070585838435, 0.13895947766397357, 0.13746479121957383, 0.13603040935797894, 0.1346807836884707, 0.13336234882098963, 0.13208269846024778, 0.13088656753481145, 0.1297479375448613, 0.12869120928216943, 0.1276627647879998, 0.1266523224330911, 0.12574245710714568, 0.12488601878643475, 0.1241217503564046, 0.12336578384285901, 0.12259979727009067, 0.12195933925734637, 0.12136767594040146, 0.12083159389044351, 0.1203355347829899, 0.11995519514240846, 0.11954601132163012, 0.11918746800751603, 0.11891046499224603, 0.11864564695880725, 0.11839062931508693, 0.11822743948586767, 0.11810842630482941, 0.11801841039601527, 0.11798679050542973, 0.11786035142013232, 0.1179263009706178, 0.11802365956450332, 0.11822040970737663, 0.11837266196335319, 0.11864602075975647, 0.11885790089894056, 0.11910873188526017, 0.11929369691991462, 0.11963118733797135, 0.11999404929917964, 0.12038937722940785, 0.12081240597967706, 0.1213516608047776, 0.12181702676997824, 0.1222454687931778, 0.12277954112384665, 0.12333775984944059, 0.12399059792153401, 0.12458563465508715, 0.1251457146215073, 0.12579822747940397, 0.12647011739850347, 0.1271533892426749, 0.12786231862282887, 0.12855193684391997, 0.1292971838255498, 0.13005504178259006, 0.1308819414049598, 0.13165597168915602, 0.13235121347666418, 0.13316354001581193, 0.13398220337920533, 0.1348816597327854, 0.1357022840423697, 0.13649285662515984, 0.1373355643713815, 0.13818288571268947, 0.13906964552707135, 0.1399192201173393, 0.1407693498034397, 0.14162647324838942, 0.14248526372655537, 0.14329476615451917, 0.14416005490838663, 0.14501754539969827, 0.14587422729998734, 0.14672526686503462, 0.14754509911121355, 0.14838613764910447, 0.149218216895191, 0.15004085885657903, 0.15085354662921419, 0.15168424380094211, 0.15247173888595736, 0.15320637819567962, 0.15397826023198652, 0.15473596781490226, 0.1554718914929847, 0.15620067993991685, 0.1569775262462882, 0.15766551110364435, 0.15833998560708915, 0.15904979829155463, 0.15968784121089746, 0.1603192993308979, 0.1609277066761338, 0.1615202785518831, 0.16199959493921193, 0.16256919285401555, 0.16312850710599616, 0.16364704889316734, 0.1641414774994148, 0.16456868316332557, 0.1650192702670405, 0.1654743889273585, 0.16586581989713417, 0.16623144746510227, 0.16659587661332545, 0.16690570942170385, 0.16717941590922808, 0.1674391952728435, 0.16767189506828586, 0.16794484353080166, 0.16811366333076827, 0.16822956824259527, 0.16835230960588124, 0.16844737256881814, 0.16840734313269762, 0.16845915245225787, 0.16850446621949108, 0.1684831492783785, 0.16842934879593688, 0.1683289447262301, 0.1682123645972786, 0.16818758653734414, 0.16798952836019884, 0.1677658713442693, 0.16746584974220582, 0.1671948102689875, 0.16685030952509963, 0.16652312360382782, 0.16621956053598658, 0.16581858854915096, 0.16538786737439093, 0.16487725011916252, 0.16439264573879786, 0.1638855850392536, 0.16333362125835515, 0.16274967979375493, 0.16213751193426743, 0.16148973072775238, 0.16086064861811253, 0.16014433460047772, 0.15939998555769452, 0.15860601483050235, 0.15780775761869945, 0.15693350690009897, 0.1560819332003836, 0.15519841182807892, 0.15424430334780612, 0.1533035228697619, 0.152426466346263, 0.15140932242872993, 0.15036666636794482, 0.14919508823688904, 0.1481143905367799, 0.14712001966371066, 0.14596280231158043, 0.14478270940255214, 0.1435261586479371, 0.142306789310957, 0.14110416648976, 0.1398278488004039, 0.13852892536581043, 0.13727172165899723, 0.13592002915459542, 0.13438958391726452, 0.1330212274230513, 0.1316251689185632, 0.1302668242826224, 0.1288109508360275, 0.12734165662214056, 0.12584431572157884, 0.1243278977600973, 0.12283209919283673, 0.1212740540340186, 0.119729158215595, 0.1181369946369382, 0.1165315498375274, 0.11494855112593912, 0.11331236359285705, 0.11162971498519028, 0.10997638939635376, 0.10831031888346465, 0.10667115737203663, 0.10497601814607498, 0.10322188189457249, 0.10151508566244505, 0.09979691439357484, 0.09808237738237964, 0.09634191203706034, 0.094607389497903, 0.0928491331523659, 0.09108465595916945, 0.089371535906277, 0.0875890814546205, 0.08581601949122074, 0.08402976834378927, 0.08224320134461718, 0.08049929711512173, 0.07870738284480683, 0.07705381653131978, 0.07525064105649627, 0.07345816417283234, 0.07170759821158851, 0.0699300733741635, 0.06809889650687928, 0.06634992944177369, 0.06460692196665606, 0.06290581125734716, 0.061171179977935954, 0.05943849147799632, 0.05772311971116915, 0.05601693721293883, 0.054398792496117836, 0.052702439092518386, 0.05112807696789869, 0.049448290623939004, 0.04778960065501105, 0.046122808301139046, 0.04450805713871876, 0.04296834007605967, 0.041382459047798525, 0.03981802822058545, 0.038331886623778025, 0.036802718411104184, 0.035194671357024726, 0.033727259763517, 0.032278120120843405, 0.0309443176948219, 0.02952205906012067, 0.02804401920983711, 0.026684596443527036, 0.025347020802475792, 0.02412487636150963, 0.02282200911549686, 0.021616617384757095, 0.020364828516174983, 0.019146932847730565, 0.01795553070956589, 0.0168056335837232, 0.015713724088245357, 0.014626864572645478, 0.013574752307790863, 0.012464775604875005, 0.011494131131145531, 0.010642546763555904, 0.009721559699944813, 0.00883751718507856, 0.008083307854033456, 0.0072621438038077335, 0.006512439212179448, 0.0057731655842138165, 0.005077769960213906, 0.004393781624221796, 0.003789144136913157, 0.0032649707774746748, 0.0027380861912513054, 0.0022551014791591115, 0.0019514339129281777, 0.0015391302994482475, 0.0011250141122441301, 0.0008218614060435015, 0.0005657221961656512, 0.00035646376008588454, 0.0001940450311328296, 9.276158226847634e-05, 2.240447251234859e-05, 0.0, 1.1393508535736908e-05, 8.706018543779423e-05, 0.0001996542148286589, 0.0003722741647611361, 0.0005926554009370428, 0.0007757362506038263, 0.0011038941436498791, 0.00148713814888207, 0.0019038860653659557, 0.0023678436438220097, 0.0029583116106553526, 0.003509366512366647, 0.004192901383140913, 0.004842236546510033, 0.005550183126272224, 0.0062306706424305235, 0.007065162215956825, 0.007920068486295508, 0.008864008392377862, 0.009859432967649327, 0.011010326903377967, 0.012097465109229912, 0.01325072904477791, 0.014454604662319523, 0.015717226758960014, 0.016952754909413933, 0.018342842998089175, 0.019729107308421322, 0.021233343858967645, 0.0227885936799538, 0.024520495915562608, 0.026164571782914592, 0.02787260588096883, 0.02963663060733328, 0.03146051991197244, 0.03325840447287444, 0.035211895593028585, 0.03723740402451797, 0.039297499750969335, 0.041413663893442386, 0.043657390018040934, 0.04587727237280797, 0.04818270552874232, 0.050520181468172665, 0.05291879555822958, 0.055335207309388186, 0.05785985632329057, 0.060359729224183714, 0.06300907870794865, 0.06571089229465762, 0.06855842604102874, 0.07135512277454936, 0.07412188526258112, 0.07704779463888956, 0.08002710668163213, 0.083067316639252, 0.08615356287889996, 0.08933014975477961, 0.09252140191248999, 0.09576953728217465, 0.09906360218865903, 0.10242606873113148, 0.10577630175229241, 0.1092581152597156, 0.11279122033209062, 0.11635099044862657, 0.11999071990747337, 0.12378799645849721, 0.12751574378813446, 0.1312542843708303, 0.13510141813402973, 0.1390016572728004, 0.14287273376836068, 0.14688865763882183, 0.15106264967587746, 0.15516007241666657, 0.15931180659106242, 0.16347075949537282, 0.1677347323356347, 0.17210525875744945, 0.17646076934248117, 0.18086837452014756, 0.18525954438454129, 0.18977750823534156, 0.19429866924843878, 0.1989138059256045, 0.20357212465995236, 0.2083592559818221, 0.21309331040476853, 0.21778984103476665, 0.22262992955309052, 0.22751162556075347, 0.23255959433563417, 0.23750841814260376, 0.242387790806204, 0.24744655725467524, 0.2525444336431183, 0.2577204469370108, 0.26289098957392115, 0.26798807993840373, 0.273253595702263, 0.27855199967677813, 0.2839013639206261, 0.2892639239419108, 0.2946643408391495, 0.3000948158224535, 0.30555927244569875, 0.31103594032145315, 0.3165698538667774, 0.322096026597462, 0.3276974648318954, 0.3333273780426337, 0.33916024622666674, 0.34482443595034595, 0.3503514936268603, 0.3561109827471067, 0.36189466793020697, 0.3677629388856231, 0.37358666331574863, 0.3794442592133601, 0.3853196481044967, 0.3912203377084723, 0.39707049807972494, 0.403028315213243, 0.4090363834941961, 0.415026126474557, 0.4210350433816184, 0.42706237752519666, 0.4331073465517204, 0.43916558074668877, 0.4452438329088596, 0.4513370430334559, 0.4573802214410763, 0.46350893968282175, 0.4697533865470374, 0.47588581914513717, 0.4820322380259229, 0.488141367596734, 0.4943179827175659, 0.5005231666666641, 0.5067105882740502, 0.5129046631418727, 0.5190508661007861, 0.5252618290272931, 0.5315908991710608, 0.5377873523856892, 0.5439896196375364, 0.55005348140592, 0.5562805298546979, 0.5624472020097052, 0.5686668901313015, 0.5748759896046431, 0.5811101131110207, 0.5872933153437344, 0.5934674788048662, 0.59963194882055, 0.6057860148132777, 0.6119788154857757, 0.6181034381076673, 0.6242180469009285, 0.6303213612273783, 0.6364121193732715, 0.6424819489906783, 0.6485447812234658, 0.6545517683033495, 0.6605851411375473, 0.6665974028807722, 0.6726305132093595, 0.6785926789674072, 0.6844266793135633, 0.6903586452171135, 0.6962609062074273, 0.7021473737922234, 0.7079872963208461, 0.7136722693237416, 0.7194668587199091, 0.7252227883311431, 0.7310400601069428, 0.7367064980912565, 0.7423970401596801, 0.7479893797811878, 0.7535498979534357, 0.7589808306893354, 0.7644853305896409, 0.7699517187881352, 0.7753717898189263, 0.7807490743529295, 0.7861184510520584, 0.791403324387406, 0.7967341101366178, 0.8019201751690406, 0.8070657481025453, 0.811983639764978, 0.8170662157675121, 0.8221817500678287, 0.8271406829421811, 0.8320481986372118, 0.8369282467905041, 0.841726778045488, 0.8463974579061206, 0.8510982637062094, 0.855739530145514, 0.8603243013946446, 0.8648444325202429, 0.8693249181858451, 0.8737196150030141, 0.8780531179618898, 0.8822960251564356, 0.8865080849601508, 0.8907117262017944, 0.8947850390368004, 0.8987947974735911, 0.902668576937638, 0.906556863229032, 0.9103244030251816, 0.9140768596520685, 0.9177547452066046, 0.9214114155179982, 0.9249330014939905, 0.9283646579084944, 0.9317435457682048, 0.9350478598560704, 0.9382734543538601, 0.9414273165381203, 0.9446186883753729, 0.947604464726113, 0.9505189455352381, 0.9532216303479811, 0.9560067241855226, 0.9588333190077812, 0.9614360866949211, 0.9639624427084398, 0.96630430977476, 0.9686880004595975, 0.970978960480655, 0.9731923056894818, 0.9753195282017311, 0.9773035490280915, 0.9792655499197267, 0.981127287562043, 0.982911822560948, 0.9846067577417144, 0.9862658240980012, 0.9877755346087919, 0.9891244051954009, 0.9904712582882826, 0.9917272520754902, 0.9929176214959812, 0.9939895373645689, 0.9950724755981687, 0.995954149988465, 0.9967524963760144, 0.9973668256284031, 0.9980085590119295, 0.9985839247751827, 0.9990400520159161, 0.9994066077586933, 0.9997298736606741, 0.9999112816986633, 0.9999913448377183, 1.0, 0.9999200722820497, 0.9997514219311895, 0.9994939526990323, 0.9991119678618926, 0.9986812444888489, 0.9981596581236695, 0.9976330991763863, 0.9969200186985275, 0.9960898499374096, 0.9952104763991183, 0.9941867002738181, 0.993139895439165, 0.9920027790593294, 0.9908508596375885, 0.9895256217261638, 0.9879629522111746, 0.9864887797076072, 0.9849219590632295, 0.9832817044022684, 0.981531420786972, 0.9797753795676327, 0.9778402661902352, 0.9758239850132009, 0.9736733377878946, 0.9715023271969186, 0.9693371996781426, 0.9669893177662184, 0.9645648860554084, 0.9620426291940519, 0.9594682182961037, 0.9567417915938949, 0.9540230335438347, 0.9512240017321532, 0.9483601705790807, 0.9454024089943379, 0.9423152712232464, 0.9392134645729407, 0.936034781092052, 0.9328448201350139, 0.9295085473313713, 0.9261708953085185, 0.9226886495971275, 0.9191427131892892, 0.9154157715526781, 0.9117583370971128, 0.9081173496616141, 0.9043124284447517, 0.9004462081193553, 0.896501620908871, 0.8925173703776558, 0.8885445256034378, 0.8844325542083828, 0.8802668314043064, 0.8760835292911464, 0.8718074823220128, 0.8673639332597458, 0.8630034997927843, 0.8585877049086476, 0.8541467215569837, 0.8496215480225027, 0.8449298901372748, 0.8403232132822028, 0.8356637879351754, 0.8310145218714566, 0.8262487759955951, 0.821504467310107, 0.8166467035850933, 0.8117528667353618, 0.8068061175964221, 0.8018453843497586, 0.7968471072611261, 0.7918201304217681, 0.7867615252054478, 0.7816690620250364, 0.7765516692720452, 0.7712425397521823, 0.7660917156542594, 0.7609067203382884, 0.7558471135106712, 0.75058198974009, 0.745213697156708, 0.7399251791544167, 0.7346163630764545, 0.7292035172161364, 0.7238702984645241, 0.718688343627635, 0.7132962127514082, 0.7078984573299645, 0.702474442547096, 0.6970704655862578, 0.6915801473159163, 0.6861789260392344, 0.6807710090931891, 0.6753190275914234, 0.6699081329141232, 0.6645471540227862, 0.6591244019060345, 0.6537050162618793, 0.648215560064016, 0.6428165922697828, 0.6375885029282321, 0.6321770474700869, 0.6267822153452585, 0.6213795213178824, 0.61602258027167, 0.6106148151686216, 0.6053011550650693, 0.6000024863867472, 0.5947167975176493, 0.5894531860266466, 0.5842303085479089, 0.5790041745610494, 0.5738015250857288, 0.568470346415334, 0.5633377800089877, 0.5583592549745808, 0.5532492159165324, 0.5481701169105365, 0.5430267725650796, 0.5380248660316767, 0.5330658951148383, 0.5281213557361292, 0.5232098180542366, 0.518429018732566, 0.513575752344381, 0.5086475664466228, 0.5038951014819605, 0.4991798335402261, 0.4944783599503979, 0.4898451923976129, 0.4852700231339198, 0.48071645641213334, 0.47620697121811123, 0.4717712547512399, 0.46734978428479446, 0.46292386721722195, 0.4586079580446638, 0.45433957812388454, 0.45018403645149885, 0.4460059869530457, 0.44181458647754407, 0.4377542670572128, 0.43374537814909586, 0.4299029544917122, 0.42598537641924994, 0.42203213656003596, 0.41824774561678957, 0.4145183344408953, 0.4108482256935266, 0.40723054698049305, 0.4037022491775761, 0.40019570317472547, 0.3967493858037017, 0.3933635432218701, 0.3900384165393507, 0.38670295528962395, 0.38350896730869116, 0.3803723693614161, 0.37724047394261084, 0.37422765914305084, 0.3713746763705756, 0.3684626997367079, 0.365614808384945, 0.36272754286263154, 0.36002060003876696, 0.35746788126620505, 0.35486547620460124, 0.3523278042127512, 0.3497868871766651, 0.3473864733976241, 0.3450390964339865, 0.3427602024297803, 0.34054157810676616, 0.3384440227878873, 0.33633882974854123, 0.33426564842218304, 0.33229221782215895, 0.3303801350188436, 0.32858265485935395, 0.32678585020073314, 0.32506336671477276, 0.3233917373789523, 0.32178290247338326, 0.3202325283300401, 0.3187474523713834, 0.3172158138789836, 0.315864314585745, 0.3145658458838166, 0.31345249027718197, 0.31224392456611677, 0.3110070050244346, 0.30993007296629127, 0.30890666997326577, 0.30796498497268515, 0.3070440095213044, 0.30605585577794003, 0.3052575161226338, 0.3045049713968201, 0.30393390987858565, 0.3032564370956911, 0.3024723174300245, 0.3019213971267622, 0.3014128220387109, 0.3010607809600895, 0.3006227391182426, 0.3002156256490491, 0.2998761797085152, 0.29958218168777323, 0.2992791760540612, 0.2990798479739732, 0.29892352709969955, 0.2988020442791678, 0.29868332010798304, 0.2986424086018739, 0.29863637548122557, 0.29865398571948365, 0.2987173590701948, 0.29888088560107084, 0.2989999011281489, 0.2991537623732145, 0.29939816717749107, 0.2996105346839978, 0.2997572039353211, 0.3000486436092037, 0.30036515812884973, 0.3007308836492641, 0.3010919098700874, 0.3014305109704597, 0.3018440849254528, 0.3022767009320436, 0.30273828182309637, 0.3032052696993465, 0.3037143931305364, 0.30421160628627253, 0.30472539659863157, 0.3053079883979185, 0.3058444620634769, 0.30631127342900905, 0.30688867196932035, 0.30747391044373334, 0.30821584029834187, 0.3087952581143344, 0.30924571059297584, 0.30986822250104823, 0.31049218357389374, 0.3111097125363933, 0.3117351771406591, 0.31234506674062423, 0.3129689017957483, 0.3135889937975349, 0.31429014158078816, 0.3148896649164225, 0.31551998507396384, 0.31611135904840243, 0.31670025126119694, 0.3171139073671093, 0.3177145379690547, 0.31829831703921385, 0.31886518015533954, 0.3194149570386562, 0.3200614385934571, 0.32056174500199325, 0.32108953863269146, 0.32156004672898536, 0.3220182888585241, 0.3223628612677365, 0.32280446417429903, 0.32320939114159053, 0.323607405815865, 0.323981067331423, 0.3244510693217667, 0.3247591980304804, 0.32491633196362096, 0.32520134884013735, 0.32545684861154084, 0.32579302822712375, 0.3259745963515771, 0.3260676825058018, 0.3262074138825094, 0.326316708396193, 0.32631653232942454, 0.32637301353739373, 0.32638569167361137, 0.3263697616110733, 0.3263167631554176, 0.326276564240315, 0.32614296860493625, 0.3259641545920668, 0.32576227896359716, 0.32552413119210394, 0.3252563761195577, 0.3249433987053739, 0.324660901548475, 0.32426438774645067, 0.32383346737672664, 0.32326734542546315, 0.32277732998412423, 0.32236932785211814, 0.3217781265967972, 0.3211512789173012, 0.3203416580649184, 0.3196591222304836, 0.3190049226644552, 0.3182203786352539, 0.3173944240331823, 0.31658741796741074, 0.3156703128399518, 0.3146112265330624, 0.3136293225235104, 0.3126018260744594, 0.31163603531848466, 0.3105049216854034, 0.3092960496347405, 0.3080922364473871, 0.30684665841159625, 0.3056020284580892, 0.30426738068113623, 0.3028683673753784, 0.301457759111107, 0.30000584672628533, 0.2985412126842536, 0.29700333536096296, 0.29529420882896973, 0.29369422012507845, 0.29204744059896326, 0.29044411815625604, 0.2886958401111674, 0.2869339264552884, 0.2851055451164697, 0.2832404591677819, 0.2814064824956217, 0.2794597640821806, 0.2775019799699182, 0.2754873699169209, 0.2734410536716093, 0.2712736897388735, 0.2691746385561746, 0.2670385173892982, 0.2648661306548139, 0.26265828317697343, 0.26047993710266326, 0.2581954761133849, 0.25583880813559406, 0.2535011800833581, 0.2511323777911371, 0.24869396471410785, 0.2462700945001114, 0.243865098291499, 0.24137399150896421, 0.23885687839891467, 0.23631799320317962, 0.23375045524039859, 0.23124474598744843, 0.22861968776346353, 0.2259771864912104, 0.22328168508737037, 0.22060916826262308, 0.21786787925462123, 0.21516459259854137, 0.21244101094616213, 0.20983729238044838, 0.20705899130437855, 0.2041575621932964, 0.20137553696067795, 0.1985781670861965, 0.19569889347115535, 0.19288287096122952, 0.19009392916850837, 0.18724279620039136, 0.1843816524365535, 0.1816685128974392, 0.1787710657532949, 0.17573691393154098, 0.17286151805361286, 0.16998051286275445, 0.16718070124377915, 0.16428142194415235, 0.16146346194102368, 0.15856058911049137, 0.15566610716784934, 0.15270873685746109, 0.14984019767305734, 0.14699070346621962, 0.14413087155017693, 0.14127851840857777, 0.13852004746474986, 0.13567445244861234, 0.1327867825630442, 0.12997855744188613, 0.12718269608275645, 0.12452129088418276, 0.12173758550317226, 0.11896158496523938, 0.11622360394369119, 0.11350691575931882, 0.11085822296962444, 0.10817945673092386, 0.10562575047808104, 0.1029851289234498, 0.10037595829448509, 0.09767313234813219, 0.09514174499078763, 0.09264138952781321, 0.09015804045641722, 0.0877012618361471, 0.08531846356841953, 0.08291219392219917, 0.08064881355593169, 0.07829406886763553, 0.07597936097456094, 0.07376872979762783, 0.07152577222646483, 0.06931224193369982, 0.0671581881290326, 0.06504664057372557, 0.06303833346370866, 0.06100467120447994, 0.05907824207521023, 0.05713013756430456, 0.0552427701695935, 0.05339309519864215, 0.05159360905541829, 0.04979075341537209, 0.048098252485755534, 0.046524319763957954, 0.04491805481079281, 0.04336447011904981, 0.041917195203052954, 0.04046279853346461, 0.03900424334538015, 0.03767034076906716, 0.03638951033995885, 0.03519804672739295, 0.03402082956147796, 0.03289712686499031, 0.03183492116870343, 0.0308304384312012, 0.02988417788164373, 0.02899665795579429, 0.028196924362422677, 0.027424884276673733, 0.02671480086725154, 0.02602421759929803, 0.02544442251729223, 0.025032120870773545, 0.024560653718163926, 0.02415714957324159, 0.02382852509730179, 0.023559483696439495, 0.02344748625796182, 0.023302977460507936, 0.023231306553033168, 0.02321039393433532, 0.02328514722645658, 0.023372793787829468, 0.023594413519728966, 0.023882445156610737, 0.024258663691393786, 0.024677972401622776, 0.025230181280880414, 0.02577904321463895, 0.026400608144494683, 0.02702325817207872, 0.02779830420321325, 0.02858776562831806, 0.029505727745298107, 0.030489331170380923, 0.03164982747691333, 0.0327529379651659, 0.03392279000084513, 0.03517417212659162, 0.036498325014585976, 0.037937781559667344