0.05753029091095837, 0.057373953058019074, 0.05718161009473024, 0.05705582762311174, 0.056936888962001386, 0.056838876138824615, 0.05672876725518182, 0.0566078063320538, 0.0565089689702942, 0.05641284327754769, 0.0563552833049151, 0.05625883008462405, 0.05611925980023391, 0.056035692623117875, 0.055952322499323914, 0.05590848995024182, 0.05582071870207647, 0.05573556619958097, 0.05565282686879606, 0.05557234790806986, 0.05549477834806347, 0.05541844522568202, 0.0553404328504786, 0.05526876770636235, 0.05519900157734581, 0.055082093161235385, 0.05502256719317334, 0.055004001474427584, 0.05493853067622971, 0.054875762758784544, 0.05480218822894575, 0.05474682531771599, 0.054651378608694276, 0.05460603870571822, 0.05456096987669197, 0.05451065842501489, 0.05446843611699992, 0.05445327436465838, 0.05441097835345947, 0.05437231601363945, 0.05434876068587363, 0.05431633874700761, 0.05428705842255366, 0.05426414871937799, 0.054245840788574716, 0.05419060975258983, 0.0541868592255498, 0.054202102360153596, 0.05420136067902426, 0.0542046210627476, 0.05418635241511429, 0.05420132653953136, 0.05423138167174723, 0.05425113314972584, 0.05427516399831318, 0.05431874286373169, 0.05434987512591306, 0.05434499889296317, 0.054392474840512184, 0.05444315304758019, 0.05451172232435777, 0.054567949939391944, 0.05463738636861969, 0.05470247441635643, 0.05477314794532282, 0.05487210291635564, 0.05495116547447843, 0.054994856644251536, 0.055092999935965406, 0.05519542788426014, 0.05530237292493921, 0.055414045307204896, 0.05556010381994462, 0.055678059338633935, 0.05580291766011876, 0.05589529534657037, 0.056038667101868174, 0.056172153632542125, 0.05632655397676706, 0.056485136264730305, 0.05668072854919377, 0.05684454396302423, 0.05699185193620786, 0.057172442385371475, 0.05735860415532654, 0.05756487688992589, 0.05776089894347518, 0.057976643463271124, 0.05818481794837939, 0.0584006365806613, 0.05862402237869498, 0.05885491329282585, 0.05906077019085874, 0.0593106459225409, 0.059566092962368304, 0.05983869065450128, 0.06010455981192715, 0.0603538801309219, 0.060636549451671885, 0.060924950851290696, 0.06126241817424525, 0.06155760410008511, 0.061816314355304935, 0.06213479244486125, 0.062459287483928136, 0.06279155547761743, 0.06312859971601188, 0.06350640034430999, 0.06385281078217665, 0.06420817690562058, 0.06454438759600832, 0.06492075556577823, 0.06532450102724491, 0.06571236151431452, 0.06610856667951318, 0.06651757663048907, 0.06692968538997571, 0.06733432793901756, 0.06776515633516342, 0.0682033267921382, 0.06863982859495091, 0.06909399033967098, 0.06953170591158148, 0.07000288874432954, 0.07047992774039422, 0.07099784196328439, 0.07148294645330196, 0.0719757788695049, 0.0724778264335091, 0.07298808286357751, 0.0734611116477578, 0.07399321983272494, 0.07457906050783854, 0.0751160778988342, 0.07566169048540601, 0.07619530207296518, 0.07676011230858953, 0.07730537959642869, 0.07788734331191387, 0.07847472230873935, 0.0790669556289914, 0.07966580848046144, 0.08031282634436612, 0.08091813462113387, 0.08153184579122387, 0.08214157973658187, 0.08277277310372134, 0.08342220999089267, 0.0840656493792054, 0.08471635645361701, 0.08535899225442557, 0.08602547708364586, 0.08667053589833651, 0.08735193933412243, 0.08803744216176533, 0.08871886738422555, 0.08941399052914473, 0.0901583899387089, 0.09085577313680747, 0.0915598304069568, 0.09223171020666346, 0.09295305743379005, 0.09371428844574152, 0.09443832286769553, 0.09516806761188677, 0.09586242317021275, 0.09660787055605138, 0.09738989200244372, 0.09813625633620153, 0.09888721434983283, 0.09961455025730374, 0.10037746337147214, 0.10117060854202843, 0.10193452758022263, 0.10270225061096518, 0.10347274718841906, 0.10424735940910324, 0.10502191585520679, 0.10580260212163495, 0.10658560918698723, 0.10738282166574452, 0.10816832900245442, 0.10891617982866457, 0.1097112331852064, 0.11050584701494318, 0.11132953811519103, 0.11211966288115906, 0.11292088353768968, 0.11371204276231119, 0.1145044937238657, 0.11528656705974984, 0.11608204362439632, 0.1168379230836092, 0.11763755207310826, 0.11843426298080927, 0.11925763534111503, 0.12004507815364018, 0.12083449678774197, 0.12161922980158026, 0.122402616601315, 0.1231745752590777, 0.12395573691133197, 0.12470325243372643, 0.1254828250319094, 0.12628181842287836, 0.12704887899827774, 0.12781262435490914, 0.12859551899735336, 0.1293491518755467, 0.13005175648767145, 0.13080576200709668, 0.13155359936031524, 0.13234289390993748, 0.13307241208507506, 0.13375911649784358, 0.1344861087234389, 0.13520650055050035, 0.1359693190000946, 0.13667002110054052, 0.13733482891146268, 0.1380306922801538, 0.13871958562374714, 0.13940885530529243, 0.14008222233083312, 0.14072574068567079, 0.14138733643833026, 0.14203993415509214, 0.142722743627956, 0.14335211702784928, 0.14394720368222247, 0.1445654034565862, 0.14517413414752928, 0.1457996703526827, 0.14638560121401442, 0.14693204206038737, 0.14750447404863498, 0.1480658914379157, 0.14862223899912816, 0.14916055192515193, 0.14970372531715703, 0.15021784019246473, 0.15072148177269046, 0.15122718779015287, 0.1517073519706813, 0.15214137377042547, 0.15260440151767682, 0.1530540961183986, 0.15347531088863473, 0.1539001308241786, 0.15431062253981156, 0.15470683319659442, 0.15508878465011883, 0.15549047808410846, 0.15583959040816273, 0.15616949258117802, 0.1564943188683399, 0.15680572193290052, 0.15711178180159374, 0.1573946042110849, 0.15766456407982432, 0.15791978850518662, 0.15816092287069267, 0.1583522166814525, 0.15856896478119953, 0.15880750017653755, 0.15898597325766317, 0.15915002562856675, 0.15926841982661108, 0.15940679473078306, 0.15954114319165597, 0.15964420075251665, 0.15973119341200215, 0.15978768529738457, 0.15984412689153613, 0.15988195502409155, 0.159904426514638, 0.15990978636025513, 0.15990109149096243, 0.15987193988436688, 0.15985387952130314, 0.15978744746669, 0.15970568826649711, 0.15960080367864793, 0.15948864608233898, 0.1593351559770323, 0.15919325006619883, 0.15903335064742766, 0.15883442380246077, 0.15864156827196532, 0.15845177709891792, 0.15821871604563612, 0.1579685298442237, 0.15773449560663003, 0.15744594822019609, 0.1571127665528992, 0.15679737851188696, 0.1564647368135536, 0.1560990437190307, 0.15573411060788908, 0.15538600171283992, 0.15498100782758195, 0.154560418059843, 0.15408483671611922, 0.1536377333692373, 0.15317636469768492, 0.1526929765648844, 0.15219229657431077, 0.15168511549847133, 0.15114914051381184, 0.15057818314407553, 0.15001251047770103, 0.1494298870223135, 0.1488555064092095, 0.14823659134173597, 0.14761268367469602, 0.14696291764464184, 0.14629894714148628, 0.1455882558461446, 0.14489993145492452, 0.14421975188780803, 0.14349660482062188, 0.14275937328818059, 0.14202929829744507, 0.14126149043612263, 0.1404380123534207, 0.13965040271292423, 0.13884771823975214, 0.1380711257887244, 0.13723421168326233, 0.13634324967788286, 0.1354882128410226, 0.1346190899119922, 0.13374987621325277, 0.13285202847041377, 0.13192688129875438, 0.13100680957189503, 0.13007418484886998, 0.12911577217301962, 0.1281608453883872, 0.1271974401458647, 0.12621796341081762, 0.12522730114204725, 0.12425000053222457, 0.12323500082977532, 0.12223315009034179, 0.12119799136589646, 0.12015559071712364, 0.1191029175413705, 0.11804642577738182, 0.11695162104071341, 0.11588449177881141, 0.11480853920274121, 0.11371434706261527, 0.1126231976603026, 0.11155861685654331, 0.11044714936156506, 0.10933033389408518, 0.1081871542677251, 0.1070627593877003, 0.10591568590555832, 0.10478164700822529, 0.10364134379417791, 0.10254513239378853, 0.10138743412939119, 0.10022313463318012, 0.09906190181269307, 0.09789843606244136, 0.09672833268247286, 0.09556138420536091, 0.094367467864901, 0.09319983385538981, 0.09202923585602174, 0.09086972609381445, 0.0896928195995292, 0.08854600143271518, 0.0873636956364414, 0.08618283879902597, 0.08499215105749466, 0.08381581937145532, 0.0826193987198954, 0.08144810871014603, 0.08027717292706651, 0.07911532536305069, 0.07794530180430874, 0.07678186262505525, 0.0756156874469357, 0.07445245531223069, 0.07333400310937549, 0.07217224227380634, 0.07103095672271807, 0.06987956907587697, 0.06873504925870443, 0.06761393563627079, 0.06648084368102032, 0.06535468208339598, 0.06423696877536039, 0.06312677197864389, 0.062054328351410906, 0.06095542089828154, 0.059853788192043615, 0.05877501196559842, 0.057704726410172, 0.056694390242265184, 0.05563485678837108, 0.054568135625761925, 0.05353414543466245, 0.052510370578411555, 0.05153840755899128, 0.050529963186589456, 0.04956904925256202, 0.04858156107844082, 0.04761527269184914, 0.04665537384905623, 0.04570964296989742, 0.044776327339882224, 0.0438584732811816, 0.04298819404489421, 0.04209315536786857, 0.04121358377985478, 0.040370422679071205, 0.039518541193496, 0.03874408132364957, 0.03791670267016323, 0.037108654909220024, 0.03630426790185464, 0.03553523172180543, 0.03485284699407858, 0.034109162398052104, 0.03338631453896849, 0.032693554390335486, 0.032009540345190865, 0.03139011857586162, 0.030740155483810185, 0.030112123786574675, 0.029534211783630984, 0.028944953976683462, 0.02836061716401717, 0.02781770521636859, 0.02729532234940189, 0.02681829202826396, 0.026333545795476695, 0.02591742672923933, 0.025470175028103118, 0.025047113096989496, 0.02466446788359049, 0.024286591301747235, 0.023970705254612316, 0.02363619815236078, 0.02332755257003388, 0.02304509707280388, 0.0227868971865777, 0.022588363424420707, 0.022375416444832503, 0.0221890564755773, 0.02205162822417614, 0.02191469206398599, 0.02183133685959076, 0.021745047240525762, 0.021686896309852998, 0.021645206237549102, 0.02164382066380366, 0.021692578729522613, 0.021741648092828195, 0.021818750879011424, 0.02193509487922689, 0.022066510019365188, 0.02228304922533229, 0.0224641398574852, 0.022676776848357737, 0.022903147072252647, 0.023179862674170947, 0.023511045508715654, 0.023843623169929922, 0.024207077074709985, 0.024640531451767537, 0.02506032808164001, 0.02548944972813293, 0.025977375495173597, 0.0264961535044173, 0.02709792381447339, 0.027671862668231243, 0.028277428766519834, 0.028919121222217018, 0.029594012634233866, 0.030311762654513866, 0.031051376026368278, 0.03183347635229303, 0.03263868648433986, 0.033477678573865625, 0.034342813591683376, 0.0352501193675435, 0.036210304468717806, 0.03718168590294134, 0.03818760801137092, 0.03926506662457166, 0.04033533760849583, 0.04141352622938381, 0.042560450121664636, 0.04374197512781439, 0.04499220531882861, 0.04623895675931139, 0.047533149292704066, 0.04885215900014641, 0.05020840845840246, 0.05157682856134614, 0.053010349996475636, 0.054494544518140696, 0.055997457516068425, 0.0575371433418405, 0.059119711127606285, 0.06073238738168872, 0.062368813294403955, 0.0640579658894056, 0.06578383229767755, 0.06758438481535005, 0.06937947643199006, 0.07118525675451007, 0.07306265871871567, 0.07497763807324317, 0.07694774316692403, 0.07893618545896307, 0.08094629970712866, 0.08301505854065919, 0.08512194098251383, 0.08730264053520777, 0.08948181304160426, 0.09166081601408317, 0.09392628222313171, 0.09622985728598261, 0.0985861456968836, 0.10096484781327394, 0.10339977329215176, 0.10585565055043811, 0.10835221159129711, 0.1108606817755751, 0.11344206821791585, 0.11609713709025923, 0.11875218285190678, 0.12144849175341421, 0.12415421403995218, 0.12693673429090957, 0.12976297419058244, 0.1326234775316252, 0.13552376858041199, 0.1384503534421778, 0.14143224593788703, 0.14446553132322595, 0.14752467796189575, 0.1506241327435564, 0.15373445673880612, 0.15691833139361946, 0.1601620748217072, 0.16342093548601516, 0.1667201307348714, 0.17004756401651755, 0.17342892455871012, 0.17684535301237275, 0.1803065473858574, 0.1838071821852533, 0.18734957600198832, 0.19092893702158073, 0.19453057378610267, 0.1981914092005713, 0.2018908435947504, 0.2056334863926776, 0.20940974123333628, 0.21323858476832086, 0.21709104729208234, 0.22098314356134716, 0.2248791635501427, 0.2288544223090198, 0.23289618662349587, 0.23694187009505543, 0.24102635672813236, 0.24515016484627128, 0.24931144631794847, 0.25346626878499023, 0.257709172604029, 0.2619871785105747, 0.26631926961823355, 0.2706653218469599, 0.27503860541937575, 0.2794582067732236, 0.2839131899937474, 0.2884041521056512, 0.2929293019226008, 0.29750141406410446, 0.30209454415254866, 0.3067227320779051, 0.31133271360287484, 0.31603658138575436, 0.32081673972566377, 0.32557682045725483, 0.3303704124808517, 0.335188762932267, 0.3400491005740582, 0.3449260351898319, 0.34985131420843485, 0.35480666675374334, 0.35977895644439317, 0.3647951791558996, 0.36981411065198044, 0.3748901151822484, 0.37999251295801234, 0.3850969992763165, 0.39025480784893785, 0.3954408907380463, 0.4006471289094486, 0.40587783745019573, 0.4111509064585696, 0.4164274783243006, 0.4217271431698463, 0.4270525819893268, 0.43239314245448307, 0.4377659374480487, 0.4431605574538267, 0.44857420387402325, 0.4540111401537959, 0.4594189922560002, 0.4649016145630624, 0.4704003224046216, 0.47593150845486865, 0.48145952653065277, 0.4870165197373435, 0.49257462438569294, 0.49814844706576816, 0.5036889117360976, 0.5092981152451136, 0.5149128340039536, 0.5205439422371042, 0.5261847516643118, 0.5318234822177771, 0.5374837333263788, 0.5431402163619041, 0.5488165261431482, 0.554498701027024, 0.5602262726303034, 0.5659135154935634, 0.5715860126636384, 0.5772877690129375, 0.582992782509548, 0.5886571716950781, 0.594371686733627, 0.6000807661476252, 0.6057919208603011, 0.611500102247007, 0.6171865728328296, 0.6228892396212542, 0.6285761344004058, 0.6342675481869963, 0.6399512131617552, 0.6456582416902297, 0.6513204743348678, 0.656940712223136, 0.6625902338307179, 0.6682277986233757, 0.6738269521512961, 0.6794415198925671, 0.6850168600970348, 0.6906021185971337, 0.6961688798399552, 0.701712034966179, 0.7072405832348174, 0.712759041879396, 0.7182442009387296, 0.7237078031361358, 0.7291345951519592, 0.7345541783823608, 0.7399342672853859, 0.7453045307505815, 0.7506470992150795, 0.7559392541130648, 0.7612267443495645, 0.7664880653964746, 0.7717112345809116, 0.7769017227073256, 0.7820186141403617, 0.7871461641380072, 0.7922202186366885, 0.7972738875236578, 0.8022877146821776, 0.8072573044058035, 0.812190009862716, 0.8170609821401281, 0.8219112422294781, 0.8267167582560808, 0.8314685366144631, 0.8361835151292218, 0.8408420144037307, 0.8454625577136495, 0.850033621776413, 0.8545740867894868, 0.8590413718266742, 0.8634246217045392, 0.8677935039987853, 0.872107669649908, 0.8763799505576081, 0.8805806234323118, 0.8846750722017857, 0.8887683775225411, 0.8928005970671278, 0.896772670802894, 0.9006807635769061, 0.9045426203860087, 0.9083221788816818, 0.9120383527867068, 0.9156562380491938, 0.9192472316975072, 0.9227687069848682, 0.9262232457813836, 0.9296083992205019, 0.9329008247585879, 0.9361480276587353, 0.9393391110602209, 0.94243818204841, 0.9454643213493031, 0.9484160361582049, 0.9512941911308932, 0.9540858148752529, 0.9568142712865295, 0.9594654228880158, 0.9620114297059419, 0.9645094908366614, 0.96696532980013, 0.9692965789144599, 0.9715483605094148, 0.9737100756341233, 0.9758018599039098, 0.9777871911107133, 0.9797168610618111, 0.9815616683315517, 0.9833317935626024, 0.9850043380173937, 0.9865649570888976, 0.9880693920663207, 0.9894858874149325, 0.9908164544365432, 0.992056006085917, 0.9932273495471081, 0.9942868063126908, 0.9952582061679593, 0.9960957574854312, 0.9968954342893125, 0.9975926429751926, 0.9982098654669183, 0.998734561330273, 0.9991796155505125, 0.9995177329695177, 0.9997875304876807, 0.9999390882625485, 1.0, 0.9999405110882043, 0.999823030700536, 0.9996510261186669, 0.9993426037058367, 0.998943386262411, 0.9984047639644185, 0.9978293617265095, 0.9971802332303139, 0.9964142673742442, 0.9955558533733052, 0.9945990427988487, 0.993556805730598, 0.9924221308669416, 0.9911952251876212, 0.9898763116662006, 0.9884943430812647, 0.9869885222689266, 0.9853817473102324, 0.9836981859942726, 0.981924551562881, 0.9800520314597347, 0.9781001948586957, 0.9760828199723387, 0.9739489184887147, 0.9717275332394699, 0.9693751179438659, 0.9669851880621547, 0.9645380237329442, 0.9619669077789029, 0.9593101313099427, 0.9565417557451241, 0.9537185573368702, 0.950819658440165, 0.9478249891225055, 0.9447469871553106, 0.9416052913289822, 0.9383604998560506, 0.9349873772495689, 0.9315894045044832, 0.9281100830641424, 0.9245792376492203, 0.9209369107959497, 0.9171841425331368, 0.9133940844953968, 0.9095274001429154, 0.9055897922219277, 0.9015727786338652, 0.8974783373378706, 0.8933172173185432, 0.8890851677001629, 0.8847795607526264, 0.8804095808679477, 0.8759908034047047, 0.8714842478209003, 0.8669134419542848, 0.8622764045441899, 0.8575806274496927, 0.8528160688191914, 0.8479999311806313, 0.8431244335838962, 0.8382270786821463, 0.833231988884697, 0.8281810440454523, 0.8230800417472586, 0.8179280828099951, 0.8127246496402625, 0.8074717645895124, 0.8021660537795422, 0.7968183523973648, 0.7913791908917459, 0.7859462667516942, 0.7804672850309672, 0.7749499937136388, 0.7693832170671641, 0.7637802928326252, 0.7581331684336189, 0.7524487818007541, 0.7467384865005057, 0.740982922440484, 0.7351952302950793, 0.7293768538972938, 0.7235292455584093, 0.7176523544232605, 0.7117508618315123, 0.7058108549181894, 0.6998627483206504, 0.6938919564079747, 0.6879303144454005, 0.681915155069141, 0.6758513219208658, 0.669809245951509, 0.6637518694551459, 0.6576543922321905, 0.6515746807557788, 0.6454853455160835, 0.6393833836342788, 0.6332732546845288, 0.6271581955002583, 0.6210366883519867, 0.6149567687530026, 0.6088252709197848, 0.6026965229643497, 0.5965573997980237, 0.5904396863450865, 0.5843171069912708, 0.5782135710269217, 0.5721179868266237, 0.5660061685550523, 0.5599342390426335, 0.553873301811994, 0.5478250365416749, 0.5417910865541873, 0.5357934622196221, 0.5297903593175874, 0.52379082755262, 0.5178315698383239, 0.5118942767060015, 0.5059872231562348, 0.5000973987703698, 0.4942267159510059, 0.48839259105863875, 0.482587422537161, 0.476826190307309, 0.47108132957210025, 0.46534532324391825, 0.45967239596889653, 0.4540342557720316, 0.44844060036332933, 0.44287510714481987, 0.4373579903084486, 0.431871188628044, 0.42642662167225037, 0.4209861005788408, 0.41563426417612276, 0.4103468805348384, 0.4050803378876087, 0.3998609774260893, 0.39466874334007174, 0.38954969744086104, 0.38445568821117193, 0.37943932089722454, 0.3744731449957362, 0.3696098330530999, 0.36474135298143445, 0.35992585013944206, 0.35517204964094984, 0.3504761716938576, 0.3458117277409368, 0.34123726194866677, 0.3366956066756331, 0.332242285786212, 0.3278477726205057, 0.3235463334701962, 0.3192682284506545, 0.3150136224204322, 0.3108682436609663, 0.30678528603169436, 0.30281622677765463, 0.298854206678064, 0.2949046682282322, 0.29108517536420664, 0.28733077205378704, 0.283649726603441, 0.28002662395131683, 0.27649668523915655, 0.27300576314579267, 0.26958467628423693, 0.2662283263310404, 0.26294813750409296, 0.259710816061669, 0.2565743934602622, 0.25350686993304583, 0.2505063427712763, 0.24757794674528266, 0.24472304672570622, 0.2419338499170474, 0.23921501971029052, 0.2365462772838973, 0.23397108901690297, 0.2314706672458764, 0.22903394261781193, 0.22666729353413312, 0.22434354859969108, 0.2221205368830107, 0.22001741749595152, 0.21792505860408307, 0.21590428187314537, 0.21390027253952426, 0.21202829785905933, 0.21022586637862511, 0.20848816355624733, 0.20681781217156875, 0.20521316568068582, 0.2036772489710274, 0.20221937046234445, 0.2008151561831181, 0.19947769063808996, 0.1982322117940393, 0.19702360995495222, 0.1958333986853973, 0.19476366690373503, 0.1937564868311265, 0.19280319259986092, 0.19192105267276463, 0.19113605345521328, 0.19037064109945018, 0.189667224499279, 0.1890325409809389, 0.1884496978178391, 0.18792226397780287, 0.18745897843728196, 0.18705357787948962, 0.18668554928840447, 0.1863957925492556, 0.18617530470734384, 0.18599121789048736, 0.18586064121694915, 0.18573506238601872, 0.1857147850748015, 0.18579396662054826, 0.18586279162541258, 0.18598140487880468, 0.18612076774709788, 0.18633925003654067, 0.18658684584957244, 0.18689644413455753, 0.18724840019742123, 0.18766006933411247, 0.18809207115455215, 0.18857330651486626, 0.1890850666655654, 0.1896361332884896, 0.19018231183105372, 0.1908140575273351, 0.1914997092025984, 0.19219509823915593, 0.19292351775731825, 0.19370886509311772, 0.1944970643893972, 0.1952863097425389, 0.19613958768258324, 0.19701988726057115, 0.19791334870954636, 0.19884625256956015, 0.19978120114659378, 0.2007622198991431, 0.201763300730193, 0.20278964609916222, 0.2038275182950966, 0.20492394696571983, 0.20599116703318487, 0.20707640515426376, 0.20812615361945613, 0.2092499289340996, 0.21041044243383802, 0.21155218103158252, 0.21270460896031795, 0.2138862217594506, 0.21505409659380798, 0.2162257868755754, 0.21740963405386923, 0.21859900241492902, 0.21979116602307144, 0.22098814138374565, 0.22216504950589389, 0.22336733476648246, 0.22456794886147988, 0.22578710359491364, 0.22697885860463687, 0.22813629629193552, 0.2293241618437807, 0.23051906550984425, 0.23168963649005211, 0.23285199679845306, 0.23400969999102364, 0.23515213306670765, 0.23628293730285926, 0.23740272781266714, 0.23850963394940797, 0.23958456517110216, 0.2406651409392025, 0.2417493901625533, 0.24279316473684937, 0.24381982096331115, 0.24483598110005225, 0.24582466594860775, 0.2467470735076749, 0.24770189082012986, 0.2486328171822569, 0.2495484224012198, 0.2504289085145256, 0.25129806537110233, 0.2521263532479384, 0.25292923699423325, 0.2537150576551955, 0.2544638259900234, 0.2551477941313125, 0.25584655332137435, 0.25651470941517185, 0.2571858777386398, 0.257787358284444, 0.2583173974145023, 0.258863681958624, 0.2593764160834224, 0.25985833573409367, 0.26030271623941215, 0.26075816177407707, 0.26112793402771695, 0.26146531154747954, 0.2617393759035125, 0.26201375213018696, 0.2622800599006867, 0.2624785431555552, 0.26264196905271475, 0.2627509437504191, 0.26284517453191714, 0.26292154873138596, 0.2629380628757779, 0.262917739115906, 0.2628141374309383, 0.2627249580812103, 0.2626150677152924, 0.2624428240665527, 0.26223157951896686, 0.26198204314781925, 0.26169257506449317, 0.2613904955752817, 0.26101955890469675, 0.26061104458125467, 0.26012396015303585, 0.2596449216501845, 0.2591588180008724, 0.2585952136738971, 0.257993680854719, 0.2573458957139715, 0.2566695533902976, 0.2559269210181968, 0.25517759778590415, 0.2543886940132264, 0.25358933863620214, 0.2527188846204053, 0.2518079115348528, 0.25086462217813893, 0.24988474538404332, 0.24883075449848177, 0.24778326032290074, 0.24669032532137333, 0.2455686357231143, 0.24440985696713244, 0.2432463705967718, 0.24201132105390927, 0.2407398251856643, 0.23943865237801143, 0.2381045922167826, 0.23674032017959673, 0.23534144185956168, 0.23388916812275287, 0.23243053471651628, 0.2309400880615272, 0.22941545853261253, 0.2278637210173746, 0.22628647970963123, 0.22467476148916968, 0.22303459121377434, 0.22141041850614537, 0.2197096821102446, 0.2179372378716672, 0.2161945954474542, 0.21442579697083747, 0.21267165165121144, 0.21084775980474482, 0.20900525349055377, 0.2071381328326699, 0.20525043658655906, 0.2033290388997541, 0.2014033704111622, 0.19946922274444798, 0.19750317471572995, 0.1955193220193938, 0.19348956542229537, 0.1914755959578846, 0.18945998216833226, 0.18740988703685094, 0.1853449666723306, 0.18323877263661437, 0.18114990548436638, 0.17905300581876182, 0.17693620566902746, 0.17480761548637852, 0.1726545264788255, 0.17050673783657988, 0.16839210032205068, 0.16621999377392416, 0.16404228879522284, 0.16181875400616968, 0.15963674603626868, 0.15746222821806713, 0.1552672388135197, 0.15306879577984703, 0.15088734655688932, 0.14868191057244348, 0.14643872687596582, 0.14423875346492165, 0.14203794763693595, 0.1398682371941809, 0.13766466610564657, 0.13548214130953745, 0.13328432788939878, 0.13109240514125275, 0.12889628976056658, 0.1267189936443003, 0.12453343279942988, 0.12237238106442148, 0.12021861075728815, 0.11806306595661543, 0.11592738685358121, 0.11383772066438051, 0.11171614235280755, 0.10960721677883911, 0.10750460580558957, 0.1054232483465922, 0.10335408324801554, 0.10130088148440154, 0.09926241543395325, 0.09719694372920701, 0.09519501239955706, 0.09320488219987445, 0.09123227405048558, 0.08927535997968718, 0.08737274578035799, 0.08544487712700216, 0.08354170533934462, 0.08165398907224176, 0.07978749045424399, 0.07790403902948996, 0.07608594628943925, 0.07429179016607916, 0.07251421730425589, 0.07075833603853311, 0.06903076422184987, 0.06731918993248252, 0.0656637644865239, 0.06399583466655148, 0.06235423818360351, 0.06069150734306152, 0.05910901391794342, 0.05756875803718033, 0.056032727668858966, 0.0545228755740925, 0.05306899326832309, 0.05160872342705739, 0.05014999963783557, 0.04875069677832949, 0.04737869246827053, 0.04602292591231255, 0.04470775120970912, 0.043453245320563993, 0.04218901831355845, 0.0409546620758556, 0.03973580116323331, 0.03856295053104036, 0.03740325693186638, 0.03629057086483879, 0.03520622373822267, 0.03419122726089952, 0.03315899832657181, 0.032103537090312315, 0.031140325196888086, 0.03020484052725015, 0.029344192090224736, 0.02845898061119784, 0.027579091440218112, 0.026758914415213234, 0.025958018242256575, 0.02519727677338262, 0.024465041031950935, 0.02380818517238665, 0.023127091647534147, 0.02244993151780194, 0.02183411884918511, 0.02124708149231721, 0.020697720278049423, 0.020166577942396038, 0.01963547732585081, 0.019165203584192856, 0.01872153023445589, 0.018347482321103826, 0.01795140064179276, 0.01758637792412243, 0.017247114381686246, 0.016935827950229007, 0.01662711747473357, 0.016373552699901497, 0.016135383898752607, 0.015933268384105567, 0.015755343011004164, 0.015584800040509479, 0.015456777202911864, 0.015365738755557438, 0.015281033740030637, 0.015219478512299912, 0.015204941239544932, 0.015185678254886323, 0.015209583450247052, 0.015234327728726153, 0.015282598860626235, 0.01533934714094571, 0.015434433966891158, 0.015564596037895402, 0.015698799746284298, 0.01585352087488512, 0.016003967058190377, 0.016200957155164203, 0.016403226881027876, 0.016636109392046166, 0.016884920585547785, 0.017133490278474828, 0.017415233369856873, 0.01773823895121963, 0.018044424441743055, 0.018365682707875725, 0.018714335000151763, 0.019062542378897453, 0.019429503312154678, 0.01980494848140089, 0.02019362257121596, 0.020591861538000408, 0.021005465437219813, 0.021387177709979218, 0.021828004585678934, 0.02227644517814339, 0.022776863610465485, 0.023234210726682275, 0.023661629195878643, 0.024141996103144804, 0.024628193077690444, 0.025116875742443836, 0.02561412519861334, 0.026146979789708355, 0.026649202520095974, 0.027157047859093533, 0.0276494683412206, 0.028169215375811962, 0.028705904850884183, 0.029228572389641376, 0.029753751878311595, 0.030250655315170873, 0.030782997472634133, 0.03133942689192342, 0.031866629235598624, 0.032393777828240905, 0.03293771938083873, 0.03346097644662094, 0.03394127335772148, 0.034467942355451774, 0.03499032710709197, 0.035514974067293516, 0.03602714930337799, 0.036570117439111226, 0.037068003254591815, 0.037562438696853474, 0.03803539166556113, 0.03852319643250033, 0.03902586867310409, 0.039497998818444624, 0.03996419419909627, 0.04042917180671617, 0.040881143021242294, 0.04128504739624286, 0.04172711905680369, 0.042158607895196876, 0.04262168387518487, 0.043026212254409224, 0.043430372089771144, 0.04381596846170221, 0.04419234312314651, 0.044546884021449094, 0.04490481376759277, 0.04526423063631702, 0.04559749938273719, 0.04591950703624466, 0.046261599206213366, 0.04655593295962949, 0.04684423694602218, 0.04711630750772588, 0.047376997758566644, 0.04761674659718662, 0.04785439164324277, 0.04806974674911862, 0.0482818114793826, 0.04847961212839809, 0.0486758428983619, 0.04884305479943866, 0.04904014311185031, 0.049173709551979715, 0.04929539751109864, 0.04940620876612007, 0.04950248689640108, 0.04962114963022428, 0.049686341727180915, 0.049739772281900685, 0.049774115810562604, 0.04980338632084826, 0.04987130294648951, 0.04986674599367477, 0.04985116595390218, 0.04982398756155255, 0.049784730401296676, 0.04974206698693449, 0.049676399474611645, 0.049598203093278705, 0.0495366890595322, 0.04942900395611368, 0.04933479864238427, 0.04920073612108289, 0.0490560655581686, 0.04897068929264891, 0.048794901660883655, 0.048641824437360315, 0.04844649425283283, 0.048244092445728116, 0.048005224119141994, 0.0477904011345307, 0.04763703144320213, 0.047392399334359875, 0.04714138543705213, 0.04690236102306073, 0.046634767450189636, 0.04636520093727748, 0.04608369607428276, 0.04579539926697395, 0.04552055867845435, 0.04521573183964882, 0.044957201331418846, 0.04463403282882509, 0.04430789482673696, 0.04398072477954835, 0.04364749172048648, 0.043347039769988154, 0.04300221688511021, 0.04265596938253666, 0.042337606576508265, 0.04198441060289864, 0.04165015558570628, 0.04129455432555789, 0.0409399275769793, 0.04057788427314274, 0.040226117276707295, 0.03991872832888875, 0.039562777376385444, 0.03921039928898363, 0.038872182215468586, 0.03852573107022948, 0.03823738079274673, 0.037893216873086104, 0.03755691553009062, 0.037201142787057086, 0.036883717376492695, 0.036631482005745786, 0.036319490216141365, 0.03601786485952088, 0.03575833678804163, 0.035473514928339125, 0.03520185953026558, 0.034941759788286154, 0.03469420269476504, 0.03448731905735931, 0.034261910845537764, 0.03403926799247075, 0.033845251416538526, 0.033665797490074235, 0.03351944072107885, 0.033368069314254976, 0.03324495448709613, 0.033126378849627144, 0.03302617849472496, 0.03297496222594555, 0.03290889446855757, 0.03286645901752158, 0.03284310466991643, 0.03287962212121913, 0.032896040992503886, 0.032937453266880995, 0.032982100998595214, 0.03307680815325686, 0.03318991193286826, 0.03333479420650593, 0.03350486291789342, 0.03375137146973221, 0.03396731142430447, 0.03421924738741048, 0.03449457963765707, 0.034800766706266174, 0.03514265294951854, 0.035510957558627765, 0.03588726456525659, 0.036323391076353746, 0.03679118145385823, 0.037289786748445526, 0.03782308417664068, 0.03843528583017781, 0.03903066182623866, 0.03966349319151097, 0.04030309901257806, 0.041015691726873034, 0.041783895806239243, 0.04256818978415777, 0.04339155164063443, 0.04423481556695411, 0.0451402459987161, 0.046085107860173155, 0.04707006089139009, 0.04809574812981865, 0.04918621944437411, 0.050292276244531586, 0.05143767813411432, 0.05263245454489378, 0.05387164062576328, 0.055173808680481384, 0.05650083411225897, 0.05788441891566651, 0.059303960713075136, 0.06077137400431572, 0.062272532787112644, 0.06383821316407862, 0.06545774576850269, 0.06711866701760605, 0.06882851017942733, 0.07057551576550254, 0.07238572008143579, 0.07424741917453209, 0.07615621166289427, 0.07811517945008953, 0.08009219749523892, 0.08215670529418666, 0.08430386182963706, 0.0864635516072842, 0.08867562266821273, 0.09090780467426345, 0.09322939803299649, 0.09560898248590068, 0.09803254971633099, 0.100508550461963, 0.10302445317987095, 0.1056078543003013, 0.10827781772248202, 0.11096236789332661, 0.11370200128963216, 0.11646722643223388, 0.11932068115517698, 0.12226527040535726, 0.12522086429646317, 0.12823231213002348, 0.13124429215964134, 0.13437393922223753, 0.13757023026127416, 0.14080293251615808, 0.1440892643108025, 0.14745423587143644, 0.15084486840099068, 0.15424759206059008, 0.15775377294580276, 0.16131225913743047, 0.16490503785490476, 0.16857074365691718, 0.17232800621958205, 0.17609180066202626, 0.17990955852112608, 0.1837379098139758, 0.18766812729069438, 0.19165727031630672, 0.1956876800808085, 0.19976914700838547, 0.2039166279717856, 0.20809779552281044, 0.21228268941758094, 0.2165721500597378, 0.22090948492385115, 0.22532110665013852, 0.22975068347274738, 0.23418702115205298, 0.23871967522200493, 0.24329816303960608, 0.2479661823384724, 0.2526303529129485, 0.25734074042253774, 0.26209990439176817, 0.2669053983593816, 0.2717490133043147, 0.2766461557200029, 0.2815517085063614, 0.2865405714551261, 0.2915701159010744, 0.2966392235351676, 0.3017490877005571, 0.3069066662081142, 0.3120937876637108, 0.3173197427690305, 0.3225680212442435, 0.32787169480814443, 0.33319165910483284, 0.3385690983400667, 0.34398015187629877, 0.3494265804873876, 0.354903005769454, 0.360395634636729, 0.36593753984336574, 0.37150925038083377, 0.37712904174924805, 0.382756083272773, 0.3884036952653809, 0.3940886530995891, 0.3998002112951668, 0.40554732617732653, 0.4113082201889019, 0.41707092947601665, 0.42288264473745135, 0.42871553995860595, 0.4345808585440699, 0.44045201620723384, 0.4462932910962332, 0.4522080926798738, 0.4581373016787264, 0.4640749732498194, 0.47003163950455057, 0.47598743166792945, 0.48196888868926013, 0.48795999531811884, 0.49398189691302036, 0.4999871780580749, 0.5059744368424484, 0.5119988204172143, 0.5180279494298099, 0.5240790497031098, 0.5301126112923373, 0.5361392718907174, 0.5421787566157219, 0.5482182765814416, 0.5542491726567412, 0.5602863911728381, 0.5662873695133452, 0.5723201070746708, 0.5783450722278715, 0.5843523319022261, 0.5903602530720689, 0.5963647127907978, 0.602348722157332, 0.6083202520965538, 0.6142261032763079, 0.6201760502661049, 0.6260899477424837, 0.6320040365942674, 0.6378969821616962, 0.643770345598746, 0.6496185287136595, 0.6554599929031293, 0.661258472800902, 0.6670326610094336, 0.6727323031339543, 0.6784606756996854, 0.6841842118029187, 0.6898474866491318, 0.6954800246290075, 0.7010247968342099, 0.7065995657599211, 0.7121718150750357, 0.7176669192167836, 0.7231251984023105, 0.7284986856892107, 0.7338858618166618, 0.7392286671608069, 0.7445295326212351, 0.7497858347404553, 0.75498612415442, 0.7601519821363852, 0.765229903817421, 0.7703041513711437, 0.7753264369479395, 0.7802870542326379, 0.7852045792736203, 0.7900773507369846, 0.7948837432457352, 0.7996610296371225, 0.8043520630057336, 0.8089871786336521, 0.8134964443953253, 0.8180249084187714, 0.8225135290555184, 0.826911909217901, 0.8312471047869537, 0.8355174808430946, 0.8397237479736728, 0.8438142345357906, 0.8478940727474248, 0.8519033711870816, 0.8558801448883644, 0.8597418806193392, 0.863520691013619, 0.8672429325384468, 0.8708924662764934, 0.8744684576500976, 0.877970071963351, 0.8813496301544461, 0.8847059219970647, 0.8879827280573428, 0.8911682796944236, 0.8942862070527429, 0.897358119469454, 0.9003080671328992, 0.9031775822443237, 0.9059167770693028, 0.90862933071441, 0.9112783347524938, 0.9138168664424497, 0.9162704811265824, 0.9186204873222066, 0.9209048923708122, 0.9231168149226034, 0.9252237258605871, 0.9272430933870102, 0.9291441653821262, 0.9309906965650235, 0.9327744037141417, 0.9344355989997107, 0.9360070923216145, 0.937440041906729, 0.9388368179334406, 0.9401292193345234, 0.9413397168094675, 0.9424557538150815, 0.9434939729088506, 0.9444190211332988, 0.9452467541183288, 0.9459850332726206, 0.9466292251915499, 0.9471595578342646, 0.9476176866034025, 0.9480256052120144, 0.9482869694623656, 0.9484554447413789, 0.9485072938449856, 0.9484920573461844, 0.9483795452006235, 0.9481745850686296, 0.9478745219666346, 0.9474643069327148, 0.9469761551086642, 0.9464096737565717, 0.9457281484982636, 0.9449523762785065, 0.9440537578008646, 0.9430934885728953, 0.9420272023762136, 0.940877817158909, 0.9396332450211186, 0.938302304685066, 0.9368678218202837, 0.9353499435053274, 0.9337282097357661, 0.932014673725813, 0.9302338843423614, 0.9283348190294133, 0.926341197721123, 0.924264512696266, 0.9220988023388569, 0.9198142241881785, 0.917475466951173, 0.9150789807677752, 0.9125580182730073, 0.9099508473880891, 0.9072073335100326, 0.9044356566203509, 0.9016241190319031, 0.8986725065022109, 0.8956381052907504, 0.8925101798932372, 0.8893134678530868, 0.8860458176643181, 0.8826855344379355, 0.879245949156662, 0.8757134638427858, 0.872119396709734, 0.8684211458087613, 0.8646759123092468, 0.8608534019171165, 0.8569495314031218, 0.8529767414933656, 0.8489737861074199, 0.8448486948632175, 0.8406545027142835, 0.8363633473374321, 0.832037173265213, 0.8276709085856915, 0.8232062951381597, 0.8186775884527633, 0.8140426945060468, 0.8093942051637972, 0.8046837400754067, 0.7999095016086583, 0.7950746775830922, 0.7901882000266346, 0.7852353690463987, 0.7802483929176501, 0.7751819715879616, 0.7700633168323074, 0.7649003570472266, 0.759679787111258, 0.7543926956746172, 0.7490787947130121, 0.7437178192618276, 0.7382884543140233, 0.7328402615844349, 0.7273500686494792, 0.7218146111765344, 0.7162381096182063, 0.7106175380171256, 0.7049640343814593, 0.699301683654026, 0.6935725553258264, 0.6878112180002356, 0.6819826769403396, 0.676165348653907, 0.6703131216120952, 0.6644372559665558, 0.6585339891323337, 0.6526480061358573, 0.6466893181846273, 0.6407013649870058, 0.6347046390426085, 0.6286896570376629, 0.6226161978165012, 0.6165739808460647, 0.6105303345041158, 0.6044548292408284, 0.5983670079613115, 0.59225554620673, 0.5861492664422444, 0.5800261633129388, 0.5739054991575518, 0.5677790099528109, 0.5616679511090295, 0.555532129210235, 0.5493819750370994, 0.543249389252629, 0.5371187644540547, 0.5309825151788679, 0.5248613855887108, 0.5187574333743643, 0.5126480603198028, 0.5065481474441577, 0.5004583028428254, 0.4943814863722857, 0.4883068131802059, 0.4822597223074539, 0.47622813750552595, 0.47021497646590465, 0.464218409476054, 0.45822496244219124, 0.4522713121328124, 0.4463391107761275, 0.4404675635436231, 0.4345777252294082, 0.4286702956260252, 0.4228427026383246, 0.4170423668932048, 0.41127144728224935, 0.40552969911779807, 0.3998465405793229, 0.3941654100582431, 0.38851972152292813, 0.38290518168492427, 0.377334029977859, 0.37177304208500017, 0.36628269064521324, 0.36083092588646276, 0.3554159478263465, 0.3500453638952611, 0.3447054067607947, 0.33942130445023894, 0.3341807418577248, 0.32902037371374726, 0.3238657788260027, 0.31875924859708676, 0.3137031134174381, 0.30870022169803707, 0.303744866604907, 0.29884133464248425, 0.2939404355317036, 0.2891488848615183, 0.28441215005416204, 0.27972325090792977, 0.2750876473149848, 0.27052966707987625, 0.2660003557396411, 0.2615161298657386, 0.257103270205778, 0.2527480338480048, 0.24841931687460406, 0.2441852007633646, 0.2400102359634821, 0.2358920014758399, 0.23183301554234498, 0.22782336131098418, 0.2238861418180104, 0.2200456754631837, 0.21622543704205327, 0.2124688592672903, 0.20876254157902588, 0.2051355930874562, 0.20157059412186001, 0.19807102903219337, 0.19463535382324929, 0.1912517070348112, 0.18794599627236955, 0.18471165351931298, 0.18153285454953252, 0.17841873954302892, 0.17533616980744374, 0.17235592120595986, 0.16943646430655027, 0.16658291303681974, 0.16379282151179794, 0.16106185379048155, 0.1583997937041453, 0.15579608353919247, 0.15326205176045096, 0.1507914755819875, 0.14840780661488745, 0.1460612157695609, 0.1437793364778775, 0.1415618715486096, 0.13940850702623753, 0.13731362313215523, 0.1352881197675209, 0.13330044380090691, 0.13140327941511942, 0.12956678031385632, 0.12780814473003335, 0.1260901919181142, 0.12441960375582607, 0.12282485286026523, 0.12128938686810882, 0.11979998153771929, 0.11838353930338434, 0.11704407266580692, 0.11573943788142337, 0.11449245755396106, 0.11329119273437968, 0.11215912356133276, 0.11106936572399272, 0.11004867342794404, 0.10908127034032468, 0.10816438200998135, 0.1073022847531919, 0.10647887521508839, 0.10572087681287339, 0.10501247681201194, 0.10435312629545586, 0.10374223600365927, 0.10317086787598703, 0.10265603498610534, 0.10218721576162798, 0.10180682403838962, 0.1014225861971749, 0.10107866664702829, 0.10078682123053463, 0.10053881973288874, 0.10033666536731825, 0.10017291850088943, 0.10000405460118122, 0.09992705666512183, 0.09988639817514285, 0.09991619162566148, 0.09994184137451298, 0.09999239224208643, 0.1000909075822833, 0.1002229503517538, 0.10039815907400208, 0.1005930911946093, 0.10077169742325012, 0.10103415290071191, 0.1013231201080655, 0.10168327613937886, 0.10201751462139118, 0.10234772568576567, 0.10273864228838601, 0.10315249974704659, 0.10361865337725075, 0.10407194618209502, 0.10451094585632194, 0.10501161198452445, 0.10552990843873987, 0.10608917514945082, 0.10663713640450408, 0.10715088118782667, 0.10773697004806142, 0.10833445577452712, 0.10895854199531078, 0.10957478242650245, 0.11022840137347166, 0.11086065589954537, 0.11150280056556768, 0.11213631558282738, 0.11279703397499607, 0.11348219131029319, 0.11415067418024524, 0.11482387586973389, 0.11549918954446255, 0.1161787542221229, 0.11681665974043322, 0.11750346687897682, 0.11818723859366784, 0.1188658209497417, 0.11954175782457943, 0.12023372624126501, 0.12089603800483123, 0.12155299460628129, 0.12220520520050554, 0.12284856385794472, 0.1234786861994393, 0.1241059356555517, 0.12472318665056983, 0.12531224533120386, 0.12590925940428405, 0.12648834592570843, 0.12705849656935891, 0.12761369447028725, 0.12818731764373797, 0.12870643279760197, 0.12916981185289422, 0.12966330741460938, 0.1301377915747372, 0.13059274750325994, 0.13102764853715695, 0.13145631726662604, 0.13184768768082922, 0.13221819660777187, 0.13255509876255933, 0.1328834622410171, 0.13319138994981192, 0.13347194623089167, 0.1337282017103443, 0.1339558572844445, 0.13416243647199247, 0.13433315064473672, 0.13448843210016898, 0.13461621938901702, 0.1347592256961132, 0.13482551392518777, 0.13483770877175, 0.13485456861865266, 0.13484239209527546, 0.13478116495873624, 0.1347123098417661, 0.13462434888382666, 0.13449141397607584, 0.13432763890089436, 0.1341335190945837, 0.13390720145472282, 0.13363952474028185, 0.13335115310473064, 0.13303026330512646, 0.1326956332631732, 0.13230698975516633, 0.1318744846776335, 0.13142358600434323, 0.13093978647578533, 0.13045473564162569, 0.12990088073111783, 0.1292937832368486, 0.12867974416950095, 0.12803260457826024, 0.1273266486161059, 0.12661649943657563, 0.125876324518177, 0.12509672340998182, 0.12428329055000402, 0.12344150737262438, 0.12256032104836062, 0.12163107199168023, 0.1206860542865658, 0.11970756762827087, 0.11871102714431224, 0.11766459824920017, 0.11660534008650161, 0.11549326190341352, 0.1143508964330367, 0.11319190376745351, 0.11198745783481366, 0.11074923736638669, 0.10948693386382095, 0.10819074730459018, 0.10687048990642767, 0.10552100569776762, 0.10411158815404903, 0.10270841055608215, 0.10128800375316627, 0.09982364498527713, 0.09833110571646299, 0.09679121017152514, 0.09524620898099702, 0.09368997539277002, 0.09208780801898969, 0.09045999846831419, 0.08882139260657307, 0.08714196004463162, 0.085455050888567, 0.08372732205830488, 0.08197795850586018, 0.08018914022554174, 0.07839977852649596, 0.0765956115941093, 0.0747627375638571, 0.0729097666693998, 0.07101682081080327, 0.06912782005503645, 0.06723732605518999, 0.06530750754788889, 0.06336053160598526, 0.061364477130001, 0.05938901484057395, 0.05742805028137783, 0.055414964957038494, 0.05338812847285279, 0.05133148321919332, 0.04928095590816151, 0.04719783407381654, 0.0451246279508359, 0.04303883427508981, 0.04098289140340296, 0.03886928514402103, 0.03671399148733141, 0.034589792103262386, 0.03245697998150222, 0.03032088497814051, 0.028172647927581704, 0.026009330352662695, 0.023850931447334883, 0.02168744033505228, 0.019564970873567147, 0.017387882884567562, 0.015194671006953072, 0.013019449846574563, 0.010843862512657653, 0.008673763605647365, 0.006498482961208109, 0.004343752203798767, 0.002169956411987375, 0.0