0.057354656046284945, 0.05672695213876883, 0.05612652583450846, 0.055356006197042, 0.054823403279038826, 0.054387243858497414, 0.053854522148035704, 0.053331164167915286, 0.05281574585075652, 0.05230706482799043, 0.05179551791776464, 0.051298562664517065, 0.05080535960669287, 0.05037993854310375, 0.04988481278539818, 0.049374503293807395, 0.04889404499564688, 0.048417478722801936, 0.04790156929298957, 0.04743758958192544, 0.04690582672737058, 0.04645289530971545, 0.045997790973735415, 0.045610212605652296, 0.0451447223272191, 0.04461466171871377, 0.0441664851348599, 0.043719030240621716, 0.04332894257277309, 0.04287806086038935, 0.04233423031634936, 0.04190786491735971, 0.04148216537505365, 0.041131164619935434, 0.040700285732842324, 0.04019073401635425, 0.039785454815635696, 0.03938285498844897, 0.039009517696915304, 0.038611288164204526, 0.03827088990682256, 0.037878958429862504, 0.037496816104366414, 0.0370684318240347, 0.03671254344805455, 0.03635435973260623, 0.036012538775892146, 0.03567724649317436, 0.03533165463891688, 0.035012664286761, 0.03480342181899542, 0.03448490984231476, 0.03417951483304297, 0.03383513641245377, 0.033561048056923413, 0.03326576644143656, 0.0330133877407908, 0.03276842053441988, 0.0325742024805265, 0.03233962267048223, 0.0320642213107589, 0.031857631892385684, 0.03174047810103535, 0.031539433925766275, 0.03135145488640481, 0.03112031578844756, 0.030964595304696974, 0.030839470899228113, 0.030699503344090325, 0.030570375469171945, 0.030460762968598235, 0.03035246878318371, 0.0301439734592634, 0.03007302221740405, 0.03000747556704211, 0.030021392685858544, 0.029960219641260243, 0.029975664767702255, 0.029930703828395827, 0.02990171856109635, 0.02989260769736112, 0.029893894155990374, 0.029875992014065815, 0.02991178714787644, 0.02996040288882629, 0.02998326659142195, 0.030062792594359247, 0.03010176577266561, 0.03021035197769002, 0.030327959377047308, 0.03039519927393785, 0.03054079120277285, 0.03082748792132679, 0.03097293743884745, 0.031135704043747006, 0.03132845502784411, 0.03152356706335916, 0.03168453624328781, 0.031920835737834295, 0.032171254264235054, 0.032474738588414806, 0.032749237305069866, 0.033066520794449904, 0.03337162035433594, 0.03369495295659727, 0.033967451431962135, 0.03433516607282493, 0.03471655536618166, 0.03511201626496781, 0.03552190838738779, 0.0359680544468161, 0.03640503533729513, 0.036798344968917464, 0.037276044451764447, 0.03776701386834726, 0.03835778470800069, 0.03886598376999783, 0.039264734877541424, 0.03982799179350076, 0.040402936633408174, 0.04114943444505751, 0.041729895778544836, 0.04233304021647766, 0.042958106049644826, 0.04360441782220169, 0.044189687704473686, 0.04488709689566522, 0.04557377984507942, 0.04630483918308481, 0.04704998389499707, 0.04787839895488936, 0.04864414353779922, 0.049351469260492976, 0.050164637268801424, 0.05099185114966654, 0.05176038880763696, 0.05262598724518016, 0.053558367049146155, 0.05443947735539351, 0.05533610230962254, 0.05622687752389161, 0.05715760972631302, 0.058184625584535535, 0.05913441554358538, 0.060103732430375714, 0.06107482605072551, 0.06208375530166723, 0.06301511938076614, 0.06406975152505408, 0.06513550386998039, 0.06620855654915364, 0.06729844660137993, 0.06859818337538057, 0.06968749125462952, 0.07080046882432428, 0.07176800331801339, 0.07294536525433262, 0.07415889921259361, 0.07535405253590871, 0.07656157156767592, 0.07780722856019433, 0.07903611692342453, 0.0803216624739656, 0.08157213459699185, 0.08283807783806925, 0.08413175039905747, 0.08542513112696978, 0.08666412986533736, 0.08799440968117823, 0.08933404778851364, 0.09067876553908397, 0.09203769344342441, 0.09350029327727964, 0.09486539249785568, 0.09624478187924763, 0.09747852660142434, 0.09890411626524628, 0.10034130227384416, 0.10177240686786933, 0.10320809528395355, 0.10480347540114208, 0.10622965816828607, 0.1075580637527624, 0.10902525548853959, 0.11049798787700475, 0.11191599833188773, 0.11340717602958485, 0.11499478726304571, 0.11647800737732532, 0.11796891691017213, 0.11942820438337949, 0.12093755893874855, 0.12254523565635714, 0.1240498531015587, 0.12556300119545408, 0.126903054602622, 0.1284530301573192, 0.13011026660177374, 0.13163766621578704, 0.1331679074900301, 0.1347477575053589, 0.13627613007381711, 0.1377654493784936, 0.1393062594525152, 0.14084688867811154, 0.14245999499052445, 0.1439897226340531, 0.1454059892691833, 0.14695462655852212, 0.14849741096584337, 0.14996990372879596, 0.15150923968976018, 0.1531766805144843, 0.1546800790889856, 0.15618244453513494, 0.15763988842582954, 0.15914299321967124, 0.16060142190406815, 0.16209704668023606, 0.16358369135710418, 0.16523752427832347, 0.16668354698294055, 0.16811283109912906, 0.16956030607864284, 0.17100413950227542, 0.17240011216564285, 0.1738385278606678, 0.1752890105459927, 0.17670524671395937, 0.17811208986037286, 0.17946583254391982, 0.1808572347387385, 0.18217033616019537, 0.1835420338508784, 0.1848958101397658, 0.1863738049727801, 0.1876744973120946, 0.18897008965099685, 0.19025035770901366, 0.19151939220406913, 0.1927160517943134, 0.19396746016212565, 0.19530481990394266, 0.1965084518265871, 0.1977001203946208, 0.19879704176922722, 0.1999719309032818, 0.20117457456122123, 0.2023042379610627, 0.20341667459278553, 0.20456721511968498, 0.20563648368735815, 0.20675458383423095, 0.2077834751247049, 0.2087986076284404, 0.2097729280373232, 0.21076016989037355, 0.2117245267541738, 0.21267445723862285, 0.21360426558217746, 0.21451344007625595, 0.2154015230374923, 0.2162724045706749, 0.21711657587354666, 0.21793879363033164, 0.21870863349647002, 0.21948980032340346, 0.2203109335144098, 0.2210349021065498, 0.2218841574101566, 0.2225473325983355, 0.2231968389850712, 0.2237795053909069, 0.224403661417664, 0.22494259778832504, 0.22553282298200236, 0.22609753299856702, 0.22665828803337676, 0.22716944766692856, 0.2277382048521965, 0.2281907660006396, 0.22862367786328588, 0.22910074467578487, 0.2294842441790392, 0.229794059681017, 0.23014812206873259, 0.23047955251121677, 0.23071505411821785, 0.23100990322257234, 0.23138505688705474, 0.23161248962299072, 0.23181981935282553, 0.23210125108262725, 0.2322553467682227, 0.23227335051175274, 0.23241033420446883, 0.23252316920147104, 0.23272828306243007, 0.23277917380325125, 0.23285216845531298, 0.23286440899262445, 0.2328612006036788, 0.2328547853791918, 0.23281721630271038, 0.2327762494756261, 0.23270406959511347, 0.23261565566903786, 0.2324978334450862, 0.23237785937502914, 0.23227479878041615, 0.23211562166343563, 0.2319411765170362, 0.23163533006860873, 0.23144496846490487, 0.23141350308523848, 0.23115805790246335, 0.23089323445955173, 0.23053689800452398, 0.2302624470876753, 0.23007197691928333, 0.22975578441299205, 0.2294314035314595, 0.22913304313695274, 0.22878748740253868, 0.22833654868840805, 0.22799034529887077, 0.22763189025165118, 0.22736522327013836, 0.2269717688439635, 0.22651420008108658, 0.22612051820675236, 0.2257196438031762, 0.22539823955371244, 0.2249741453229991, 0.2244379698133778, 0.22402745007254143, 0.2236105194504045, 0.22332157560275653, 0.22287827978715613, 0.22240060419136753, 0.22197078490806244, 0.22154312331690962, 0.22106649471631767, 0.22065112776006912, 0.22024516976320485, 0.21983134982962013, 0.21942083375269453, 0.21903173123137293, 0.2186283772724401, 0.218283602422232, 0.21788845097248413, 0.21750470261925708, 0.2171284206367062, 0.21676917101167964, 0.21637505288064116, 0.21604719565673455, 0.21573027121056, 0.21552848236441308, 0.21522340658558278, 0.2149294548935425, 0.214665053975983, 0.21442026671429845, 0.21420407383503096, 0.2139986359513943, 0.2136770410166261, 0.2135323351308553, 0.21340235395264437, 0.21346076530704325, 0.21334345864713714, 0.21316502538533275, 0.21311750209448344, 0.21309425718051017, 0.21311344274551589, 0.21313943101896893, 0.21336547019794444, 0.21342663963923625, 0.2135271044288811, 0.21354159212292728, 0.21373482524124687, 0.21389460883282832, 0.21415896831007278, 0.2144525247131401, 0.21475948345079468, 0.21511775006929545, 0.21553835517059253, 0.2159586516450953, 0.2164155089754728, 0.2169055977246057, 0.21743899868391836, 0.2181104237818064, 0.2187105083141572, 0.21935707699302318, 0.21995560089233432, 0.22070734717061435, 0.22162103783489187, 0.22244168941211945, 0.22331262784326683, 0.22408762303531576, 0.2250775541271631, 0.22623433811823002, 0.2272941778757577, 0.22840576622809122, 0.229474672598501, 0.23070223693369651, 0.23200694107700134, 0.23332582236190394, 0.23469544034328654, 0.23612505868057612, 0.23759702869895916, 0.2391436256563973, 0.24071964994482514, 0.24235101938116482, 0.2439692475317856, 0.2457209241449344, 0.2474992112687799, 0.24935982486155023, 0.25127304674796813, 0.25333869318600327, 0.2553473246562851, 0.2573134525264195, 0.259456385866054, 0.26165401455304926, 0.26391140614361785, 0.2662201024435261, 0.26853850025065495, 0.27096766788112886, 0.27345211411393033, 0.27607858730902096, 0.2786648930728959, 0.28128318672326047, 0.2839972532370834, 0.28677129558019115, 0.2895709580793151, 0.2924693940244753, 0.29561079251916056, 0.29860226087359987, 0.3016626081626731, 0.30466149036054496, 0.3078719592130953, 0.3110758842011094, 0.3144104394069853, 0.3177993583733921, 0.32127751972284907, 0.32477216727504893, 0.32823398014515354, 0.3318548841391936, 0.33552799387268745, 0.33932697045400045, 0.34309682946364517, 0.34693722365054724, 0.3508203475781286, 0.35476104873959774, 0.35878888740749426, 0.36283931665867786, 0.36686567497812805, 0.3710408536222306, 0.37526744721508426, 0.3796915055024418, 0.3840019767612089, 0.3883155668354196, 0.3927496227648604, 0.39723662973230695, 0.4018229921567231, 0.40640726538801686, 0.41084243582537666, 0.4155569648674275, 0.42031069700304863, 0.42515570444795964, 0.42998259005186246, 0.43483533136387326, 0.43975010835858513, 0.4447878080518712, 0.44977432475630347, 0.45480578410993566, 0.4598680788007457, 0.4649874406930068, 0.4700872384633917, 0.4752943945662508, 0.4805366469497902, 0.48571450289165496, 0.49103756828332623, 0.4964913528199089, 0.5018564341015469, 0.5072546845708548, 0.5127322777679062, 0.5181875018722908, 0.5235074406496879, 0.5290470896469458, 0.5346066207001362, 0.5403578487907431, 0.5459347614430552, 0.5514929992451958, 0.5571311885824186, 0.5627915231291415, 0.5684080703358553, 0.5741165330521407, 0.5799166040839611, 0.5856428066552174, 0.5913856879182884, 0.596984517071194, 0.6027759455282546, 0.608587447804661, 0.6143821516487699, 0.6201799521000257, 0.6260360345296561, 0.6318307399684592, 0.6375819778540263, 0.6433888949091079, 0.6491941259975379, 0.6550180987133777, 0.6608139720270824, 0.6666016883148563, 0.6723889911489983, 0.6781693777931932, 0.6839672448825724, 0.6897263185824026, 0.6953638848258274, 0.7011159961779077, 0.7068488185808233, 0.712720705827779, 0.7183925583579276, 0.7238581110451757, 0.7295265129989085, 0.7351667895237917, 0.7408127968017748, 0.7463907371983989, 0.7519964174637176, 0.7575098530696511, 0.7629959622279517, 0.7684659739515847, 0.7738908114700153, 0.7792669013908585, 0.7846291020708585, 0.7899553971373515, 0.7951969834252764, 0.8004529336369788, 0.8056013450743129, 0.8107782680858866, 0.8159063152816347, 0.8210794439508864, 0.826095798366137, 0.8311094339741145, 0.8360273016614548, 0.8408986582457713, 0.8456485150181154, 0.8504304752089088, 0.8552337461311088, 0.8598926674600339, 0.8644976545735625, 0.8688320007131624, 0.8733511746819936, 0.8780702320215384, 0.8824133896869654, 0.8867010094524949, 0.8907287464833761, 0.8949241810491552, 0.8990893569423616, 0.9031326132157276, 0.9071044724194937, 0.9110299888437928, 0.9148535413413702, 0.9186005527945935, 0.9222791605476408, 0.9258832908337754, 0.9293604120206692, 0.9328193108692252, 0.9362410604390814, 0.9395337570579528, 0.9427477330796439, 0.9458950023771866, 0.948947273789608, 0.9518630659006176, 0.9547603101579425, 0.9575720239580194, 0.9604138932917404, 0.9630386488881462, 0.965467049001959, 0.9679445657503839, 0.9703326527561593, 0.9724762957292242, 0.9747043733316713, 0.9770098558715414, 0.9790188598955532, 0.9809406463551881, 0.982709964695537, 0.9844632459179348, 0.9861536623183687, 0.9877171243547497, 0.9891891142886852, 0.9905133766504113, 0.9918084255795576, 0.9929605543612441, 0.9940704903764913, 0.9950824346900394, 0.9960484673407565, 0.996859299171479, 0.9976150055935802, 0.9982332109294209, 0.998759596899768, 0.9991250001346407, 0.9994753880979192, 0.999793645123332, 0.9999429823742705, 1.0, 0.9999559045945988, 0.9998288454802241, 0.9995698791831021, 0.999261333089478, 0.9988575357626636, 0.9983245332649635, 0.9977359113142039, 0.9970901412081322, 0.9963056758702518, 0.995428987560402, 0.9944389625804947, 0.9933817229538653, 0.9922236829379523, 0.9909837622036248, 0.9896524320135063, 0.9882691048875138, 0.9867522165178231, 0.9850665595469953, 0.9833862619247475, 0.9816151865330742, 0.9797716996788206, 0.9778203617182851, 0.9758428023312204, 0.9737119611383533, 0.9714999523700091, 0.9691900271809084, 0.9668192678342207, 0.9642733193510781, 0.9617540836166484, 0.9591505045379624, 0.9565286692366485, 0.9537529726461713, 0.9508538666669566, 0.9479328356244998, 0.9449348920690952, 0.9419258739695653, 0.9387699658675915, 0.9354759468505341, 0.9321908702143068, 0.9288342108829769, 0.9254847876867975, 0.9219794410150455, 0.9184798711959175, 0.9148405510678123, 0.9111436520097138, 0.9072261240198878, 0.9034358412996117, 0.8996661578289203, 0.8957362113654256, 0.8917496118584594, 0.8876688350010863, 0.8835773673679677, 0.8793360939729388, 0.8751477229687302, 0.8709019555899197, 0.8666741893281552, 0.8623112022514007, 0.8579875270400811, 0.8535217495710002, 0.8490169936130247, 0.8442547295997335, 0.8397020583382867, 0.8351521763446282, 0.8304981118541866, 0.8258034615005295, 0.8211218483186421, 0.8163455160469636, 0.811515867795142, 0.8066800297406036, 0.8018698845244029, 0.796968161670212, 0.7920425194971417, 0.7869736650685896, 0.7820187213978148, 0.7770966838110549, 0.7720817207652525, 0.7670470866027566, 0.7620200844407092, 0.7569473502659829, 0.7518866655214481, 0.7467844336654553, 0.7416724348621316, 0.7364356626210916, 0.7313220829585656, 0.7262213632501314, 0.7210807588239904, 0.7159327961455553, 0.7108608955158064, 0.7056930285795121, 0.7004973376531302, 0.6953387577744027, 0.690182678254078, 0.6850561560531229, 0.6799055992938096, 0.6747455820973423, 0.6696137338610909, 0.6644908012075493, 0.6592619415930384, 0.6541752481396752, 0.6491462778355462, 0.6440674911928976, 0.6390019517689857, 0.6340027789313271, 0.6289617373554243, 0.6239627662047972, 0.618961123504034, 0.6139832128736104, 0.6088621712505281, 0.6039554023458914, 0.599117073663097, 0.5942397045788298, 0.5893863846860742, 0.5845414375610635, 0.5797428773869391, 0.5749717384902365, 0.5702294641749835, 0.5655174184933704, 0.560875587624074, 0.5562229115289954, 0.5516493051555061, 0.5470641344275853, 0.5425190198616804, 0.5379283875927313, 0.5334755322678049, 0.5291452217794778, 0.5247557808371291, 0.5204100031912829, 0.5161039387191828, 0.5118471041165502, 0.5075445202369779, 0.5033886261306533, 0.49927310225969673, 0.49531091833795715, 0.49126546268107574, 0.48723554737601454, 0.4832943524486163, 0.47940128291966977, 0.4755395320558594, 0.47174605596458336, 0.4679106062621219, 0.46422568413093035, 0.46058499595452024, 0.45699401712123966, 0.45344466264414496, 0.4500676503218677, 0.44659865863226605, 0.4431858596392235, 0.43969990938082076, 0.4364147737251008, 0.4331475542457319, 0.4299630502218008, 0.42682637261678286, 0.42374267225703677, 0.4207035423647465, 0.41779638703718963, 0.41484799464353334, 0.41195538051440084, 0.4090408304743921, 0.40626859606240595, 0.40353395109103557, 0.40086464050797915, 0.39824565299320264, 0.39568156380918457, 0.3931634287215781, 0.39067926106297624, 0.38826565744194164, 0.38590224986951915, 0.38361059106278445, 0.3813449576841521, 0.3792123910462964, 0.37703888322871665, 0.37492070936056504, 0.37281386231490876, 0.3708088112907397, 0.36876781528746033, 0.36687320697712067, 0.36502277413757633, 0.36328116940124655, 0.36151132174970757, 0.35968199242142934, 0.358021131525913, 0.3564010071255403, 0.3549723349143006, 0.35341524341290664, 0.35188620301093926, 0.3504296360945607, 0.34901889383734425, 0.3476099842394788, 0.34629336513920383, 0.345038747735074, 0.34379984477827136, 0.34260148037958826, 0.3414471613562622, 0.34032695321767614, 0.33911186414252376, 0.33808448576069833, 0.33708637552009035, 0.3361822712728163, 0.335235146996919, 0.3342825650214066, 0.3334061722858098, 0.33255953786885695, 0.33173367046603597, 0.3309463953077311, 0.3303031088538617, 0.3295564552975482, 0.32884314966712763, 0.3280369589248513, 0.32740153926587134, 0.3268611191526502, 0.32625991899157575, 0.32568394558664626, 0.3251708142703372, 0.3246371768373366, 0.3240890465446363, 0.32360735783935374, 0.3231450533877386, 0.32271409130462114, 0.3222861073319229, 0.3219313153387984, 0.3215298297196431, 0.32114673266757005, 0.32063869296127556, 0.3203060375311809, 0.3200957531057956, 0.3197608741363241, 0.31943847463888114, 0.31914453542418736, 0.3188413136429092, 0.31835453823711124, 0.3180943918783948, 0.3178308941825677, 0.3176375546490507, 0.3173592168717106, 0.3171125436674782, 0.3168329597781834, 0.31655544304411687, 0.31619311799493893, 0.315927953549999, 0.315803566105602, 0.3155089267865194, 0.315216644969947, 0.3148263282459792, 0.31454683624587837, 0.31428568340106194, 0.3139875398897045, 0.3136824060010878, 0.31339533822177873, 0.31307074373533633, 0.31280718793702905, 0.31245745579588, 0.3121019971210159, 0.3116705987592752, 0.3113082196433236, 0.31080329362939463, 0.31042950278513565, 0.3100337277738286, 0.30974541045568743, 0.3092906113215294, 0.3088392915757514, 0.30835398165109923, 0.3078541655637885, 0.3072615041291999, 0.3067396733307051, 0.3061189271397848, 0.3055636680865039, 0.30498218314044906, 0.3045597528143571, 0.3039035512802491, 0.30313783759871343, 0.3024624056951904, 0.3017641744164783, 0.3011287783728535, 0.3003730177250622, 0.2993832658265695, 0.2986156288225017, 0.2979869393054049, 0.297132383378015, 0.2962560935382886, 0.29528423547103755, 0.29437155704738327, 0.29346970581536796, 0.2924964317377297, 0.2914975097868718, 0.2904554324196505, 0.2894064881797572, 0.2882526940070972, 0.2871585257576157, 0.2860323819008443, 0.2850123946614301, 0.28380648366586225, 0.28239289536626216, 0.2811640273279016, 0.27990061019983065, 0.2787755546196881, 0.2774239843050695, 0.27599411613044245, 0.27460407453822483, 0.2731871336415899, 0.27172170919669036, 0.27025345725492567, 0.26875262847282777, 0.2672285382230181, 0.26567628041810715, 0.26409177509543835, 0.26248438773999555, 0.26082346462223627, 0.25916412906719755, 0.2574761450217004, 0.25584168417689956, 0.25408749863411223, 0.25234933159587203, 0.25054467450429074, 0.24871913285354372, 0.2467820184362614, 0.2449250257547933, 0.24316155968079012, 0.24123622906307854, 0.23929198470080698, 0.23730263906631346, 0.23532276817068706, 0.23323569769786923, 0.2312244000179685, 0.22918736561752115, 0.22704812525629256, 0.22497212792390509, 0.22296329082255745, 0.2208219156663431, 0.21866119252537122, 0.21653319419295183, 0.21432869875970564, 0.21199313158504335, 0.20977343544814184, 0.2075324851189694, 0.20536171101407147, 0.20307019473658314, 0.20083881694545766, 0.1985123933763486, 0.1961776421793053, 0.1938686958309445, 0.1915122606680724, 0.18903717231204414, 0.1866808988263182, 0.18431112298964986, 0.1819631206148156, 0.17956461368105664, 0.17708833199917004, 0.1746811115426086, 0.17226217678966882, 0.16979397752339442, 0.16735988861282547, 0.16498828466122417, 0.16252505146936672, 0.1600578544862921, 0.15765605754907933, 0.15517396023582475, 0.15265910572210217, 0.1501846776598736, 0.14771011893867975, 0.14512840432927082, 0.14266858601933366, 0.14045343515306985, 0.137954078079271, 0.1354667170763233, 0.13278419999443794, 0.1303447689891434, 0.1279297263292798, 0.12548557298240856, 0.12304409266632942, 0.12060198328409537, 0.11816934379499028, 0.11589678981561724, 0.11345610716793433, 0.11103121655774992, 0.10857012963868472, 0.1061822865129321, 0.10386240802456997, 0.1014919951508018, 0.09913753691376866, 0.09681620662459137, 0.09449149339755171, 0.09213227491991015, 0.08984832345780532, 0.08757876235191386, 0.08540159879829597, 0.08315288919695178, 0.08091618031786642, 0.07870976368075437, 0.07652355373345274, 0.07438786680780238, 0.07223897541442555, 0.07009558659972497, 0.06799438035836718, 0.06591519038791921, 0.06386267907887594, 0.06182809559962718, 0.059782543902736664, 0.05779956443721576, 0.05583890090230786, 0.053974354701276255, 0.052051189241470286, 0.050319884188164, 0.04843307685202693, 0.04658408083786217, 0.04469864321689536, 0.04293122737978796, 0.041168820972647145, 0.039466245871066126, 0.037793030836079905, 0.036256964798092095, 0.03462981058031474, 0.03303472609721883, 0.031480353388195895, 0.029961226333115282, 0.02843840700080443, 0.026994023281369607, 0.02559513467284998, 0.02421461057925392, 0.022868018921758927, 0.021607177566998738, 0.02032262146858084, 0.019028331752217333, 0.017824737181151993, 0.016655829650191724, 0.01563374748841608, 0.01452113235762958, 0.013476318837750545, 0.012443889527697297, 0.011453891756752925, 0.010488551892317085, 0.009583969726235486, 0.008697932214731382, 0.007875993255111215, 0.007092625064416499, 0.006339340908579568, 0.005634554889217514, 0.004942442620930577, 0.004318078420241384, 0.003731171221601501, 0.0033412190727201085, 0.00281033123879065, 0.0023484810258961506, 0.0019090004275988661, 0.0015164862092841881, 0.0012087514898483696, 0.0009027551138628537, 0.0006436090203768398, 0.000430452293122783, 0.0002625486958895824, 7.048051293630197e-05, 0.0, 5.53027228106107e-05, 5.3720740222799804e-05, 9.712177716279775e-05, 0.00010759796879769308, 0.00024927632333342724, 0.0004560630993005984, 0.0006734120654103453, 0.000932112329832764, 0.0013053043870596128, 0.0016376138358840991, 0.0020671168606168893, 0.0024835596153328144, 0.0029474802589164162, 0.003436552264501906, 0.003995763411900657, 0.004594759307248549, 0.005242303723185255, 0.005932983594113296, 0.006657949150644329, 0.007435267615333838, 0.008228783082397391, 0.009093252957035563, 0.00999808316710484, 0.010960598789944197, 0.011944336036259488, 0.012965419257325712, 0.014032919263114056, 0.01521046960184627, 0.01635174688896816, 0.017538051275246623, 0.018734375614493527, 0.020013309315126272, 0.02141536959883742, 0.022766673555111125, 0.02416365837546733, 0.025541014939843065, 0.027035150792764848, 0.028573444837757086, 0.03014668604919227, 0.03175988624455399, 0.033516121194065926, 0.035195856508427145, 0.036847912314016525, 0.03862676665802727, 0.04044513896739681, 0.04226846413072984, 0.04416972010844613, 0.04624565765350466, 0.048203837148335454, 0.05020705064976909, 0.05218976259653356, 0.05428817853286991, 0.0563736043587392, 0.058555523022898986, 0.06077270801216224, 0.06315005710280368, 0.06542260695340418, 0.06762185204037445, 0.06999373747111129, 0.0724001716094953, 0.07493164551200719, 0.07739632465899084, 0.07984090917001797, 0.08239275418608238, 0.0849800942415713, 0.08763297644317988, 0.09028733891307014, 0.09290990299574053, 0.09564661714598985, 0.0984158157377294, 0.10123494942351575, 0.1040676452129243, 0.10693008799316697, 0.10983138292238165, 0.11276638352248394, 0.11585542554394221, 0.11884244291786346, 0.12174931739967082, 0.12483095805739026, 0.1279440208529869, 0.1311229802567694, 0.1342947372595201, 0.1374612795556367, 0.14070459107623687, 0.14397861936445333, 0.14742527124728927, 0.15074283250518045, 0.15397006453583476, 0.1573800380886627, 0.16081913163851722, 0.1644421791109492, 0.16792006721283675, 0.17136703184819552, 0.17492807248539274, 0.17852068661130654, 0.18209709722695033, 0.18575742617838037, 0.18952272146498686, 0.19322841094780902, 0.19696598597524959, 0.20075197437976747, 0.20454919400388433, 0.20831293027897377, 0.21217966984077025, 0.21607255268089592, 0.21993136148677606, 0.22388404857269553, 0.22783787270057584, 0.23183895027223317, 0.23586218554777397, 0.23995960063522573, 0.24402182698527533, 0.248127339496658, 0.2522393465524193, 0.2563779515799057, 0.2606373592495619, 0.2648160557113084, 0.26885354701016223, 0.2731144095284713, 0.27739423900388105, 0.2817235736073427, 0.2860387646321945, 0.29048745481832383, 0.2948318848261044, 0.2992041579583658, 0.3034699658326357, 0.3079117833219381, 0.3123711205588623, 0.3168482389604368, 0.3213433241565143, 0.3258091983147185, 0.3303464831683698, 0.3349508401773147, 0.33951288240863386, 0.3440938521659555, 0.34876657036984743, 0.3533753176381177, 0.3579417181421723, 0.36260198440357744, 0.3672789788754115, 0.3719466004854071, 0.37665938042213354, 0.3813864696613053, 0.38612771601777407, 0.39088292614051895, 0.3957679555486856, 0.40053569075881734, 0.405159735816351, 0.4099862537296291, 0.41482087305830667, 0.4197670114541136, 0.42460538764664235, 0.4294623860646458, 0.43432802098844986, 0.4392065702535125, 0.44408432725424174, 0.44898794541399134, 0.4538025392345845, 0.45873777394363363, 0.4636761048382505, 0.4685661377576916, 0.4735176914771972, 0.4785858636852657, 0.48352416812087345, 0.4884701266752739, 0.49337134725628046, 0.498336760042505, 0.5033346838242726, 0.5083007846752774, 0.5132702788960446, 0.5182425152473212, 0.5232168409215591, 0.5280722158948279, 0.5330639758421245, 0.538049099078932, 0.543083785438837, 0.5480493656477642, 0.5530851017475529, 0.5580350948810407, 0.5629852708378796, 0.5679044067127689, 0.5728554199405721, 0.5777414880499769, 0.5826898476445967, 0.5876285616301004, 0.5925874580008219, 0.597502213384811, 0.6024209402181065, 0.6073155457642244, 0.6122006064787041, 0.6170538341078834, 0.6219201542201617, 0.6266830715008322, 0.6315339712389054, 0.6363654531057947, 0.6411732976492293, 0.6459666214971004, 0.6508090104409803, 0.6555540103019369, 0.6602827169896003, 0.6650329457354369, 0.669721536839721, 0.6743632809933122, 0.6790209971338959, 0.6836579586037084, 0.6883077069376357, 0.6928962536765764, 0.6973989401826626, 0.7019517931747692, 0.706477474920245, 0.7109066765728351, 0.7153851308672017, 0.7198481087305311, 0.724258990738866, 0.7286379742116856, 0.7329760997742438, 0.7372912358346609, 0.7416544369590939, 0.745891552239077, 0.7500986957136784, 0.7541972887955248, 0.7583507544713526, 0.762419176993534, 0.7665026821204821, 0.770544856607986, 0.7745283601568889, 0.7784895403981273, 0.7824378618656904, 0.7863091069140307, 0.7901385733679402, 0.7939127630650707, 0.7976584768196379, 0.8014200043305513, 0.8050687842695742, 0.8086496076046128, 0.8122162284127543, 0.8157370789923364, 0.8191167543511338, 0.8225555843972935, 0.8260226059875485, 0.8293440843761247, 0.8326165141134139, 0.8358132592960805, 0.8389883530237287, 0.8421319807466975, 0.8451978481581955, 0.8482107869955647, 0.8511141346047423, 0.8540259923111987, 0.8569827157004974, 0.859764614700296, 0.8624934083567133, 0.8651163344251228, 0.8677420103820812, 0.8701966127292889, 0.8727173026574011, 0.8751713474925631, 0.8777310946813048, 0.880031106962791, 0.8822663362940606, 0.8844537809523595, 0.8865820866662798, 0.8885943373155333, 0.8906084411985923, 0.8924843364105399, 0.8943770883775638, 0.8961999091849155, 0.8979874348714897, 0.8996666989455213, 0.9012140001575839, 0.9027662653953923, 0.9042470066735768, 0.9057124059860272, 0.9070438294000025, 0.9083634265371993, 0.9095520017469528, 0.910675320990091, 0.9116122305294899, 0.9126180230429828, 0.9136356899938803, 0.9144827724691919, 0.9152612875018098, 0.915854731745674, 0.9165095750756713, 0.9171526874870339, 0.9176475543898394, 0.918070983475236, 0.9183885301565442, 0.9186732876221015, 0.9190049225161092, 0.919127681401362, 0.9191841397678755, 0.9190015418712955, 0.9189449172021878, 0.9189091997611751, 0.9186850023591948, 0.9183900685247116, 0.9180028297725068, 0.9175689575696031, 0.9170157232023867, 0.9164438836322173, 0.9157977053454771, 0.9150390755048224, 0.914250821488267, 0.913486583653116, 0.9125368786567503, 0.9115193830631831, 0.9103522952471405, 0.9092092664655528, 0.9079162955812072, 0.906638646364298, 0.9052854608427682, 0.9040342704451159, 0.9025113800723821, 0.9008661179576832, 0.899226045893436, 0.8975196556963236, 0.895687011385617, 0.8938563980896694, 0.8920730408974253, 0.890090925427532, 0.8880481356784624, 0.8858757275612951, 0.8837199253807816, 0.8814478162353879, 0.8791697763636699, 0.876825464727468, 0.8743858784558376, 0.8719160655260193, 0.8694588380457038, 0.8668508513043897, 0.8641847885668692, 0.8613665531312246, 0.8585978069360255, 0.8558446411258869, 0.8529438371649259, 0.8499881969467022, 0.8468880349450457, 0.8438359758416718, 0.8407431017583813, 0.8375742493440644, 0.834351096996287, 0.8311220834365389, 0.8277877509723648, 0.8243492163908266, 0.8209260102346488, 0.8174527389059081, 0.8139950728897123, 0.8104170207044642, 0.8067056795856618, 0.8030536229599595, 0.7993547028230726, 0.7957134986637139, 0.7919119298787922, 0.7879314355341718, 0.7840741485052702, 0.7801727799233722, 0.7762419272487977, 0.7722557776788133, 0.7683386114608842, 0.7642632340506914, 0.7601580792367286, 0.7560192674135753, 0.751856433107609, 0.7476392531493024, 0.7434232362970717, 0.739178580647337, 0.7349363411641837, 0.7306334954385738, 0.7261690419063654, 0.721836306159828, 0.7174733931406861, 0.7131811404738756, 0.7087511157827736, 0.7042203239625067, 0.6997633492223535, 0.695284486010906, 0.6908584005798646, 0.6863311814358859, 0.6816789322313261, 0.677140176547034, 0.6725835629317943, 0.6680538509554765, 0.6634612892803773, 0.6588626140542885, 0.6542498560585214, 0.6496292492457737, 0.6450620800303257, 0.6404214311691273, 0.6358139456501726, 0.6311670529335702, 0.6265220476776662, 0.6218406221364841, 0.6172055212677823, 0.6124984224334837, 0.607875647552401, 0.6032516737341385, 0.5986323109076319, 0.5940098630302699, 0.5893865026407958, 0.5847726710623641, 0.5801645367934462, 0.5755461468639111, 0.5709552728200921, 0.5663383418730513, 0.5617697557186812, 0.5572100479277006, 0.5527036502028082, 0.5481604948539407, 0.5436972042271535, 0.5391775147416921, 0.534678550431315, 0.5301447418224859, 0.5256953152086798, 0.521307584499793, 0.5168910275790023, 0.512497369761771, 0.5082217144098622, 0.5038634624656232, 0.4995307283797988, 0.4952324684153322, 0.4909635199072368, 0.4866465444501987, 0.48244624124259455, 0.47827129469678775, 0.4741225919066439, 0.4700009961335885, 0.46600193554416175, 0.46192508951088695, 0.45782291459494745, 0.4538234159744964, 0.44985549222908155, 0.4459197690439445, 0.44201686555559977, 0.43819038745898886, 0.4343495100848367, 0.4305886622522835, 0.42681665057203017, 0.42308458108867736, 0.4195127807735446, 0.4158452623683854, 0.41216425617219715, 0.40859689826669926, 0.40507130763964705, 0.40151861904193786, 0.39808510558132343, 0.3947668555967662, 0.39139995116964094, 0.38807653125691277, 0.3847879659409132, 0.38155255756294854, 0.37832579913867675, 0.37518099154540957, 0.3720776385042722, 0.36903770652122525, 0.36601592700995933, 0.36298654705291716, 0.3600594978263655, 0.35717398208042633, 0.3543908157367015, 0.35158256565734347, 0.3488510159222529, 0.34613213750029914, 0.34346149984641355, 0.3407657551917909, 0.3382001045600037, 0.3357897055798565, 0.33329726837009527, 0.33085535113173903, 0.3283902782536497, 0.32605695351543257, 0.32386306724495373, 0.321607655839066, 0.3194027189068202, 0.31715732093810606, 0.31506287572302827, 0.31314537264203224, 0.31112164593803476, 0.30914952014866104, 0.3072323889547791, 0.3053602965388081, 0.30350749967739893, 0.30173730293886386, 0.3000134898849272, 0.29829704062236684, 0.29666993525303803, 0.29506033153298333, 0.29352312362251104, 0.29202781545554535, 0.2905445006093221, 0.2891373144546297, 0.28784384561834414, 0.2865089545461598, 0.2852192875213183, 0.284038894327119, 0.28283020575080703, 0.2816948640873546, 0.2805770834892355, 0.27950651117947733, 0.27845634738997843, 0.27748052698664605, 0.2765261989087905, 0.27563850117542404, 0.27479146885443323, 0.2739288659776775, 0.2731692053990625, 0.2724503493959213, 0.27176326377809945, 0.2711130837878715, 0.27047397576522736, 0.26990071380772374, 0.269491653824494, 0.2689725664203767, 0.26849597175002893, 0.267991975763285, 0.26760583691061346, 0.26723805578703275, 0.2669248686946261, 0.26664559312699265, 0.2664774029163026, 0.26625548838795854, 0.26590342121871535, 0.26577684990410005, 0.2656766275886302, 0.26564199243409964, 0.26559108241287044, 0.26561726257880774, 0.26561986568600593, 0.26565467060414694, 0.2656910062030793, 0.2657923026202479, 0.2658665145717068, 0.2660321825834664, 0.2662228727682459, 0.2665504632887015, 0.26677726508088917, 0.26695373433872976, 0.26725257509882583, 0.2675762383248066, 0.2679244894736739, 0.2682970625573401, 0.26875385683450553, 0.26916655888347424, 0.2696060123495396, 0.2700799771100408, 0.27056937424200234, 0.27098903192833346, 0.27153930417748995, 0.2721075955433023, 0.2726853686495595, 0.27329091272096706, 0.273918311107111, 0.27455839719413916, 0.2752161821296691, 0.2760119002335107, 0.27668937449707515, 0.2772488707348463, 0.27799088649943593, 0.27874652707045916, 0.27958470399379065, 0.28035919595239733, 0.2811986543246998, 0.28200191778596745, 0.28282434907714366, 0.28361343450963605, 0.28447803647383124, 0.28530046562581135, 0.28619926619140124, 0.28710803448716016, 0.28802691602423386, 0.2889560036346449, 0.2899254395154989, 0.29087122967410883, 0.29182893194002507, 0.29282833538027975, 0.29380513625187604, 0.29468283525351935, 0.2956985966060674, 0.29671971630297167, 0.2978369027041091, 0.29885849794226055, 0.2998141456099145, 0.3008678821907949, 0.3019276897351673, 0.30298082179596225, 0.3040548078457481, 0.30511295441728986, 0.30620109571443277, 0.3072938834753199, 0.3084818114390113, 0.309573032123972, 0.31063141847003023, 0.3117477211766872, 0.3128704719566378, 0.3139349466731438, 0.3150780525205304, 0.31623189239897187, 0.3173784713559815, 0.3185281867978794, 0.3196338491060748, 0.3207960911995684, 0.32208799871171706, 0.3232356735219665, 0.32439195330674353, 0.32555174293810824, 0.3267234606932871, 0.327815373784979, 0.3290097696403799, 0.3302044469927255, 0.3313480360480268, 0.33255042818580044, 0.333776549120229, 0.3349720649141166, 0.3361679212282289, 0.33732988044428036, 0.3385312011397271, 0.33980008227085273, 0.3409905701813173, 0.34218428112605553, 0.3433722744945016, 0.344572513878708, 0.3458949137313232, 0.3470832673315548, 0.34827973240609095, 0.34925097297547303, 0.35048965251348574, 0.3517976848436623, 0.3530115547925137, 0.35422369581561436, 0.35540847969237876, 0.35662089600393704, 0.3578176429702825, 0.3590264307289469, 0.3602322377104904, 0.3614912468986971, 0.3626848409127748, 0.36386640656385005, 0.36506306765128155, 0.36612170083670237, 0.36733470113135114, 0.3685392017552182, 0.369783437778396, 0.3709676456679953, 0.37212263903574894, 0.37330346497916517, 0.3744797566395167, 0.37561741838366713, 0.37678982373858105, 0.3780037646188698, 0.37915906827222434, 0.38031197669441025, 0.3813849594476705, 0.3825424247466048, 0.3838259636113831, 0.38495259114330116, 0.38608027047562327, 0.3871910008595408, 0.38832061266993273, 0.38948678151579497, 0.3906067332701516, 0.39172576792435704, 0.3927571539796447, 0.3938830657589915, 0.39490660777565034, 0.39602904098498176, 0.39713859391154993, 0.3983435634003268, 0.3994160682308901, 0.4005095840278439, 0.40156885733452113, 0.4026240109454601, 0.4035755790479872, 0.40463330079319476, 0.4058474090377229, 0.40686166331718304, 0.4078746047964737, 0.4087302907783047, 0.40975680228294253, 0.41071855421058845, 0.41172563673698775, 0.4127173412273504, 0.41375881016402927, 0.41471344143036154, 0.41565793449996447, 0.41659211154258047, 0.4175157749942375, 0.4185275978783218, 0.41941707044511356, 0.42027939227814964, 0.42115922551723745, 0.42203018554155663, 0.4228313693447032, 0.42369011309395965, 0.4246335088800327, 0.4254511876559034, 0.42625997753845407, 0.4269557619949525, 0.42775711285988494, 0.42857992093486436, 0.42934201681498285, 0.4300892278337796, 0.4307610758466769, 0.4314852713971265, 0.432181747791125, 0.4328689865649517, 0.43353695377005086, 0.4342201932967945, 0.43484565331605934, 0.4353766533604825, 0.435977469774433, 0.43655628372112426, 0.43720799747871447, 0.43773170348270085, 0.4382050156661258, 0.43870039942885114, 0.43917653773896603, 0.4396631923013281, 0.4400960245647174, 0.440561874019855, 0.4409504395009564, 0.44132217128323764, 0.44163742271061157, 0.4419776009740454, 0.4421628548384761, 0.4424761691105829, 0.44275950960432914, 0.4431941235131031, 0.44339657336829796, 0.44352065544495056, 0.4436932637036181, 0.44384220922751344, 0.443911161307787, 0.44401855435731186, 0.4440333968232116, 0.44409288987029955, 0.4441207886754957, 0.4441562909808389, 0.444117518865055, 0.44414513894190455, 0.444037944757616, 0.44390769333156443, 0.443680407893708, 0.4435106989470304, 0.4432640905397543, 0.443041052338627, 0.44278554028961137, 0.442583794039913, 0.4422531530745619, 0.44180945442263236, 0.44143495126931565, 0.4410274026808077, 0.44059988723664717, 0.4401251108185635, 0.4397001097315539, 0.4391511291099884, 0.4385747091638004, 0.43800021246668613, 0.4373629776743071, 0.43663780467142965, 0.4359519097656505, 0.4352334173274655, 0.4344435000641169, 0.4336643209374486, 0.4328758085790175, 0.4320233211422937, 0.431137551241649, 0.43014536275459503, 0.4292021396123604, 0.42835469695273615, 0.4273201747009325, 0.4262566832082842, 0.4251205926367724, 0.42400277561700506, 0.42284761088823747, 0.42166417795355127, 0.4204473501336913, 0.4191756420942678, 0.4178947934106134, 0.41646763624584443, 0.4151321043694842, 0.41375622165646264, 0.4123969909528564, 0.41093655162549647, 0.40950208227075535, 0.40796593381072727, 0.4063996086034316, 0.4047298305632306, 0.4031118803837346, 0.40145492009428857, 0.3997686129206063, 0.39804835716238757, 0.3962860382888296, 0.3945003934912321, 0.39268597783655473, 0.3908341188878042, 0.38895034321221544, 0.3870909282787104, 0.3851373898319042, 0.38306589333351837, 0.3810683322069643, 0.37903788279185247, 0.3771085496892287, 0.37499758747351714, 0.3727084652852816, 0.3705698442444251, 0.3683983175303109, 0.3663324386163602, 0.364080548011863, 0.3616987030546752, 0.35941515420658404, 0.3571025693044082, 0.3547616740378924, 0.35239316419621364, 0.35016968940191256, 0.3477261956236182, 0.34526669012527866, 0.34272161627465275, 0.3402366504068812, 0.33761819637209856, 0.33510418689144983, 0.33256270470285865, 0.33003366720283484, 0.3274359443356596, 0.3247046001657972, 0.32207806590906335, 0.3194248599918971, 0.31688416713377743, 0.31416490668416686, 0.3113666616743423, 0.3086267438257606, 0.3058691118970749, 0.30311175443937016, 0.3003188714630103, 0.29746425902628554, 0.2946490849907499, 0.2918180248613149, 0.2889419707791331, 0.286085866928247, 0.2832623254769964, 0.2803718954958687, 0.2774715636859958, 0.2745619558723308, 0.2716436985717068, 0.2687518157584713, 0.2658137973224043, 0.2629182463593777, 0.25996495551874477, 0.25701025271086186, 0.25392090882100055, 0.2509804779164394, 0.248096042142446, 0.24513180524292555, 0.24216530145667745, 0.2391456200181534, 0.23618315857657776, 0.2332734878047111, 0.23029886209992506, 0.22732643786915913, 0.22427509097855552, 0.22131911215573954, 0.21834529572809258, 0.2153914765582583, 0.2124385109235532, 0.20949626567352844, 0.20654764818701626, 0.20359105309250447, 0.20065490154062265, 0.19772488649782938, 0.1948364109778273, 0.19191729022419096, 0.18904350494358566, 0.18614250630864584, 0.18325555828542262, 0.18044316361026957, 0.1775776685607021, 0.17470912891237084, 0.17188317189066687, 0.16907437354476668, 0.16622708648477988, 0.16346045575919377, 0.1607431121042918, 0.1580027317354838, 0.15528078209281726, 0.1524487710918523, 0.14978148009949094, 0.14723007827233045, 0.14457670101785197, 0.14194480776881152, 0.13933059125216055, 0.13674368652932056, 0.13427838926790947, 0.13172494551673228, 0.12920081547153298, 0.12658533135537545, 0.12413429436095723, 0.12169233314177198, 0.11928780471200853, 0.11690632815240282, 0.11452732869438076, 0.11219737916676299, 0.10983596589870918, 0.10756286229254303, 0.10531281891341135, 0.10324184756146146, 0.10102192916931367, 0.09872102301977595, 0.09658564455205007, 0.09447824643563162, 0.09248124134431712, 0.09042157879223012, 0.08832337059088831, 0.08634192920814505, 0.08439073990248683, 0.0825477280363855, 0.08064881273430119, 0.0787429582645511, 0.07692136624143639, 0.07513300654952818, 0.07339097019375182, 0.07166800793048847, 0.06997093849160282, 0.06831809398094482, 0.06669935156282673, 0.06506752966752588, 0.06352329721719073, 0.062079605835669606, 0.06059063016769229, 0.059138116668512965, 0.05766166053836253, 0.05628906300987105, 0.054966159838041206, 0.053656695217864876, 0.052381270089143575, 0.051217352841217895, 0.05000042795843746, 0.048736050220649106, 0.04760645014166248, 0.04650937262540722, 0.045475085180419844, 0.04443971649202391, 0.043391648138047516, 0.04243125268521546, 0.04150239937721762, 0.040622456467383224, 0.03975496887541439, 0.03895043481294513, 0.03814473515553127, 0.037373313115133366, 0.0365411655874335, 0.035849020907922864, 0.03526200923742302, 0.03461592357514886, 0.03400254984189378, 0.03334835703796113, 0.032808328855073066, 0.032355782140094456, 0.03186286525450879, 0.031400828910541176, 0.030874601090425564, 0.030484832033409133, 0.03024815980272301, 0.02989057411343323, 0.02956477596065946, 0.029252611222696467, 0.028989742152788264, 0.028677575476813304, 0.028479989052699925, 0.02830479203787484, 0.028126152146165376, 0.027998824514295355, 0.028003929868317158, 0.027903755397733074, 0.027830415131138788, 0.02776566522145339, 0.027745080675736597, 0.02778606971365935, 0.02780557911324092, 0.027848618440109992, 0.027909845197414275, 0.027997413533032204, 0.02802360933248603, 0.028161280127225383, 0.02831299546476159, 0.028474315877003515, 0.028654189359911646, 0.028903180416201615, 0.02910218044137177, 0.02931698605482785, 0.02946081663751566, 0.029715750949520933, 0.03000514152373274, 0.030274082079957677, 0.03055295550817116, 0.030845664875996347, 0.031142637793512333, 0.031512991302016624, 0.03181906623442454, 0.03213658902553701, 0.032485982862618765, 0.0328205108047944, 0.03309582491569655, 0.03345709733474948, 0.03382192830928766, 0.034198474423637826, 0.03456798882741456, 0.03494446097431457, 0.035318185301871696, 0.03569367865020646, 0.03610043173884325, 0.03647384259466532, 0.03667692062027755, 0.03707452686580506, 0.03746247556897376, 0.03789296196728764, 0.03825673207077265, 0.03863232360417998, 0.038982962351888056, 0.039328729533776974, 0.03974657539929148, 0.04007147051949861, 0.0402783659688905, 0.04061299168342909, 0.04093701385356135, 0.04125466938997318, 0.041556692654615736, 0.04186518970671093, 0.04214333292613246, 0.04241116651728709, 0.04268542601755699, 0.04292906988014426, 0.04322645067577766, 0.04343981092802413, 0.04364481386040584, 0.04382315711275191, 0.04401038773120132, 0.04422821492264406, 0.04438447283354454, 0.04452931283673498, 0.044580051000303995, 0.04470948669790899, 0.04479868662269961, 0.04489325847723031, 0.044967658463701286, 0.045086415782169625, 0.04511239586737253