0.043972561861539416, 0.04315724172776007, 0.042603039125106004, 0.04206690919049724, 0.04155486505139632, 0.041058862189604195, 0.04065968323985991, 0.040178280232236206, 0.03971567173978317, 0.039260383379276495, 0.03881576858533901, 0.03838026512486805, 0.03795258183721498, 0.03750976873542434, 0.03709755785613211, 0.036689403365034394, 0.03620177964983551, 0.035811464305371375, 0.03551194825649823, 0.0351083274528698, 0.0347100526123075, 0.034317056026074176, 0.03392935028071675, 0.03349007695568159, 0.03312045362000733, 0.03275333364236521, 0.032380642755149396, 0.032021670151878255, 0.0317280132033746, 0.0313699619264834, 0.031020678298771344, 0.030597064703893683, 0.03027623220673744, 0.029977462793914184, 0.029664363704565867, 0.029358447974948354, 0.02916104647998496, 0.02885849529488969, 0.028399620215923765, 0.028147326251040456, 0.0278993478052521, 0.02775321524954572, 0.027505081551010592, 0.027331166369926625, 0.027101157578001852, 0.02687013961037813, 0.026674974441447792, 0.0264946209758464, 0.02628954102617998, 0.026143479626039686, 0.025944078734147495, 0.025831351070022365, 0.02572789984200351, 0.02559074088613894, 0.02551375292091766, 0.02549837458809597, 0.025433808009319436, 0.02538307745499217, 0.02531588273934861, 0.02529775361970868, 0.02531902403167065, 0.025324349667475234, 0.025345298685971143, 0.025307649228507124, 0.02536996124737751, 0.025536379122543657, 0.025612123900918334, 0.025706696289194333, 0.025841915887017022, 0.025971162852323714, 0.026032711639985936, 0.026212661969080668, 0.02640729308885705, 0.026586561477202716, 0.026816230035334773, 0.02718320369199499, 0.02742742850002223, 0.027694597757851182, 0.02788359378292835, 0.028208324074357253, 0.028637013852750595, 0.028984012780238478, 0.029353489156327493, 0.029670813883429178, 0.030094199645356114, 0.030461057890482562, 0.030930283568138994, 0.03141434682169849, 0.03193185338200483, 0.03244652769296703, 0.032971210990138854, 0.03352518557624964, 0.034098685851971094, 0.03473174023994382, 0.035341075566133105, 0.03589058627916664, 0.03655736647590065, 0.03724313412868303, 0.038132643740219165, 0.03883542990402088, 0.03949520977727368, 0.04026940419272472, 0.041069169789851215, 0.04187690468108369, 0.04272980696177377, 0.04352390453360939, 0.04443628410220512, 0.045368659369093164, 0.046378763317370834, 0.047346226548740836, 0.04836529556514773, 0.049380193014718306, 0.05042209483801918, 0.05142956252159805, 0.052532889207706206, 0.053685759252127, 0.054832716932789766, 0.05600521828002464, 0.057207766644030954, 0.0584311575236489, 0.05970256619634533, 0.06097547209748317, 0.06227581351574924, 0.06354212772076845, 0.06490467777672669, 0.0663346323058863, 0.06773923991091665, 0.0691706292681483, 0.07061121286165373, 0.07209817689382282, 0.07364577245403545, 0.07517955795914275, 0.07674101792448894, 0.07828609985828322, 0.07990770490015811, 0.08152753558344994, 0.08320161603109327, 0.0848989764509077, 0.08664618363339102, 0.08838758631460991, 0.09016758153388796, 0.09195814945490983, 0.09377473299284768, 0.09559959466713275, 0.09746976946376111, 0.09936431635964005, 0.10128315008241183, 0.10322616408103767, 0.105206371718685, 0.10719568649236992, 0.10915692435641083, 0.11120156425428994, 0.11326716250901155, 0.11534946908458665, 0.1174578710514906, 0.1195127506535976, 0.12167244961808549, 0.12384887505055704, 0.12607320029410723, 0.1282806276387516, 0.13049018793046738, 0.13273908844365268, 0.13500650782665566, 0.13731871340034776, 0.13961974745661454, 0.14209385439871294, 0.14441466029121555, 0.14676303751014708, 0.14892270588380033, 0.1513485132035685, 0.15385095901788684, 0.1562907726544633, 0.1587459687679551, 0.16113301721826287, 0.16362853898895668, 0.16630019477955535, 0.168794341760901, 0.17130797754225247, 0.17374348427424438, 0.17630458536763094, 0.17880614424032246, 0.18139691273589026, 0.1839937113776014, 0.186640561206203, 0.18924444388423553, 0.19180900128949002, 0.19443627366669336, 0.19706884208570777, 0.1998511593593084, 0.2024757119373522, 0.20513947773056124, 0.20778512488143827, 0.21044237153853418, 0.21307906925288878, 0.21575902557359128, 0.21839650561896398, 0.22109298960255785, 0.22379057360904214, 0.2263923941022374, 0.2291028332477956, 0.2318074057767554, 0.23450633696733686, 0.2371997421140671, 0.2399796159451185, 0.24265029522863243, 0.2453466739449872, 0.2480118999720906, 0.25067610626924514, 0.2533644401208614, 0.2560199340438681, 0.2585937837176349, 0.2612524211396136, 0.26390145983328067, 0.26646597431123986, 0.2691038019265026, 0.2718533858354234, 0.27444467865371686, 0.27702784201718283, 0.27965428183156466, 0.2822111282672976, 0.2847726152422726, 0.2873093587673795, 0.2898355439865642, 0.29225781306769527, 0.2947704614478597, 0.29731606231756236, 0.2997824444477858, 0.30223132706039846, 0.304670585544846, 0.30708073624419985, 0.3094231278503903, 0.3117993328130575, 0.3141515263888798, 0.31646613244572264, 0.3187706311806947, 0.32096578088506855, 0.32322814355644225, 0.3254588766470899, 0.3277720687776869, 0.329925664218481, 0.33204557561764925, 0.334149431799684, 0.33622591082364883, 0.3381865541674534, 0.34021679913945174, 0.3422691775253968, 0.3442225183133449, 0.3461439947533412, 0.34801978724989413, 0.34987716019005544, 0.3517437017019166, 0.35352571228559915, 0.3551911986129811, 0.35691619425467475, 0.35860140014894976, 0.360246635247081, 0.36185167048587175, 0.3634030947947976, 0.36492854150694864, 0.36641213242335885, 0.36791492629830813, 0.3693062346392537, 0.3705969251416733, 0.3719165446696377, 0.37319177375028556, 0.3745143169907472, 0.37568828671858895, 0.37674767450913943, 0.3778497378271954, 0.37890542675792793, 0.3799231753631823, 0.38088402374946595, 0.38188997394595037, 0.38274502942672817, 0.38355756227338833, 0.38429578510126455, 0.38502386952347506, 0.38568710924242594, 0.38632216361695454, 0.3869077688303534, 0.38736472721377135, 0.38786035321614526, 0.38826606658949625, 0.38865672559223485, 0.3889911855100394, 0.3894145091042268, 0.3896197894027231, 0.3896819701568827, 0.3898051085264965, 0.3898745007612383, 0.3899428124014143, 0.3898983670561296, 0.3898121537640536, 0.3896651862019904, 0.3894675093540235, 0.389153081384229, 0.3888613144121787, 0.38852302668365724, 0.3881199135007605, 0.3876626315768932, 0.3871513869851686, 0.38658637719057953, 0.3860466332143054, 0.3853646963957058, 0.3846339864545683, 0.3838452984729133, 0.3830168966134561, 0.3821468941404694, 0.38121651675240503, 0.3802360332054216, 0.3792228552635277, 0.3781396778697069, 0.37693714340056145, 0.3757641839820808, 0.3745379027009266, 0.37327641756991226, 0.37194305614265133, 0.37057224605497147, 0.3691364642997635, 0.3676516770519031, 0.366078796111629, 0.3645019995247318, 0.3628268679864471, 0.3611565666253444, 0.35943481499141233, 0.3577371383777076, 0.3559062080897994, 0.35396970792158905, 0.35205833485976296, 0.35009991276171804, 0.34816976320645854, 0.3461103840192133, 0.3439974927567659, 0.3418592147810887, 0.3396802515189225, 0.33750480065938043, 0.33524015877900676, 0.33281156998978956, 0.33048927920925203, 0.3281232990523317, 0.32570179774544533, 0.32325395942823515, 0.3208617898639499, 0.31832162704164135, 0.31574860367084034, 0.31316497659153275, 0.3105245859781215, 0.30781874690922445, 0.30512229487765635, 0.30239418242314603, 0.2995957187648858, 0.29681147475348796, 0.2939298993020583, 0.2910917956539313, 0.2882205432728696, 0.2854403609897775, 0.28249196042586017, 0.27946923085446956, 0.276484305325388, 0.2734754601453014, 0.27042608656426337, 0.2673743508458523, 0.2643267267658197, 0.2612283864915644, 0.2581114463885319, 0.25493730091273265, 0.2517906021080117, 0.24859491592104282, 0.24541660935579865, 0.2422205683397549, 0.23905195683969332, 0.23581894905377168, 0.23253956489269134, 0.22928918343257487, 0.22602724284990974, 0.22281622435477316, 0.21952686774360702, 0.21626345222334437, 0.2129613708470448, 0.20965750999160956, 0.20631286948196503, 0.20301175596017904, 0.1998526329557294, 0.19652905735124246, 0.19321287250684835, 0.18989946116952078, 0.18659804978563085, 0.1832903665832835, 0.1800045567252392, 0.17672538941876118, 0.17347965061145967, 0.17021203325128037, 0.16693673102037887, 0.16369147692579394, 0.1604561031935682, 0.15728392427296078, 0.15406396831715385, 0.15087673520073763, 0.14768539993662644, 0.14451118556899623, 0.141363281442113, 0.13822356384796602, 0.13506354064716583, 0.1319675892063534, 0.12888970376009842, 0.12588341953266557, 0.12283794929280907, 0.11980766439956719, 0.11681174278332665, 0.11384042238672588, 0.1109951496199875, 0.10806244075855788, 0.10514465786236195, 0.10227901346163883, 0.09944485881889335, 0.09663374281175645, 0.09386467038791907, 0.09128977818668203, 0.08856501712083216, 0.08588262497975827, 0.08325068191266903, 0.08065006581442896, 0.07809956551343315, 0.07558029836145251, 0.07310250513432659, 0.07070553698694922, 0.06830561568851168, 0.06601082149767226, 0.06369067619164041, 0.061417721101411665, 0.059160929612324546, 0.05698527721646647, 0.05497267375253179, 0.052871914851781915, 0.050823181709905754, 0.04871203342853957, 0.046780229066964385, 0.044949785421874285, 0.04310041087786252, 0.04130022192414543, 0.039532014368286475, 0.03783340323415554, 0.036302325582288776, 0.03468787664455669, 0.03313047520836378, 0.03159470179483276, 0.030154800859726123, 0.02887428949454729, 0.027529840997523244, 0.026246007399599234, 0.024934618908432377, 0.02378150947080769, 0.022840439813711186, 0.021776592627965052, 0.020816327822246884, 0.01987502590412397, 0.018998656939380593, 0.018247709733096282, 0.017491116749817324, 0.01662565431785673, 0.01602295863658722, 0.015475098629624045, 0.015013538211187866, 0.014573836840889665, 0.014284938391956402, 0.013951668797492234, 0.01368319770752579, 0.013422227531981095, 0.013289551195031559, 0.013213231012542997, 0.013202867853788398, 0.013253556920950961, 0.013396253619905851, 0.013566037208023013, 0.013891398275874003, 0.01417673504454907, 0.014530813712671098, 0.014979175774348206, 0.015465295281099899, 0.01611604885707774, 0.016725836754109186, 0.01740800213406358, 0.01799918356114436, 0.018842850981343737, 0.019847107965240317, 0.02079817918432654, 0.021815587521536173, 0.022776231007342107, 0.023940486877033665, 0.025162967712617293, 0.02644433982351226, 0.027785180636059666, 0.029286724070877023, 0.030735172294485223, 0.032271901727558734, 0.03384981443847113, 0.035494318130049725, 0.037152220836778584, 0.03893470559885703, 0.04076594016522248, 0.04267378877915027, 0.044642616146848495, 0.046689931776222215, 0.048778438280763656, 0.0510032405861317, 0.05320576330544086, 0.055473807733745974, 0.057688255272463754, 0.06009978117232795, 0.06264225804000788, 0.06515761481529983, 0.06773409268723257, 0.0703887338759814, 0.07308381798770011, 0.07577390825979831, 0.07859812212696783, 0.08147820120853626, 0.08441850896207974, 0.08740966695250602, 0.09043484565888192, 0.09354042808559737, 0.09670029714562924, 0.09987495872997755, 0.10314811117418661, 0.10653866628355306, 0.109907021181611, 0.11333089460438527, 0.11678781334970577, 0.12032377432329851, 0.12388602949599388, 0.12753006785779078, 0.13122439752567638, 0.13499507586374834, 0.13878595449101566, 0.1425840056160594, 0.14648181393357718, 0.15042702503808533, 0.15443694656753768, 0.158474062750334, 0.16246680761625384, 0.16661028365456057, 0.1707952155018057, 0.17504810097373696, 0.17931316890552626, 0.1836915911843771, 0.18803406566720585, 0.19242313174630366, 0.19683594705297944, 0.20131816704006822, 0.20578168817675205, 0.210356217220711, 0.2149685556368871, 0.21965355249938254, 0.2243364475042671, 0.22908465283406798, 0.23384165235720142, 0.23863788181101242, 0.2433717422391561, 0.24825660980088748, 0.2533258325109742, 0.258253436510307, 0.26322062909122157, 0.268164705349735, 0.2732147569767352, 0.2783058065590094, 0.28341856593919135, 0.2885627355356943, 0.293680648311991, 0.29889266523574304, 0.3040562837086337, 0.30932959331365845, 0.3146242471199946, 0.32001934288472633, 0.32534737623160326, 0.3306534378907754, 0.33603928894451296, 0.34144725788400504, 0.3469558698295335, 0.35239711120605854, 0.35783752119710766, 0.36333189352315026, 0.3688481036245126, 0.3743546937178299, 0.37991607021259655, 0.3854776743737026, 0.39107623284315074, 0.39669047518856143, 0.40229806876154806, 0.40794511262661876, 0.4136227262632468, 0.4192932987204336, 0.4249771440088276, 0.4306780538184985, 0.4363861050068485, 0.44207080925536374, 0.44780599641535723, 0.45354953973311934, 0.4592747418738197, 0.46503702489710874, 0.4708091927779031, 0.4765816102289638, 0.4823590785778663, 0.4881367536836748, 0.49392344416845735, 0.4996652492325255, 0.5054640809528027, 0.5112623919735354, 0.5171782273456481, 0.5229598289903093, 0.5287335523984472, 0.5345259771143434, 0.5403202691840666, 0.546115299871547, 0.5519099831326503, 0.5576857522355239, 0.5634788510961155, 0.5692675832751729, 0.5750204815578931, 0.5808019442638088, 0.5865530256569064, 0.5923197598699158, 0.5980756912473755, 0.6038379368638975, 0.6095687983421265, 0.6151790144804415, 0.6209007738748044, 0.6266039200718074, 0.6322667545921411, 0.6379359278339877, 0.6436293155997642, 0.6492538337222374, 0.6548612221794224, 0.6604334557979885, 0.6660072405508077, 0.6715568907865466, 0.67709123982126, 0.6826045806427542, 0.6881445592726663, 0.6936081505859794, 0.698946600836664, 0.7043824110619066, 0.7097902639664675, 0.715244476022278, 0.7205864851171246, 0.7257507395260311, 0.7310622469580812, 0.7363387629732124, 0.7417426320232102, 0.7469293923058851, 0.7519636897566919, 0.757114228918454, 0.7622294706964576, 0.7673442014077893, 0.7723835842163126, 0.7772966838863553, 0.7822783564451308, 0.7873723815487093, 0.7922527570361765, 0.7971006442623486, 0.801813857783425, 0.8066052395135241, 0.8113149326630009, 0.8160263248209936, 0.8206923199317389, 0.8253740357665907, 0.8299408053922379, 0.8344779431846209, 0.8389566185472568, 0.8433914917520831, 0.8476764706587966, 0.8520341358756625, 0.8563786715938421, 0.8606261951190317, 0.8648231793015313, 0.8689866090533862, 0.8730786674546073, 0.8769705684207365, 0.8809782319401828, 0.8849248060785513, 0.8888808218112082, 0.8926975648440062, 0.8965062625528841, 0.900203959002282, 0.9038470910921671, 0.9074653648094173, 0.9109926549044806, 0.914341674043269, 0.9177720779678595, 0.9211377631734947, 0.9244605889467125, 0.9276938698172359, 0.9309640587520798, 0.9340565210656825, 0.9370899383696317, 0.9398965887683159, 0.942829189946074, 0.9457773870697962, 0.9485551806668515, 0.9512663339335112, 0.9539058429478466, 0.9564824036622085, 0.958990226060018, 0.9614287432406614, 0.9637973931886942, 0.9660518202491117, 0.9682846126938914, 0.9704346738349788, 0.9725204508019738, 0.974531369912922, 0.9764891576198151, 0.9783470385314378, 0.9801525752680658, 0.981858764531068, 0.9834910720007636, 0.9849744341873853, 0.9864666077035753, 0.9880016290193774, 0.9893187887354508, 0.990563141314778, 0.9916942662409286, 0.9927950729409, 0.9938706712920085, 0.9948088546158029, 0.9956713659507259, 0.9963566607706525, 0.9970782295340266, 0.9976593511281316, 0.9982213300773725, 0.9986970202088261, 0.9991921538890411, 0.9994837303204767, 0.9995870137944828, 0.9997343904653867, 0.9997959613310236, 1.0, 0.9998626422312337, 0.9995879184115257, 0.9993140469647099, 0.9989620321469085, 0.9984349100757525, 0.9979370675697876, 0.9974198211953988, 0.9967438836825305, 0.995987341946254, 0.9949923611349356, 0.9940941268121489, 0.993241889607892, 0.9921481697261958, 0.9909746621477045, 0.9897475796942844, 0.988411016672078, 0.9870179687020729, 0.9855217142839303, 0.9839480629213493, 0.9822749108368867, 0.9805487011385361, 0.9785770441687257, 0.9767140511804727, 0.9747631281322832, 0.9728616589519543, 0.9707223929844079, 0.9684897360754228, 0.9662011084167693, 0.9638360021208889, 0.9613510116972186, 0.9588396920636443, 0.956167469018487, 0.9535121190277587, 0.9507760248193322, 0.9479212128434695, 0.9450328561070575, 0.9421794820863079, 0.9391204410133072, 0.9359918050663101, 0.9328728110586169, 0.9295962441784792, 0.926229523639167, 0.9228283990660512, 0.9193617726734757, 0.9158562193634008, 0.9122562224401042, 0.9084137120758801, 0.9047108322424315, 0.900935584947558, 0.8972606735405217, 0.8933246398702306, 0.8893048891782159, 0.8852575287017515, 0.881151802476699, 0.876896352984335, 0.8726874461355252, 0.8684871203331981, 0.8641478739342268, 0.859754051884987, 0.8552320630536621, 0.850741143888189, 0.8462029376224955, 0.8416003822281546, 0.8369453572733395, 0.8323181129764825, 0.8275523879955975, 0.8226814594675662, 0.8178364324529225, 0.8129455697737193, 0.807900700666116, 0.8029359894337162, 0.7980240018134644, 0.7929527141644133, 0.7878433370815408, 0.7825787824697701, 0.7774117030984165, 0.772216583866704, 0.7669676385277535, 0.7616824537465384, 0.756397916050166, 0.7510412904491822, 0.7456513445912054, 0.7402387653790872, 0.7347997318940238, 0.7293838059328493, 0.7238899051814391, 0.7183544628053824, 0.7128250092653315, 0.7072766498960454, 0.7016011028461872, 0.6960324416650014, 0.6905825791085661, 0.6849556113175954, 0.6793193223061667, 0.6735562765688584, 0.6679188291248218, 0.6622636913804328, 0.6566021173476195, 0.650930795025905, 0.6453391609598031, 0.6396427145325332, 0.6337978448351632, 0.6281221790445582, 0.6224406126180609, 0.616772899330915, 0.6110839021086749, 0.6055321311569469, 0.5998306386698012, 0.5941417012816458, 0.5883038176990675, 0.5826622330209784, 0.5770654320410926, 0.5714316673923175, 0.5658095273740317, 0.5602618924046575, 0.5546598847907335, 0.5491169103625978, 0.5435500863814705, 0.5380069956781016, 0.5324182314206102, 0.5269335448123961, 0.5214270468478844, 0.515993267560927, 0.5105817740386067, 0.5051811124957553, 0.49982083900943075, 0.494504483759639, 0.48919638546667665, 0.48396258609347825, 0.4787112674176967, 0.4734955023306901, 0.4682285773811428, 0.4630976595100631, 0.4579562543197767, 0.45289910170338105, 0.44787592110555335, 0.44293229850376703, 0.43797676455872264, 0.433053914337587, 0.4281834829258201, 0.4233561710263036, 0.4186387639147228, 0.4138925913339464, 0.40924451553923896, 0.40459250337650593, 0.39999397312722496, 0.39540082224123924, 0.3909156443802252, 0.3864772844392456, 0.382095693343523, 0.3777663235085578, 0.3734241354618091, 0.3692094816952731, 0.3650058808237096, 0.36089830018945807, 0.3568411847263198, 0.3529628541713021, 0.34899439997961895, 0.34507835651380897, 0.341233322280256, 0.33744894816584603, 0.333742867648105, 0.330077958535903, 0.3264838467514163, 0.3229419229682876, 0.31946258963300367, 0.31597576026905744, 0.31263047152272905, 0.30928256655215763, 0.3060630503630837, 0.3028999613215317, 0.29974172711870817, 0.29670098314064625, 0.2936944370440693, 0.2907697414254196, 0.28790193625126204, 0.28517522034368753, 0.28241346711838444, 0.2798428087473329, 0.2771930583403663, 0.27461430663100067, 0.2718995306609331, 0.2694854114442992, 0.26726331328342207, 0.26494526912989674, 0.2626924679765439, 0.2604517563246588, 0.258334325559631, 0.25619862470042987, 0.25421217924835204, 0.25228159235796077, 0.25042043193686003, 0.2486010670507036, 0.24701881732336797, 0.24529181796078048, 0.24363235189656668, 0.24193370602923778, 0.24041792923807911, 0.23888487276035814, 0.23749242433592763, 0.23615205948616888, 0.2348069394363118, 0.23357814362829937, 0.23248584606900438, 0.23134405434172406, 0.23025650720162125, 0.22918310520674917, 0.2282069671120623, 0.22733330803834764, 0.22644992953762463, 0.22561849238667975, 0.224855544666996, 0.22412286141774654, 0.223448951632888, 0.222814077876444, 0.22222750605962663, 0.2216399071752496, 0.22115260347522084, 0.22072064860170187, 0.2203153926738413, 0.2199516302804372, 0.2197160782930165, 0.21942156269727311, 0.21910505971045444, 0.21890464013644043, 0.21874104817717366, 0.21872281405457006, 0.21861611867864264, 0.2185056686355774, 0.21848273114217664, 0.21849374276029096, 0.21844540000873977, 0.21853200487197028, 0.21863915341066736, 0.2187756745261405, 0.21893583721042725, 0.21920228368031025, 0.21939741614662323, 0.2195488753431944, 0.219804270662558, 0.22007935661811678, 0.22043467772916384, 0.22073902779661767, 0.22096333207778326, 0.2213204317939146, 0.22168985457931756, 0.22221125622382001, 0.22258602111863066, 0.2228697540516088, 0.22329347033909028, 0.22372594001134957, 0.22427150111895372, 0.22470580666669956, 0.22513041677710888, 0.22559017742633294, 0.22605754861358718, 0.226443538412638, 0.22693307400586285, 0.22755703756565254, 0.22802614124453174, 0.22850033820331583, 0.2289428388381591, 0.22942649889243205, 0.22985137580629444, 0.2303373432441458, 0.23081590031884627, 0.23130389352669892, 0.2317633708279155, 0.23222309286792225, 0.2326635565518754, 0.2330942485279222, 0.23338721081716357, 0.2338116158428949, 0.2343521230217478, 0.23472012963992453, 0.23507621265812262, 0.2353753916104829, 0.2357096700900953, 0.2360787230903765, 0.23637009162040784, 0.2366452331442818, 0.2369293071018628, 0.23716536497956622, 0.23731776961147552, 0.2375250487431591, 0.23770840247002653, 0.23793739889295248, 0.2380625041772292, 0.2381441768380534, 0.2382279091449721, 0.23828680044854947, 0.23823249303680336, 0.23825054480897653, 0.23817974769523392, 0.23814124438510373, 0.23806771284327458, 0.2380690774062179, 0.23791282516784043, 0.2376542326280821, 0.23745092670525333, 0.23721419414460534, 0.23698781661549254, 0.2366786072353958, 0.23642150577000617, 0.23603910402717662, 0.23562939498582003, 0.23501174082841556, 0.2345670562757886, 0.23424419301546331, 0.23369923787030922, 0.2331244398065342, 0.2324620830898575, 0.2318325631734716, 0.23108910989596287, 0.23039931200848657, 0.22966989698388185, 0.22893213637626805, 0.22812138610431043, 0.2273225830988601, 0.22643348609595837, 0.22551127327591047, 0.22450319707621752, 0.22352088140819898, 0.2224582759312336, 0.22140888728066485, 0.22032127756560424, 0.21918738834234547, 0.2180264994847793, 0.21691208170682016, 0.21566781978000327, 0.21433141325897856, 0.21303316052763502, 0.21170051022001035, 0.21048289026926523, 0.20906413313097938, 0.20743687782713063, 0.20599159198930475, 0.20451017169219077, 0.20308126743938337, 0.20151959603677977, 0.19995158776716115, 0.19833086377528075, 0.19668356013047475, 0.19489590535468063, 0.19321022828259762, 0.1915972110441863, 0.18983452679539142, 0.18804762577116496, 0.18620608926611038, 0.1843754112387214, 0.18258976487158549, 0.18070077681930338, 0.1787919815024472, 0.17675399236774397, 0.17481984893122157, 0.17299173404081972, 0.17099145932409202, 0.16897559019847652, 0.16682594959556557, 0.16479418516961064, 0.1626837721672692, 0.1606170804331925, 0.15852801920873003, 0.156523365910689, 0.1543811539659645, 0.15208263078995074, 0.14993570325318856, 0.14777003423769167, 0.1456706251831379, 0.1434621822786985, 0.14120526089547716, 0.13898448567385882, 0.13675404085075113, 0.1345588432199783, 0.1323068339136851, 0.1300114327743733, 0.1277571243879133, 0.12549797002374224, 0.12319555923694749, 0.12093469923753926, 0.11875733414483321, 0.11647844699379556, 0.11420282941955415, 0.1119002663222417, 0.10963643943016986, 0.10730553493998435, 0.10505737468075876, 0.10280988683127922, 0.10069583391807081, 0.09843709685657485, 0.09623847092710823, 0.09399761977171198, 0.09177171199977671, 0.0895255848997816, 0.08733373690819994, 0.0851197804298199, 0.08295868489491388, 0.08080951786691512, 0.07857236439780037, 0.07646226247297683, 0.07445288019243211, 0.07235025320717471, 0.07026466998399358, 0.06824061086905932, 0.06618562153265743, 0.06418284108721305, 0.062167404439052026, 0.06017594125146547, 0.058094734587422175, 0.05616616456081898, 0.05432153844093934, 0.05242238839715214, 0.050547572092627405, 0.04866261695749855, 0.04684260111169425, 0.04507731514611865, 0.04330240914130761, 0.04155494668653988, 0.03991428978658522, 0.03821330887783075, 0.03650194749282765, 0.03487321231849181, 0.03327524664451301, 0.03173906206153753, 0.030199823469171227, 0.028689774903955353, 0.02721835391082358, 0.025780535955537254, 0.0245429762444108, 0.0231519871759648, 0.021712660562322864, 0.020419504275195736, 0.019162839551009832, 0.018021490717257123, 0.016827840008087576, 0.01563576645646935, 0.014528557088057293, 0.01345916263447392, 0.012545816418204075, 0.011537061740742227, 0.01049833407192292, 0.009587089058363642, 0.008714534787049226, 0.007985771616140676, 0.007177284052348733, 0.006417801906269367, 0.0056972272358306415, 0.005020075431579028, 0.004341952441054937, 0.0037554967332921537, 0.003348655766806446, 0.002823398262290477, 0.002345495966714528, 0.0018131209720308906, 0.0014395474428443172, 0.001223092397529422, 0.000912396479164212, 0.0006474177452315636, 0.0003747507283224604, 0.0002054239371028923, 0.00015110140697496667, 5.331461258042437e-05, 0.0, 6.92961191132999e-05, 9.293866055417059e-05, 9.353530851312636e-05, 0.0002189886905351642, 0.0003854397824765426, 0.0006363806316896195, 0.0008783970642903242, 0.0013031914412734128, 0.0016121397195305676, 0.001970461651465767, 0.0023677942894767693, 0.00282134413730915, 0.003236273141109424, 0.003788495409160386, 0.004378669067870824, 0.005168693917189249, 0.005813809594276672, 0.00649237049600208, 0.00723086517134372, 0.00801246082585596, 0.008884289176637616, 0.009742962496489815, 0.010697176615531863, 0.011634026191373475, 0.01261464808880967, 0.013497550767346203, 0.014579587389125808, 0.015812214309751105, 0.016944145042595057, 0.018115372415292916, 0.019272492103932858, 0.02052650430400863, 0.021897779115482935, 0.023209144774201614, 0.024558802522885788, 0.025998430877521603, 0.027415463704235383, 0.028774965069999926, 0.03028074409384175, 0.03181786306540199, 0.033438762425655084, 0.035031544948102816, 0.03664945918087366, 0.038310549739323976, 0.04000391297276793, 0.041786047798924926, 0.04353545560932899, 0.04530592819688817, 0.04712456126600865, 0.04897504003554054, 0.05090493568772148, 0.052811231097814326, 0.05467591337094086, 0.05665643288446932, 0.05866393118097186, 0.060838429174784034, 0.0628817377661909, 0.06481490303455537, 0.06694397934385087, 0.06909687194580517, 0.07131310999200166, 0.0735089403343356, 0.0757923334828853, 0.07803258323831007, 0.08030189995167943, 0.0825556970375965, 0.08488639470908516, 0.08721964363884072, 0.08960176783957109, 0.09200663285491278, 0.09444732531238482, 0.09689583571974132, 0.09931944138961141, 0.1018203939752247, 0.10438532127984372, 0.10692127965441037, 0.10948021357260503, 0.11206187994498626, 0.11466604412037625, 0.11740197928535154, 0.1200366253476718, 0.12269926381021466, 0.12522237726038143, 0.12795892657954266, 0.13069371479363542, 0.13346457823387486, 0.13625130217678516, 0.13900190125784417, 0.14182863393081946, 0.1447048067761489, 0.14755668980503417, 0.15042638981175094, 0.15344121684101755, 0.15633131232052963, 0.1592821181145498, 0.1622182595359353, 0.165180401863746, 0.16809749889699513, 0.17111771760439823, 0.17417057643002767, 0.17722804429531053, 0.1803055869341061, 0.18325850256811102, 0.18639400875789036, 0.189602389182407, 0.19275432659010092, 0.19592328710727425, 0.1991139996349406, 0.20231746149286048, 0.2055697896751666, 0.20880600131336358, 0.21206254545263858, 0.2153262096288903, 0.21862487745587325, 0.22191230723199967, 0.22525377104631003, 0.22861308779433878, 0.23196868037704316, 0.23536741047795146, 0.23878364702131485, 0.2422178095709694, 0.24567027541238767, 0.2491676640505398, 0.25265439955549074, 0.25619249618088524, 0.2597167979534048, 0.2632636056193176, 0.26686338034097845, 0.27045076237993426, 0.2739611377523034, 0.2776083729733375, 0.2812730456849948, 0.28489440499539165, 0.28860335720267577, 0.2923804126790584, 0.2961147195863736, 0.2998692439944045, 0.3035785832889315, 0.307382709524344, 0.31123482745162917, 0.31507048266806326, 0.31892658589424977, 0.3228472648870085, 0.32673966981690855, 0.3305813877780621, 0.3345306179298671, 0.33849918743475166, 0.3425576668790949, 0.3465574652966718, 0.35050736847856884, 0.3545654674607289, 0.3586434908989601, 0.3628644791142524, 0.36696799436915395, 0.3709504425861099, 0.3751277562570877, 0.37932317689455297, 0.3836161605407336, 0.3878395937208985, 0.3920871667084079, 0.3963586352074918, 0.4006537711089091, 0.405003020316531, 0.40934098531327884, 0.4137124922395011, 0.418098485447851, 0.4225089338457661, 0.42676821120183733, 0.4312484760316662, 0.4357553270134133, 0.4402618999737867, 0.44478465896232505, 0.4494075047044396, 0.453954044805698, 0.45843117691752355, 0.4630341911485207, 0.4676540151741069, 0.4723217427977314, 0.47697251586501055, 0.48163408159701665, 0.4863249910910459, 0.49103476631128556, 0.4957939794351998, 0.5005373021097418, 0.5052438783202752, 0.5100343286252004, 0.5148408561905341, 0.5196371713831839, 0.524479084407588, 0.5293748082370371, 0.5342405488077933, 0.5391228773184248, 0.5440301240237834, 0.5489432090601196, 0.5538150782367703, 0.5587662456246953, 0.5637288020849242, 0.5686413005318295, 0.5736339381835616, 0.5786602240412037, 0.5836644548891241, 0.5886777738307952, 0.5937831515855163, 0.5988033113528984, 0.6037224082517164, 0.6087814963968735, 0.6138448357486694, 0.6189692377846823, 0.6240334070153094, 0.6290211602198611, 0.6341086281460776, 0.6391965581027739, 0.6442891475787558, 0.6493768072762826, 0.6544293166711244, 0.6595207127876822, 0.6646090204138146, 0.6697902820363968, 0.6748591899496081, 0.6798678888096018, 0.6849454370273675, 0.6900180170404715, 0.6951505448705164, 0.7002024946782577, 0.7051193077299223, 0.7101789839189192, 0.71522476189646, 0.7203264366245737, 0.7253346031402287, 0.7303053779579949, 0.7352935206067799, 0.7402668258902858, 0.7451455331659166, 0.750096337519559, 0.7551476661132451, 0.7600383638220812, 0.7649129868653495, 0.7697962668310717, 0.774630813886607, 0.7792885560703334, 0.7841031388990495, 0.7888865054392838, 0.7936690409218196, 0.7983851630904907, 0.803048741958802, 0.8077055214788994, 0.8123287276714652, 0.8170183537799286, 0.8215593756808064, 0.8260612994759207, 0.8305410295907735, 0.8349865407874548, 0.8394181896596727, 0.843787903958523, 0.8480018552209224, 0.8523099041589425, 0.8565706450454359, 0.8607659989878756, 0.8649325875578641, 0.8690402325760966, 0.8731069427752964, 0.8771216698358709, 0.8811888517233818, 0.8850842141075056, 0.8888042463915964, 0.8926173509301256, 0.8963716860679506, 0.9001148753192607, 0.9037438381379006, 0.9073498952910808, 0.910857399016724, 0.9143066469117983, 0.9176962195852209, 0.9210247357718294, 0.9243434104665593, 0.9275391697263219, 0.9305765337862096, 0.9336587393356426, 0.9366702542919847, 0.9396979485428967, 0.9425547942750723, 0.9452472505547147, 0.9479787262377569, 0.9506338526218304, 0.953233955527208, 0.9557318612154049, 0.9581484564052072, 0.9604922262880747, 0.9627571675870085, 0.9650038181827206, 0.9671010087097551, 0.9690591628839239, 0.9710074176570109, 0.9728720751472868, 0.9746481312626623, 0.9763442774459784, 0.9779503360762364, 0.9794750443841829, 0.98091265037612, 0.9821794036928517, 0.9834517379094869, 0.9848278190316477, 0.9858886868416075, 0.9868675079609711, 0.9876181839739997, 0.9884466524524621, 0.9891588057651836, 0.9898012155463652, 0.9903479570157131, 0.9908604746618569, 0.9912084607749224, 0.9915126600938217, 0.991670153341266, 0.9917374881322519, 0.9915649707067868, 0.9914685800600833, 0.9912803650849229, 0.9909823666381475, 0.9905855363198504, 0.9901122306514908, 0.9895162907339076, 0.9888940648163643, 0.9880966970118477, 0.9872072216495991, 0.9862120984630277, 0.9851389435441644, 0.9839719649727768, 0.9827110838268185, 0.9813562737922841, 0.9799820192652223, 0.9784300619735049, 0.9767141189479704, 0.9749920962452904, 0.9731756343433412, 0.971168777375843, 0.9691768602047671, 0.9671433343536693, 0.9649483879911397, 0.962660555717124, 0.9602104435109493, 0.9577477645178526, 0.9551640696772842, 0.9525165206922647, 0.9497752636948364, 0.9470030057692389, 0.9440706768343944, 0.9411046169185038, 0.9379937884196529, 0.9348010961187636, 0.9315356518613043, 0.9281792582433841, 0.9247559185150078, 0.9212381957468541, 0.91764220854065, 0.9138414833491412, 0.9101067436915459, 0.9063629419753285, 0.9024535365983358, 0.8984683113117402, 0.8943207469098267, 0.8901982271143579, 0.8860683780016362, 0.8817840504904157, 0.8774299289400124, 0.8729896903173142, 0.8685018124110501, 0.864003765452069, 0.8593758867906696, 0.8546869349988182, 0.8497889673151078, 0.8449996936807467, 0.8401660143828231, 0.8352437216397848, 0.8302609797081986, 0.8251759954910953, 0.8200838604682792, 0.8150879867126671, 0.8098646160520078, 0.8045971789744829, 0.7992295821469121, 0.7938838443084681, 0.7884148186595404, 0.7829917165632653, 0.7775228865162194, 0.772089398396869, 0.7665257727951903, 0.7609404939235638, 0.7553070500693315, 0.7496424450252437, 0.743886751924813, 0.7381717994674125, 0.7323520909787035, 0.7265879659413343, 0.7207933499742758, 0.7149357549882598, 0.7090921455278973, 0.703376751508586, 0.6974661637759392, 0.6915441336134703, 0.685471641994524, 0.6795479359092206, 0.6736873780835615, 0.6677247735378045, 0.6617557174587033, 0.6557380588355318, 0.6497665892079659, 0.6436860526733149, 0.6377219932685759, 0.6317520749239653, 0.6258403979594703, 0.6198592116141273, 0.6140237040199985, 0.6080377444348513, 0.6020689457316635, 0.5959822310483487, 0.5900671327936544, 0.5842472048434175, 0.5783475632531316, 0.5724686364557079, 0.5665591569590418, 0.5607322129233625, 0.5549970794951568, 0.5492065330747734, 0.5434452095993622, 0.5375828777392835, 0.5319001558125328, 0.5261771966429871, 0.5205560286866907, 0.5149611718152555, 0.5094697258259092, 0.5039258386411998, 0.4983673385260372, 0.49290759277795226, 0.4874860001943993, 0.4821176305051522, 0.47677637618180546, 0.4715539802756643, 0.4662936668687204, 0.46108498338255755, 0.45588058799071873, 0.4507837889055905, 0.44567716393737034, 0.4406923765359635, 0.4357581438443489, 0.43103383005110585, 0.42618572833119994, 0.4213579998011803, 0.41664392618723045, 0.41199193486594154, 0.40723623038824847, 0.40273139229422217, 0.39843018417462145, 0.39401795188339145, 0.38967265000994006, 0.38538164046286805, 0.38117337582709515, 0.3770109346908832, 0.37294151049130225, 0.36893981579470864, 0.36491902124783293, 0.36106613105630675, 0.35733956329658056, 0.353610280512818, 0.3499520251304697, 0.3463216156744133, 0.3428127593459264, 0.33941798337093915, 0.33604498051183396, 0.3327462887995658, 0.32958353596030016, 0.32642660473697543, 0.32335263105123674, 0.32035201776766786, 0.31742968991228365, 0.31440580184828526, 0.31166197057818196, 0.3090994830740153, 0.3064774070158827, 0.30390080335347, 0.30143484548667177, 0.2990432202524086, 0.2966341050835564, 0.2944031807769284, 0.2923774870589944, 0.29026901174064823, 0.28823888817622945, 0.28617257742908614, 0.28431158702178627, 0.2825468855177312, 0.28082286699795217, 0.27917077232384185, 0.2777349882799017, 0.2762079397857007, 0.27462448593419064, 0.27327184121606474, 0.2719880143334842, 0.2708209273512684, 0.26966780251779154, 0.2685501836606914, 0.26754174066699393, 0.2666001878039268, 0.2657118070231343, 0.26490391461922713, 0.26417344255170855, 0.263491843901245, 0.26287399848612075, 0.26238479153074173, 0.26188366940055463, 0.2614167861818548, 0.2610478997384873, 0.2607393512715037, 0.2604900166634452, 0.26029876783072425, 0.2601557115018103, 0.2600783353865742, 0.2600551332073114, 0.2601156797981052, 0.2601936765698053, 0.26030236081802405, 0.2604869178149648, 0.2607200801730447, 0.26099628556143073, 0.2613236522947213, 0.2616957923704844, 0.2621115196271795, 0.26256963076174455, 0.26299444638048713, 0.2635430636366886, 0.2641349379776154, 0.2647507735551274, 0.26540017246600334, 0.2661435462092242, 0.2668495302951941, 0.26756770826754994, 0.26834307268365204, 0.2691481633644498, 0.2698589672731433, 0.2707348839065482, 0.2717521300829296, 0.2726495047390925, 0.2735714898633491, 0.2744156983514312, 0.27539471588543935, 0.2764053192281422, 0.27740946631927516, 0.2784270033217288, 0.27954882107794005, 0.2805781936346516, 0.2816577510774673, 0.28271102682598914, 0.2837775608836107, 0.284719452095085, 0.28582339062578066, 0.2869969340181532, 0.28809027247909175, 0.2891854215916314, 0.29028528123375785, 0.29137907555355885, 0.2924836798928844, 0.2935696918219517, 0.29465121132117217, 0.29566977657566385, 0.2967449785180825, 0.29785182817807426, 0.29889622364739504, 0.2999289699263625, 0.30086548320745626, 0.30188138569332434, 0.30290323216773607, 0.30387452089286227, 0.3048256515260388, 0.3058170042177419, 0.306717230646415, 0.30750151657614877, 0.3083732930458583, 0.30921719406588954, 0.31005891111150796, 0.310841927621224, 0.3116842475310664, 0.31239868052019076, 0.3130879027497412, 0.3135707196606299, 0.31422747108664995, 0.3149231981709446, 0.3154903426983747, 0.3160221230032518, 0.3165090416396857, 0.3169689889677702, 0.31745657196431015, 0.31783142855056806, 0.31817059685022725, 0.3183896780234167, 0.31866452568621667, 0.3189307292306711, 0.31911347442578336, 0.31925387250157977, 0.31931188103492913, 0.3193707246375963, 0.3193875929392808, 0.3193529403207458, 0.3192717013601671, 0.31917424707936387, 0.31899509266412274, 0.3187351699282999, 0.3184684630883462, 0.31815304957774926, 0.31790702340723953, 0.317478753110877, 0.31685025434135866, 0.31635572615913565, 0.31580773857180766, 0.31521547336171796, 0.31456067902076223, 0.3138847118557943, 0.3131226110355849, 0.3123108519549573, 0.3114099747890134, 0.3105037856447118, 0.30961137423887153, 0.3085933825920985, 0.3075278383508315, 0.3063313187721016, 0.30518064116869453, 0.30411746656351757, 0.30284439360068516, 0.30152777617380216, 0.30007509179506375, 0.2986815060285507, 0.2972554567863077, 0.29576022086475623, 0.29421705234516815, 0.2927051918141982, 0.2910574190242116, 0.28921849942441097, 0.2875049428511857, 0.2857405901337827, 0.2839923788825423, 0.2821217806027881, 0.2801638134550853, 0.27821216481223204, 0.2762156148911479, 0.2743284160085577, 0.2722255230317688, 0.2700015423303124, 0.26784242598144087, 0.2656444050063561, 0.26346945816470424, 0.2611878868619942, 0.258798471584152, 0.25645980927296397, 0.2540842007922033, 0.25174276005158674, 0.24928750327639018, 0.24678044177862804, 0.24426862191229864, 0.2417266970121884, 0.23908976180049837, 0.2364983555578035, 0.2338362341902579, 0.23118865090658278, 0.22851038330282264, 0.22575054991198484, 0.2230225250606023, 0.2204452808832553, 0.217638870903786, 0.21481747282646158, 0.21182806932185014, 0.20899702004659423, 0.2062486276552788, 0.2033611443360744, 0.2004605821190033, 0.1975302074096689, 0.19460810222825298, 0.1916656527015518, 0.1887225252247641, 0.18576941273427294, 0.18282496944916582, 0.17985307676471995, 0.17688435083123522, 0.1739011626546941, 0.17091488826671528, 0.1679396304277835, 0.16494843398770614, 0.1619534641596719, 0.15896495342636996, 0.1559042099823637, 0.15293057423921022, 0.14995701750194115, 0.1470902957485352, 0.14410845420296597, 0.14110666021520532, 0.1381507298204233, 0.13520508232765396, 0.13238018970083934, 0.12944419544028632, 0.12643122736920978, 0.12354631395782542, 0.12067574684561662, 0.11786882522071139, 0.11502421285489854, 0.11219999355550202, 0.10939688115615243, 0.10661562885459229, 0.10381760362433057, 0.10108744367708551, 0.09847135009757632, 0.09577490829378058, 0.09310803839969094, 0.09052368573996276, 0.08791053913357355, 0.08538382568131932, 0.08283192218181089, 0.08031722132505975, 0.07773888362178458, 0.0753111500484358, 0.0729675858110068, 0.07059746809909176, 0.06826397697951171, 0.06605091633071312, 0.06378194264736016, 0.061556111391594254, 0.05937341794570417, 0.05723395598712988, 0.055172944404238124, 0.05311612634496321, 0.05111401435525435, 0.049148068808431124, 0.047228816125505245, 0.045435260740130386, 0.0435999873083524, 0.041873455923052236, 0.04013429025376206, 0.03844964453663194, 0.03670948408384995, 0.03514626132898263, 0.033586423015940975, 0.032123831503698276, 0.030707401065400736, 0.02953527418281175, 0.028189313280319407, 0.026859717519430917, 0.025638898482007715, 0.024474473647597497, 0.02348020924987368, 0.02241389843371057, 0.021436492941091113, 0.020491242663304193, 0.019608507205315928, 0.018730549513279914, 0.01797779142099571, 0.017374344483700253, 0.01672465202889607, 0.016137552447729547, 0.015621162078186627, 0.015156322951064677, 0.014713541877655159, 0.014376223424712904, 0.0140974128399545, 0.01399979583747196, 0.013822653316838233, 0.013776790796253642, 0.013721602754659439, 0.013734008898418264, 0.013716457870243151, 0.013872820152200937, 0.014224034017074668, 0.014481382115448721, 0.014805451009009563, 0.015129476423671082, 0.015592236795238544, 0.016167790956635047, 0.016744199728396456, 0.017383468578346273, 0.01817264403124667, 0.018924964836904316, 0.01962095246000134, 0.020520302947876788, 0.021477025923360378, 0.022600753960160598, 0.023658751174493096, 0.024793726947478396, 0.025976912786691928, 0.027223101473961224, 0.028465812479173267, 0.029844044356991513, 0.03132325958548581, 0.03281025996310551, 0.03435676124921967, 0.03611999077630943, 0.037764226999813647, 0.03950180647385229, 0.04127518776140754, 0.04311395901239022, 0.04498153145452213, 0.04695102669410211, 0.048988522950901024, 0.05107455605452755, 0.0532187255572425, 0.05540274873433898, 0.05766318446666866, 0.05985603701358583, 0.06224164230031987, 0.06467454833008283, 0.067164096043503, 0.06969213179469992, 0.07242268866392754, 0.07503000044729495, 0.07769549197093174, 0.08038296320514485, 0.08316585414112936, 0.08595793961585799, 0.08885172162476201, 0.09179479840429672, 0.09486140089675618, 0.0978929460170361, 0.10082391766179315, 0.10397940858551488, 0.10717730237306161, 0.11058448867845237, 0.11384738926498897, 0.11716307368459548, 0.12053036226841503, 0.12394816219985612, 0.12735851972319884, 0.13088157011524573, 0.1344272001041322, 0.13804161466240955, 0.1416985474996084, 0.14534962195562592, 0.1490970657416148, 0.15286175663131887, 0.15669038168515387, 0.1605570938938302, 0.1646153583459862, 0.16853928512469776, 0.17247514212523718, 0.17649616940699028, 0.18055975999675958, 0.18460817603706547, 0.188761745054224, 0.19296556501074796, 0.19719148448789073, 0.2014548114283837, 0.2056456919659357, 0.2099966112208078, 0.21450911852947105, 0.21890432027480175, 0.22333801173153264, 0.22771308699391957, 0.23223374380150452, 0.23675032665404352, 0.24133749027612958, 0.24595387969953092, 0.250665501081248, 0.25533287001934574, 0.2599768857890823, 0.2647181761287468, 0.26948896108088627, 0.27437685787906074, 0.2791955596541743, 0.2839478417514983, 0.28884709977759865, 0.29377343654480254, 0.29877950313922613, 0.3037535710965508, 0.3086920828882147, 0.3137342655591025, 0.3188019607212463, 0.32400474445786154, 0.3291097985992471, 0.3342159316190828, 0.33938739804883844, 0.344587073026606, 0.3497574628914813, 0.3550191228471925, 0.36024290401655096, 0.36555918701078827, 0.37089541303200435, 0.3763176998430665, 0.38168667224304426, 0.38701019615481513, 0.39243694413040076, 0.3978836979994713, 0.40337257808499266, 0.4088571689557571, 0.41430214169819485, 0.41983775101603354, 0.42539569881161815, 0.4309669765148231, 0.43655698687655475, 0.44221402409077615, 0.447835690543212, 0.45352276009435055, 0.4591816589682392, 0.46486375171291294, 0.4705200811446819, 0.4762523700556458, 0.48194602043323115, 0.48772185558049036, 0.4935122749225352, 0.4994838990442671, 0.5052829233062738