0.032579564769302, 0.032215194898677676, 0.03186667164963059, 0.031536919465785025, 0.03124858611375276, 0.03094532563124421, 0.030626330591918306, 0.03035079343237965, 0.030083011569935824, 0.02990638384729436, 0.029640013640479728, 0.029393275084722382, 0.029143237669047285, 0.028900789005105943, 0.028619246545481033, 0.028394943512838496, 0.028232431912666212, 0.02800565499342612, 0.027784598073074828, 0.027531588018623026, 0.027325450611861143, 0.027110099597684966, 0.026910888544204297, 0.026714021700988647, 0.026506303483887356, 0.0263168738490802, 0.026135169794874475, 0.025950881800495484, 0.025773871068404158, 0.0255973641455295, 0.025425777512421144, 0.025286561452207236, 0.025122520730583936, 0.02492034892936487, 0.024777326361218904, 0.024639582657375498, 0.02459394417845322, 0.024457417614276188, 0.024283448836481977, 0.02417612275200307, 0.02407721717540977, 0.023981905676983613, 0.023901228593372795, 0.02382773443046517, 0.023765301314796396, 0.02371219958274496, 0.023675473471937374, 0.023640997804917324, 0.02359165357271333, 0.023581604045356207, 0.02358102935242047, 0.02354802581368921, 0.0235729110451051, 0.023658460465382787, 0.02369380275437267, 0.02374156814214987, 0.023737586916634985, 0.023818708770586835, 0.023915799636448336, 0.024015118985482645, 0.024125260367542894, 0.024321152537881845, 0.024444926229825675, 0.024561334574001087, 0.024720519638892973, 0.024894285826895877, 0.025025154310508235, 0.025235518005838724, 0.025464192247657592, 0.02569733796693377, 0.025943465970102896, 0.026162380658079167, 0.02644081477657991, 0.026814011374522797, 0.027106332344832812, 0.02741642034447016, 0.027662938465414007, 0.02801849983452962, 0.028397158365837918, 0.028777952365442602, 0.029173458251010947, 0.02965518035696704, 0.03007241311475896, 0.030507878959138375, 0.030964955692971495, 0.03144146995646542, 0.03187977842653333, 0.032402132474048766, 0.03290831024857403, 0.033467121190357774, 0.03404096748700795, 0.03464911112174514, 0.03525256813979026, 0.03591618984337879, 0.03655037396977468, 0.037205465019480216, 0.037857736482060665, 0.03855754379375362, 0.0393056439609522, 0.04004108702516734, 0.04079809590345776, 0.041497117091556165, 0.04230724537147586, 0.04318351940641456, 0.0440222684704945, 0.044882123099607256, 0.045764927540733885, 0.046667231985796385, 0.047520117384462365, 0.04847482207961915, 0.049447431683065105, 0.05043525269466613, 0.051446096868794894, 0.05245789840000512, 0.05351074748330757, 0.05458308760231296, 0.055699155010968664, 0.05680905914499665, 0.05796153498621495, 0.05911358003870121, 0.060289350635003125, 0.06145158111378178, 0.06267938201794322, 0.06389654037152884, 0.06517166807415783, 0.06646696042020032, 0.0678268439202585, 0.06915814274953598, 0.07053349543928018, 0.0719096321735058, 0.07331046487826293, 0.07475603211577155, 0.07620291052787957, 0.0776173497513408, 0.0791212960436498, 0.08064636824283551, 0.08222485383899261, 0.08378849974006901, 0.08536863249065207, 0.08697943582742128, 0.08861270515008482, 0.09027506744649659, 0.09195198786671979, 0.09357349229244762, 0.09530488136888902, 0.09705391368213531, 0.09880409573874589, 0.10059175616100668, 0.10248345698695902, 0.10429605549394212, 0.10613187278972197, 0.10793120324455005, 0.10981951204205169, 0.11173986331461028, 0.11366352732492188, 0.11560652192866798, 0.11753486992557699, 0.11952036976304241, 0.1215617387652796, 0.12357629652244365, 0.12561008340616597, 0.12765091560475197, 0.1297236345202179, 0.13175297383305862, 0.13386820100057828, 0.13599701010890705, 0.13816328909763062, 0.14031679193050015, 0.14253634737343537, 0.1447138221471303, 0.14690901461944655, 0.14910095529379402, 0.15133217745622113, 0.1535729740700083, 0.15583370056461207, 0.1581079124663955, 0.16034275326252084, 0.16264934482918703, 0.1650464534204426, 0.1673613704176437, 0.16969006990486968, 0.1719336405879064, 0.1743000173254605, 0.17667581603575963, 0.17905393717849544, 0.1814384024089739, 0.18384605482237662, 0.18624077854840865, 0.1886829993553748, 0.19108599115575328, 0.19349737159884764, 0.19594007385145298, 0.19836299041968658, 0.20078833747124236, 0.20322601294750575, 0.20566915526750068, 0.20812205545750798, 0.21057315949936528, 0.21299389186141532, 0.21545545126013174, 0.21791708251103595, 0.22037833960883593, 0.22283875995074334, 0.2252454135153646, 0.22770934291176492, 0.23016801403471235, 0.23262809672219795, 0.23507503669215557, 0.2375690682243054, 0.2399983274453549, 0.2424244723405573, 0.2447992990279152, 0.24722274001927644, 0.24963967036519874, 0.25204609609538986, 0.25444358870870115, 0.25687397509092735, 0.2592468091040872, 0.2615811362353856, 0.26394083821010206, 0.26628904253242724, 0.268657307492045, 0.270976673043978, 0.2732151757947154, 0.27551945580928583, 0.27780662738980844, 0.28014917742648726, 0.28239207857307325, 0.28456178918541236, 0.28678325333312366, 0.2889854951426054, 0.29122730044006573, 0.2933822812282691, 0.29550137195321274, 0.29762316837635494, 0.2996570403345764, 0.30174615067361177, 0.30380972551989316, 0.305894960514461, 0.3079008797616106, 0.30983584976089457, 0.31179990607738056, 0.31373632684816316, 0.3157107925282929, 0.3175826387968676, 0.31940075719147043, 0.32122537362507086, 0.32302157466546344, 0.3247667345340124, 0.3265070023321707, 0.3282005210748479, 0.32987923784066375, 0.33152469539239093, 0.3332177700443488, 0.3347853970002188, 0.336253860544384, 0.3377696178008387, 0.3392496404417546, 0.34075615811885857, 0.3421556603490028, 0.3434354896628542, 0.34477822945443864, 0.34608097964458384, 0.34741469384052226, 0.34862811084191986, 0.34976447775304814, 0.35090936226223557, 0.35201400666293314, 0.35308819554989285, 0.35410997346625006, 0.35507913456168283, 0.356020417449694, 0.35691938233201237, 0.35783999996836585, 0.35864522622207584, 0.3593075627700017, 0.3600456496149953, 0.36073666871522214, 0.36139597694650394, 0.3619912777040868, 0.3625964608377471, 0.3630926854002557, 0.3635458576584768, 0.3638927917284847, 0.36426607629778596, 0.36458611303430355, 0.3648637510115363, 0.36509301969475105, 0.3652604365247389, 0.365394817059573, 0.36553600478933107, 0.365565377933546, 0.3655490509133157, 0.36551878812914085, 0.3654058852413803, 0.3652159049842522, 0.36501667919233227, 0.3647697287211404, 0.364459683191476, 0.364118806581873, 0.3637053099244441, 0.36326961670304836, 0.36278377449955806, 0.3623157216525413, 0.36172178544950667, 0.3610060939767697, 0.36033023319879276, 0.3596039038994981, 0.3588985790519535, 0.3580635322465796, 0.35715440369481477, 0.35623213815939353, 0.355262559054218, 0.3542677862471785, 0.353201192733904, 0.3520128174766814, 0.3508645778123163, 0.34966648673520623, 0.34848523588692065, 0.347181171184751, 0.34580419403942825, 0.3444155403978423, 0.34298130749313627, 0.34146126928449266, 0.3399421649881917, 0.3383797544848719, 0.3367675739079248, 0.33511032552707926, 0.33346618351985124, 0.3317134456379481, 0.3298429211582249, 0.3280202499209387, 0.32615357383228544, 0.32423020886147347, 0.3222797535851041, 0.32035297223317305, 0.31831041118472153, 0.3162309337624641, 0.3140792752955112, 0.31193129835671374, 0.30975886343491327, 0.3075338505660611, 0.30527292754248064, 0.30294788127164973, 0.30062044091658807, 0.2983028535470606, 0.29589879845279765, 0.2934631075433912, 0.2909369894122377, 0.28844683494153095, 0.28589942185114264, 0.2833461240780735, 0.28075990167716364, 0.2781334305876859, 0.2754857892155329, 0.27282155624562493, 0.2701130267792979, 0.2673772457489306, 0.2646201825680912, 0.26183191925871324, 0.2590971512599077, 0.2562511824875901, 0.25338685717494414, 0.2504197504688113, 0.24753000876987613, 0.24467712726833923, 0.2417362414860104, 0.23877841837466598, 0.23578896646167738, 0.23280084169781834, 0.22984909765843173, 0.22682296303231106, 0.22378524355274446, 0.22067370512985088, 0.21762190444738036, 0.21465612804996945, 0.21156514578942628, 0.20846804169883426, 0.20537179949250398, 0.2022623301110951, 0.19910740997708012, 0.1959937855385681, 0.1928739012848921, 0.18977060703162174, 0.1866379981955864, 0.18353003872002646, 0.18038987575284007, 0.1772502673854982, 0.17421836204793184, 0.171068093706905, 0.16787371336497464, 0.1647465858446843, 0.1616246532717152, 0.1585947238716764, 0.15547387994451378, 0.1523563351376478, 0.1492600597517791, 0.1461751556561234, 0.14317804861452027, 0.14010720895435977, 0.13703790507142366, 0.13400243288794209, 0.13098283598456092, 0.12801663346716924, 0.12502505825488675, 0.12208136129568298, 0.11912461644026262, 0.11618917484808619, 0.11332937081146988, 0.11043036454815339, 0.10762763218950115, 0.10477008900189541, 0.10194192238380943, 0.09912420708126339, 0.09635637169730354, 0.09366377946841815, 0.09094596351132293, 0.08825931709787704, 0.08564113294202222, 0.08301244255134634, 0.08044631699730734, 0.07788166869081514, 0.07535270300903313, 0.07287978167561361, 0.0704199014039288, 0.0680531795305984, 0.06566107826429575, 0.06330991423266041, 0.0610435990656365, 0.058768631754791086, 0.05652365334956139, 0.05433734228525813, 0.052193711882925875, 0.050121764397440864, 0.048060654613503534, 0.04609047004327813, 0.044114282923066885, 0.042206714809230696, 0.040324583603356896, 0.038491994435680355, 0.0368087944054875, 0.035062821891357815, 0.03335879185411517, 0.031724955476875635, 0.03014493373872711, 0.028591532377351448, 0.02712230538830084, 0.02570701283426799, 0.024342438183035896, 0.02303100629707178, 0.021764701959078325, 0.020561988233053743, 0.01943196815128478, 0.018335644243425018, 0.01729560833629214, 0.01641381149345721, 0.015474824365247953, 0.014555163776439284, 0.01374802116148797, 0.013001122501507445, 0.012287588740067482, 0.011665214011985149, 0.011117467666017405, 0.010612463884391238, 0.010168696272021787, 0.00983220028122301, 0.009506185689433528, 0.009209497219988063, 0.009017673389927774, 0.00888871783644898, 0.00879251599299748, 0.008794164077192645, 0.008930726350761125, 0.009048050909219715, 0.0092326923374242, 0.00941855456663826, 0.009745882327244562, 0.010138287839657452, 0.010592682182067882, 0.011111529043344882, 0.011781525822549845, 0.012419545091726152, 0.013067049476765187, 0.013853164762463045, 0.014705512577444246, 0.015637817983232324, 0.01662146608225292, 0.01759139627163254, 0.018720327753583132, 0.01991223075359454, 0.021160995182987658, 0.02248158123835553, 0.02390200360818305, 0.025347171224493897, 0.02685949178988306, 0.028376395200680478, 0.030031009348206635, 0.03174081938016419, 0.033524270401550836, 0.035371727125755634, 0.03729031576242704, 0.039265922423460685, 0.04135243907009635, 0.043452805522093886, 0.045621075563154256, 0.04777057124070986, 0.05008440095142748, 0.05249735825500011, 0.054930596957671204, 0.0574283577677444, 0.05999894393688581, 0.06262417470792533, 0.0652529199805868, 0.06801438512273836, 0.07083620033581595, 0.07370665619925086, 0.07665099603479035, 0.07969580974868175, 0.08275476746061237, 0.08587584136762759, 0.0890365974083984, 0.09228335396409677, 0.09561839386723017, 0.09898024594385008, 0.10240258410138785, 0.10581543266967129, 0.10936570210895134, 0.11295890721058037, 0.11662018466994506, 0.12033540867509863, 0.12416032613573114, 0.12797604645242638, 0.1317671598029414, 0.1357056360607613, 0.13969470523875052, 0.14372583454127763, 0.14781686113956682, 0.15195247988219754, 0.15614326209894505, 0.16038291469006719, 0.16473203828501165, 0.16906073603608276, 0.17342538536536622, 0.17785740222599633, 0.18233782960388079, 0.18679309965183646, 0.1913771085574467, 0.19600469366865603, 0.2006720227616823, 0.2053807873832432, 0.21009675657527496, 0.21489143749182615, 0.2198139825546686, 0.22467341939503988, 0.22957543431692118, 0.23440889604711423, 0.23940654346310902, 0.24446259643735088, 0.2495228884415388, 0.25461714414976006, 0.25973294488452975, 0.2648948524551224, 0.27006619697389517, 0.2752931389795221, 0.2805490068864133, 0.2858485024231987, 0.2911586576388658, 0.2965069914638936, 0.30187110431405156, 0.30726216102801535, 0.3127181302804229, 0.3181553006853635, 0.32355611903617265, 0.3290524166649215, 0.33456890000402423, 0.3400709994378106, 0.3456299065647943, 0.3512640234493665, 0.35684686504862184, 0.3624478440912898, 0.36803028033403345, 0.37366859210690806, 0.37932470857813083, 0.3849870023752463, 0.3906606155674757, 0.39631416672061126, 0.4020114762847508, 0.40769019155591846, 0.413403556024183, 0.4191207890457179, 0.4248176014531607, 0.43054370361541777, 0.4363397413599632, 0.44205762946773575, 0.4477787679130937, 0.4534663723022509, 0.45919476325151426, 0.4649003984438658, 0.47062553357713055, 0.4763452173352775, 0.48202650548231374, 0.4877369253997924, 0.49343421057583225, 0.49912492058361835, 0.5048043598657767, 0.5104819625607536, 0.5161353744882178, 0.5217740990588752, 0.5274008045943719, 0.5330125373029401, 0.5385491179159583, 0.544135495115988, 0.5496786472272797, 0.5552248144358873, 0.5607473817842077, 0.5663355355633208, 0.5717980193822425, 0.577204713065488, 0.582629756623543, 0.5880297514876696, 0.5934053294343582, 0.5987518291844474, 0.6040651107543235, 0.6093548893343973, 0.6146140865921946, 0.6197536876144516, 0.6249597522388933, 0.6301813467933709, 0.6353030149789689, 0.6403883770002391, 0.6453891379642938, 0.6504051072606223, 0.6554266930061584, 0.660352583067883, 0.6652381786150044, 0.670028284829614, 0.6748369906047624, 0.6796093823999056, 0.684323278648414, 0.6889578973312027, 0.6935808382729188, 0.6981532998186885, 0.7026933470669097, 0.7071608072247647, 0.7115685918690674, 0.7159338661499624, 0.7202457883675151, 0.7245458793665221, 0.7287433968469051, 0.7327894207962344, 0.736891474836543, 0.7409323874666348, 0.7449152448145684, 0.7488324873686547, 0.7527029234199769, 0.7564936727235713, 0.7602222040612229, 0.7638759775575202, 0.7674794688828218, 0.7710111836236643, 0.7744848809594878, 0.7778919083808846, 0.7812773424349669, 0.7845434159872449, 0.7877164453824153, 0.7908529856296626, 0.7939200505495352, 0.7969084636543521, 0.7998355073663402, 0.8027429324899679, 0.8055185866332968, 0.808223884580081, 0.8107884262506064, 0.8133587575215581, 0.815870540949553, 0.8182838959456199, 0.8206205084690621, 0.822862968671752, 0.8250467712432157, 0.8271852695199927, 0.8292061714752823, 0.8311491535365769, 0.8330322095811444, 0.834815175869961, 0.8365347339302592, 0.8381578263727874, 0.8397018323783075, 0.8411169776116116, 0.8425069525596646, 0.8438215959592379, 0.8450427670806478, 0.8461803172533754, 0.8471748054128346, 0.848151947328135, 0.8491210351115148, 0.8499132533960796, 0.8506228838971913, 0.8511919596003958, 0.8517424154175407, 0.8522092534598327, 0.8525854287633009, 0.8528750750063899, 0.8531138137048387, 0.853226170092328, 0.8531950192256913, 0.8531460763571868, 0.8530091337934552, 0.8527726806253816, 0.8524622089770052, 0.8521604415538464, 0.8516626604556299, 0.8510832550023015, 0.8503727015042967, 0.8496349646267806, 0.8487812632773118, 0.8478765251750964, 0.8468849164107265, 0.8458018050953644, 0.8446384164958944, 0.8434247022248281, 0.8420855632306314, 0.84066346726074, 0.8391145810922342, 0.8375326424557594, 0.835914920416094, 0.8341576847155107, 0.832319557445641, 0.83036689142816, 0.8283718804737346, 0.8263218551573869, 0.8241598363319973, 0.8219184296532932, 0.8195980148570466, 0.81719900612841, 0.8147083149835396, 0.8121552044252062, 0.8095241781699983, 0.8067702020069929, 0.8039910849153975, 0.8012062399806837, 0.7982620215590537, 0.7952455039534418, 0.7920826670647273, 0.7889322998075134, 0.7857119693345294, 0.7824120568684089, 0.7790397096447738, 0.7755875457590439, 0.7720746164843398, 0.7685647220076006, 0.764904259115231, 0.7611803581368579, 0.757322451286532, 0.7534822110493236, 0.7495559157339842, 0.7455879862219267, 0.7415556384515992, 0.7374670142184404, 0.733309062618484, 0.7290487997648444, 0.7247774076046908, 0.7204460845685903, 0.7161003725171746, 0.7116482256256254, 0.7071448155696837, 0.7025876101786579, 0.6979796879716803, 0.6932798255536228, 0.6885790618723048, 0.683836940428589, 0.6790369319455841, 0.6741904737333714, 0.6692853713450043, 0.6643517383195314, 0.6593681209101351, 0.6543503341636703, 0.6492917796261257, 0.6442378934452877, 0.6390965549077682, 0.6339093522460824, 0.6287025133720558, 0.6234631077388433, 0.6181432693081992, 0.6128485565608017, 0.6075340228286841, 0.6021761273695955, 0.5967904866412026, 0.59140565721591, 0.5859655420697906, 0.5805611400820998, 0.5750713506180092, 0.5695654503498172, 0.5639545645608627, 0.5584302566605513, 0.5528586553403438, 0.547302644634963, 0.5417298927790125, 0.5362167291413813, 0.5306066684888241, 0.524911688185489, 0.5192984162704456, 0.513675966362137, 0.5080833694891229, 0.5024432254101586, 0.4968452511524857, 0.49119726363414307, 0.48555264607435245, 0.4799191706053566, 0.4742834910095663, 0.4686259292355087, 0.46300871051252723, 0.45739891594872495, 0.4518165160592059, 0.4462232909585662, 0.4405596974725337, 0.43500323542249736, 0.42945707737981675, 0.42399756479122397, 0.41846820939515544, 0.4128775867239337, 0.40739948828641254, 0.40193897932941564, 0.39654859351114286, 0.3911220969437722, 0.3857651471080274, 0.3803853698038969, 0.37503595548952484, 0.36967541318035285, 0.3643945376885611, 0.3590663546924891, 0.3538576156748698, 0.3486775081705372, 0.3435210987980354, 0.3384045169997381, 0.3333281756339194, 0.32827930334958594, 0.32326744106225674, 0.3183769031155026, 0.31343273454007325, 0.30853595501112885, 0.30368353036629614, 0.29887805757624714, 0.2941218389567184, 0.2894119122264423, 0.2846612592434907, 0.2800612297820897, 0.27552506395142057, 0.2710145917296235, 0.2665531485596772, 0.26214860286472064, 0.2577876114766948, 0.2535282453808326, 0.24926706404851914, 0.24506295542103104, 0.24090450827725496, 0.23681735590557212, 0.23279302756048678, 0.22882129247237132, 0.22490870978008146, 0.22097795510945667, 0.2171950350833439, 0.21348194023498213, 0.2098109989545594, 0.2061992416911449, 0.20267288061259273, 0.1991787158969647, 0.19576608223332453, 0.19239585206396684, 0.18909045720094014, 0.18587044710863873, 0.18269288430669411, 0.17957185554123695, 0.17652900243620312, 0.17355238194122174, 0.17057615495305017, 0.16774078060744274, 0.1649801984724931, 0.1622698716574843, 0.159624375725566, 0.1571016386824222, 0.15457967410588197, 0.1521048047986955, 0.1497235788336399, 0.14740976868475644, 0.14510581287685786, 0.14293398762542167, 0.14089894576166473, 0.13884634602599127, 0.13686251779660516, 0.13491494717474894, 0.13307163330007007, 0.13122821215087477, 0.1295249007497544, 0.12788352763343547, 0.12633321591709146, 0.12481306127845304, 0.12341477544937324, 0.12201588246273543, 0.12068421628624337, 0.11933278031444211, 0.1181443770147299, 0.11700782019790217, 0.11594111915138673, 0.11493420774956604, 0.1139937848367258, 0.113105311278981, 0.1123053347205356, 0.11153234954852083, 0.11081997484430936, 0.11023013648307728, 0.1096290152796655, 0.10899517834516195, 0.1085288747808725, 0.10811686619222749, 0.1077942968722441, 0.10748516310246195, 0.10717006876985008, 0.10697769905053825, 0.10683516986360012, 0.10683685797926891, 0.10678083233323842, 0.10672279237637924, 0.10678013258463684, 0.10688552536942547, 0.10706184291226464, 0.10725787277314167, 0.1075058375962219, 0.10779386497096609, 0.1081268814138655, 0.10848685159097667, 0.10890864501137548, 0.1093846835576385, 0.10988521795536152, 0.11042527481481289, 0.11097160315191916, 0.11159146063959156, 0.11230325524429816, 0.11298381234715055, 0.1137002835274157, 0.11444114571151122, 0.11522664497672816, 0.11599946913589261, 0.1168519540578572, 0.11773087732498203, 0.1186066382447116, 0.11953952854862218, 0.12049631933246786, 0.12147270793522395, 0.12246993454562821, 0.12352609026988676, 0.12455755454167614, 0.12566189211684395, 0.1267263127563071, 0.1278115973722543, 0.1288196422550325, 0.12995392877303, 0.1311868450909654, 0.13233057958610672, 0.13348840824150618, 0.13458436145734845, 0.135775273722758, 0.13697506010090746, 0.13817573335036443, 0.13938046665289275, 0.14058160335541303, 0.1417926209305773, 0.14304518744873038, 0.14425205219675136, 0.1454603132310066, 0.146673778005117, 0.14788040893898174, 0.149083296609496, 0.15028480093636215, 0.15148171019910914, 0.1526034812277513, 0.15379648021358536, 0.154982620396173, 0.15615056023147889, 0.1573057059197721, 0.1585116736373363, 0.15963103142328314, 0.16074584332171588, 0.1618404414724376, 0.1629215995951306, 0.16397792545485834, 0.16502981474803763, 0.16606242409721375, 0.1670783301858076, 0.16807454175798145, 0.16904165183382777, 0.16999673008233993, 0.1709576424725393, 0.17186242469127805, 0.17274430896449658, 0.17358876259482517, 0.17442361841612763, 0.1752048906036862, 0.17598938913769469, 0.17674436886111225, 0.17751164138130074, 0.17820076825025766, 0.178788525237138, 0.17942879414947166, 0.1800347540406331, 0.18064854996787802, 0.18118004791223322, 0.18158768996493282, 0.18206518974112873, 0.18250395010126455, 0.18292448427063232, 0.18328375965750568, 0.18368201112338267, 0.18395720397452453, 0.18419922780705184, 0.18432101173980073, 0.1845053336143642, 0.1846985599029855, 0.18479644482110566, 0.18485707560229198, 0.18481579704272685, 0.18480899797517703, 0.1848533997927161, 0.18475135645120083, 0.18461311949669318, 0.1843788937203303, 0.18417409878594473, 0.1838775002206048, 0.1835971277841214, 0.18327304450262, 0.18300219158403394, 0.18257993711529794, 0.1820649041820661, 0.18157542300799437, 0.18104513081773793, 0.18046574620726422, 0.17985544130985384, 0.17918409614769779, 0.17849514961056268, 0.1777648554989832, 0.1770917799721228, 0.17626765905392375, 0.17530573623823006, 0.17442509159324673, 0.17350337081475736, 0.17252934473533535, 0.17152878994612505, 0.17051195986633658, 0.16942913483558078, 0.1683123384073176, 0.16715479182435838, 0.16596092169919524, 0.1647649746006987, 0.163495412364262, 0.16224175499645024, 0.16089984028829266, 0.15952792048251768, 0.15808188215000948, 0.15665524182825072, 0.1552027999059758, 0.15371065149187643, 0.15218731448075196, 0.15062989077402308, 0.14904609321453727, 0.1474663059852855, 0.1458191711235279, 0.14414532872579108, 0.1425077538167526, 0.1407737480263771, 0.13904996568709205, 0.13726806205372907, 0.13546617346110715, 0.1336645593262969, 0.13182011769859292, 0.1299164306830134, 0.12803996035999063, 0.1261429040143733, 0.12423267017053259, 0.12229555301069531, 0.12041473003309547, 0.11843260048859887, 0.11643794947729319, 0.11444957096312698, 0.11242817423238036, 0.11043675681479712, 0.1083892826580701, 0.10633418010027858, 0.10428007288134108, 0.10220924940119507, 0.10021330977157898, 0.09811995664914043, 0.09602572424367452, 0.09392376245996785, 0.09182853131960264, 0.08983713354046165, 0.08772687463824319, 0.08562228516454307, 0.08355861729523324, 0.08146021667033851, 0.07935224559187552, 0.07727060489134696, 0.07519536966809359, 0.0732267313676603, 0.07115288677645809, 0.06906200269509466, 0.06701869396759737, 0.06498696921756467, 0.06304508187536348, 0.06102805333871837, 0.059030232460101306, 0.057048090300822064, 0.05508384154650538, 0.053188573554171524, 0.051254789403786, 0.0493396707948005, 0.0474506300470349, 0.04558400572528872, 0.04383840927703284, 0.04200572794738224, 0.04020096587628231, 0.038427644181065305, 0.036683839841597676, 0.03498500820041682, 0.03329911259215883, 0.03167506344709109, 0.030048510583933544, 0.028455973129661357, 0.026870715639649344, 0.025350738038968257, 0.023911918655456593, 0.022454321336738817, 0.02103480994505883, 0.019670789200958706, 0.018326832001017226, 0.017038784306056726, 0.015774785912144602, 0.01455342230265256, 0.01342257193274234, 0.01228205027324509, 0.011173257159663878, 0.010128834073408196, 0.009131111321737832, 0.00824152853971337, 0.0073311307041451935, 0.006420102626974619, 0.005620123071532292, 0.004869390568034396, 0.0042295358226571095, 0.003571761668893228, 0.0029146888672568053, 0.002373695154433741, 0.0018850551127024002, 0.0015290803745243269, 0.001137444781287694, 0.0008049523112106187, 0.0005317111881706226, 0.00031789256472886525, 8.419781512819443e-05, 0.0, 1.5558718477341294e-05, 3.8308320484079894e-05, 0.00012119864516861576, 0.0002867479727884852, 0.0004887009782271997, 0.0007112800693605795, 0.0010447584829168142, 0.0014394509187209293, 0.0018977340873628503, 0.002416657371389474, 0.0029988327944793594, 0.0036448229607056676, 0.00435515841519086, 0.005125262640740829, 0.005966398732254793, 0.006878080164826002, 0.007849965832561161, 0.008888478562881157, 0.009953358642221402, 0.011131279257494927, 0.012364365908655335, 0.013674807249719216, 0.015051135269422736, 0.016548053410205554, 0.01805092278052326, 0.019539606109041804, 0.021193942311074094, 0.02291383203784666, 0.024762504225176753, 0.026607375718590783, 0.02848402483451302, 0.030475090011205803, 0.03253443338800459, 0.03469608554901153, 0.0368882348368201, 0.039066404962143766, 0.04141028736254769, 0.043819631205783235, 0.04630844256886326, 0.048848319772093404, 0.05147249044461353, 0.05414509295448329, 0.0568861991403458, 0.05970752980759115, 0.06258374706944894, 0.06550329738677547, 0.06851984891378046, 0.07160307548469794, 0.07476639211066897, 0.07798085740168866, 0.0812656699352677, 0.08461330056348351, 0.08802740137392198, 0.09149742777955222, 0.09504456283990906, 0.09861239315258066, 0.10229411815119119, 0.10603734643548848, 0.10980820217996425, 0.11367854367346948, 0.11759635000608834, 0.12158686469102478, 0.12563605546173728, 0.12971345845189708, 0.1338837458322837, 0.1381005840292262, 0.1423855707923876, 0.146726617801434, 0.1512116226810274, 0.155653320717807, 0.1600624464656602, 0.1646358551166096, 0.16926249052647643, 0.17396072536188611, 0.17869066851359203, 0.18352470782236285, 0.18835431315027762, 0.19323888159996488, 0.19813165853822962, 0.20312873723638794, 0.20815983336286983, 0.2132566787626949, 0.21840058449011496, 0.2236112669743496, 0.22884492204409435, 0.23413673720594527, 0.23946066226551888, 0.24482982746023324, 0.2501721873797041, 0.2556378748202566, 0.26114187402547356, 0.26668377803704874, 0.272327404932767, 0.2779354918812336, 0.2835834723690346, 0.289200804944667, 0.2949338507025918, 0.3007586540048376, 0.3065487188572933, 0.3123734496161308, 0.318162319512808, 0.3240616995727306, 0.33001041583415713, 0.33596112802290046, 0.34193921881368566, 0.34792183087605316, 0.3539548470757745, 0.35999949581280494, 0.3660801994717831, 0.37218214540314504, 0.3783739549890335, 0.384507316236627, 0.39061266602137246, 0.3967965068901097, 0.4029974123973621, 0.40921611446499123, 0.4154480334575115, 0.421721241092014, 0.4279771387377903, 0.43424669497331475, 0.44046603069206053, 0.44676700968025773, 0.4530760466494159, 0.4593888155469585, 0.46570653879962065, 0.4719640830963908, 0.4782972924792489, 0.48470028494975126, 0.49102152097998125, 0.49734451867203755, 0.5036427252808507, 0.5099689335543903, 0.516288567979468, 0.5226078487566747, 0.5289217726273001, 0.5352056546628404, 0.5415088454920989, 0.5478022922153658, 0.5540851270916269, 0.560356443637062, 0.5665831532258208, 0.572832645431847, 0.5790540621834727, 0.5852718269417185, 0.5914711195925842, 0.5976545594250307, 0.6038141336274198, 0.6099140649535599, 0.616036174590761, 0.6221334791091974, 0.6281866883691638, 0.6342346385213197, 0.640308667413079, 0.6462929465499562, 0.6522507484376355, 0.658096229096384, 0.6640080475128171, 0.6698849306195268, 0.6757263382522285, 0.6815316553065626, 0.6873002005076596, 0.6930312344364696, 0.6987205828711678, 0.7043746072927256, 0.7099884335525836, 0.7155358040303786, 0.721069778899425, 0.7265424902639978, 0.7319891648889245, 0.7373889984716471, 0.7427683665343535, 0.7480689578118855, 0.7532797005075681, 0.7584895034493963, 0.7636473023650459, 0.7687862343126662, 0.7738335974854902, 0.7788353996014874, 0.7837761701031377, 0.7886628434249502, 0.7935044590916802, 0.7982783360590614, 0.802958181357255, 0.8076220124689487, 0.8122247026419614, 0.8167248642365283, 0.821208057752148, 0.8256119292944334, 0.8299647870550731, 0.8342501056873148, 0.8385469624153391, 0.8426857636511117, 0.8466804972261309, 0.8506990633431418, 0.8546462700456315, 0.8585267306121888, 0.8623291551144884, 0.8660793257160796, 0.8697334787108106, 0.8733150219990252, 0.876802875184133, 0.8802394496204938, 0.8835593767339094, 0.8868484338953844, 0.8900580217932805, 0.8932826376701546, 0.8963205029710771, 0.899256265757607, 0.9021463729103473, 0.9049577612866928, 0.9076456738078589, 0.9103029260446692, 0.9128818742405348, 0.9153714137697508, 0.9177772237510322, 0.920129386386045, 0.922362764171125, 0.9244385511776354, 0.9265144397607062, 0.9285018098240715, 0.9304007120054486, 0.93221115499062, 0.9340295555036905, 0.9356507754329355, 0.9371887840408025, 0.9385953296791008, 0.9399703591990987, 0.9412317485055419, 0.9424331980903924, 0.9435444448862793, 0.9445570018781639, 0.9454888253835367, 0.9463451021813472, 0.9470934813186663, 0.94775199405486, 0.9483763731958007, 0.9488477985247432, 0.9491746976458585, 0.9494788933033542, 0.9496919213823657, 0.9498307978500844, 0.9498596456159547, 0.9498205793009583, 0.9496668091370599, 0.9494243573867214, 0.9490101773793177, 0.9486004766313507, 0.9481614630086764, 0.9475570809404398, 0.9468639882791245, 0.9461076375949936, 0.9452341677072977, 0.9442669654204089, 0.9432203929040166, 0.9420864744509496, 0.9407976663760146, 0.9394980654055951, 0.9381027817067966, 0.9366234138799828, 0.935054734095027, 0.9334229127259136, 0.9316747457237248, 0.9298054580333334, 0.9278911285306529, 0.9258902733213442, 0.9238764816545301, 0.9216958554464387, 0.9194081565704374, 0.9170711501034996, 0.9146530837577396, 0.9121460366594007, 0.909568566636031, 0.9068621980407607, 0.9041319627453721, 0.9013205458023512, 0.8984882907888411, 0.8955103644042947, 0.8923986466199362, 0.889279636878024, 0.8860839189546175, 0.8827906278624111, 0.8794476467108933, 0.8760486692511442, 0.8725553751855784, 0.8689909991136068, 0.8653667414832895, 0.8616620596736169, 0.8578815427299449, 0.8540441433438603, 0.850140833206429, 0.8461269862098958, 0.8421008095963733, 0.8380787217463113, 0.8339146539092538, 0.8296920520993534, 0.8253677458410626, 0.8210361454653083, 0.8166512090301028, 0.8122034397120786, 0.8076849014050456, 0.8031292182234145, 0.7985196265181113, 0.7938439597074474, 0.7891323590721709, 0.7843820104060351, 0.779569179119626, 0.7747093038432596, 0.7697817104975786, 0.7648344929496405, 0.7598852608852523, 0.7548455660059846, 0.749766910758944, 0.744614887255665, 0.7394662041549461, 0.7342766378149521, 0.7290548733595054, 0.7237983860343673, 0.7185002096617839, 0.7131798154809607, 0.7078100583658214, 0.7024320457603112, 0.6970252822949283, 0.691632025872205, 0.686167545903759, 0.6806763799861076, 0.6751705638888589, 0.6696453562455225, 0.6640259370306848, 0.6584755432771802, 0.6529697716996785, 0.6473738631742536, 0.6417657455061604, 0.6361518111611092, 0.6305225919547034, 0.6248448164213427, 0.6192061348027502, 0.6135598374308078, 0.6078906521834143, 0.6022361741092748, 0.5965745968891475, 0.5909148118525317, 0.5852544709616897, 0.5796307488687762, 0.5739696937956164, 0.568328429841275, 0.5626794257110322, 0.5570399466615868, 0.5513113192553483, 0.5457069919372745, 0.540154090112546, 0.5345610680486033, 0.5289818593464721, 0.5234162471993824, 0.5178692736900489, 0.5123031292059824, 0.5067983694547574, 0.5013123490954616, 0.4959025514887327, 0.49045183153255084, 0.4849617603369611, 0.47957368552697577, 0.4742106087811027, 0.4688588740570912, 0.46355237231136104, 0.45827962371304615, 0.4530313557387338, 0.44781502765178505, 0.44269967552612277, 0.4375426891169079, 0.4324236722429235, 0.42734689662212516, 0.42231106289649173, 0.4172356940793041, 0.4122942470478795, 0.40744221060318003, 0.4025730828004627, 0.39774825340513453, 0.3929161585801511, 0.3881892096720692, 0.3835553101574772, 0.3789113915246966, 0.37431668418223046, 0.3697194847422005, 0.36523206800663127, 0.3608269755215674, 0.3564333882155427, 0.35209239848802154, 0.34783012862834306, 0.34359332942616744, 0.33937210316302857, 0.33525327015039813, 0.33118928206246423, 0.32717247827897983, 0.3232216050096006, 0.31933075747539585, 0.315493484133812, 0.31171448473080493, 0.30801299785766684, 0.3043500343081015, 0.3007058545006331, 0.29717077127088204, 0.29369511093911477, 0.2903319965750152, 0.28697050402031005, 0.28364952766814644, 0.28041951850383495, 0.2772525462117748, 0.2741471907036691, 0.27110729537231154, 0.26805832266014445, 0.2651551893611608, 0.26231203563703165, 0.2595346724417595, 0.25681294071211147, 0.2541364648073604, 0.2515416383797226, 0.24900879183508998, 0.24654679030525609, 0.24413796715505212, 0.24177903757632183, 0.2394988928885571, 0.23728157666269237, 0.23522363864723625, 0.2331200403653944, 0.23100698472440762, 0.22904913057362247, 0.227153637081639, 0.22533221281536217, 0.22355949308316683, 0.22183911145149812, 0.220192300446901, 0.21860667450230956, 0.21716312630035056, 0.21568859906440177, 0.21419245483224966, 0.21285711545499983, 0.2115795154475945, 0.2103542967996072, 0.2091919238794632, 0.20808602001383886, 0.20703620987404636, 0.20604207331715235, 0.20510484005800375, 0.20422041024426663, 0.2034697693747386, 0.20268322768797317, 0.20195420815647103, 0.20121205198520892, 0.20060303826388085, 0.20005747621220094, 0.19954598881751678, 0.19908395434194248, 0.19865875798534757, 0.19829479637479072, 0.19800771287277044, 0.19773201668628632, 0.1975029670328112, 0.1973059996320487, 0.19716887449058462, 0.1970864085881314, 0.19703250743566048, 0.1970202555222267, 0.1969944796320926, 0.19706928320859354, 0.19718637444440373, 0.19733076295675805, 0.19750979655240075, 0.19769564082180927, 0.19794505865047562, 0.19828441404506716, 0.19858712122531258, 0.1989224940719138, 0.19922668272839372, 0.1996315750363797, 0.20007544881554565, 0.2005288071316719, 0.20100688887857462, 0.2015832157239359, 0.202098522643571, 0.20261956088336341, 0.20318789940727455, 0.203777974606603, 0.20441720908697417, 0.205043121074977, 0.20559198691850186, 0.20626738210364373, 0.20695379761130248, 0.2076404408894398, 0.20834820174792537, 0.20908124589750257, 0.2098028810732395, 0.21053235228278233, 0.2113330105945653, 0.2120671677956576, 0.21275572707786247, 0.21351230224526813, 0.21427139598709208, 0.21503371331014232, 0.21579465885871954, 0.21657045582434536, 0.2173276975930323, 0.21802414439357812, 0.21878457200736454, 0.21953781362996655, 0.22027984070712445, 0.22101716072234678, 0.22179242140606323, 0.2225041492822317, 0.22320760636446343, 0.2239219270571787, 0.22460279256601456, 0.2252104911553644, 0.22587688876326384, 0.22652674002417536, 0.22723551730131666, 0.22784062456654197, 0.22842970189088635, 0.22900501342066612, 0.2295632898482494, 0.2300948775737056, 0.23061662824726012, 0.23110391585226378, 0.23158455528364355, 0.2320416089260182, 0.23246583117131278, 0.23287444697204412, 0.23330239204198303, 0.23365186776613772, 0.233976255707883, 0.23422041582176717, 0.23449854471375264, 0.2347880328275424, 0.23499853848342545, 0.23517968528149205, 0.23531888843478269, 0.23544063458774478, 0.23546257884037639, 0.2355281120184872, 0.23555669699349696, 0.23551794362539613, 0.23547663583737397, 0.23543734883978887, 0.23531392828863212, 0.2351545337990815, 0.2349656959990708, 0.23473278424064078, 0.23445172021190236, 0.23414740061573902, 0.23380554308047732, 0.23341582855844856, 0.23299968081984143, 0.23252801643967072, 0.23203674560178444, 0.23150578975112138, 0.23094367708310087, 0.2303324737444166, 0.22972960720704674, 0.2290343100520134, 0.22830258816051502, 0.2274629869613656, 0.22666628602122688, 0.22580955790995907, 0.22493272425583663, 0.22401409806181416, 0.2230558262504439, 0.22205473392531894, 0.22101152657100165, 0.21993016366925164, 0.21880899069590606, 0.2177177282806432, 0.21650920158440023, 0.2151964093135193, 0.21392664025697447, 0.21261770154309034, 0.21131743492884417, 0.2099255565187141, 0.2085357678541733, 0.20706898481350416, 0.2055693446528373, 0.20394365149359425, 0.20238973448439232, 0.20081279041111372, 0.19918127171709793, 0.1975139905608886, 0.19586236353243494, 0.1941191040280065, 0.19239056990529463, 0.19057985551803738, 0.18874127399075954, 0.18680880729422164, 0.18492283393141698, 0.1830054614771973, 0.18105743774385188, 0.179079513759954, 0.1770910562382061, 0.17505324706312375, 0.17298039958624117, 0.17089112234484244, 0.16877605359801565, 0.16665453812109585, 0.16448774391256255, 0.1623762694224251, 0.16015522931338952, 0.15791731290902722, 0.15563719090472852, 0.15336898561726073, 0.15112353859102393, 0.1488150353361764, 0.14649208390750248, 0.1442209789960247, 0.14186179115162717, 0.13953531861124233, 0.137151614157326, 0.13476082685909552, 0.1323493212936234, 0.12994592534284705, 0.12764647745657284, 0.1252139136590116, 0.12278078120512943, 0.12036705578315868, 0.11792941670462571, 0.11547497232914285, 0.11303970207225764, 0.11060374710552219, 0.10818275442564573, 0.10574486271051818, 0.1033273004383256, 0.10089105417560665, 0.09845877982691158, 0.09609364971423597, 0.09366319028448448, 0.09127768607475917, 0.08886185864835162, 0.08645811931270146, 0.0841614281318557, 0.08177063423813308, 0.07941514916947379, 0.07705877040277143, 0.07472146175784108, 0.07244888413462887, 0.07014402722836989, 0.06787472236510422, 0.0656122117187867, 0.06337267929274094, 0.06115971026316701, 0.05896643980350334, 0.05684468995136084, 0.054694234751761696, 0.05257170316710698, 0.05054676646009498, 0.048472321540023795, 0.046468137582540085, 0.04445509611917543, 0.042477393723611825, 0.04051811213900029, 0.03861337701367708, 0.03677560049723689, 0.034936941396896945, 0.03313601418023894, 0.03140029666151723, 0.029672716060981284, 0.02795878380095633, 0.026316481923853986, 0.024714291929449343, 0.023256207229508278, 0.021723567533944256, 0.02023418770032822, 0.018798886927451647, 0.017411803455481163, 0.016137515438164017, 0.014839666581320765, 0.013564269785286517, 0.012376066055720664, 0.01123913246695126, 0.010179286381192072, 0.00914305235224558, 0.008152523674318264, 0.007226064333954501, 0.006354100501451681, 0.005527025811642197, 0.004767003693819666, 0.004115080401558531, 0.003460419816145045, 0.002865751496997934, 0.0022890553054116906, 0.00182060707517332, 0.00150888861605487, 0.0011459622703896607, 0.0008486060021648658, 0.0005947453931978954, 0.0004311549343069343, 0.00026590613821821855, 0.00023962479682773928, 0.0002746119154793347, 0.00041405585033236066, 0.0005688488119370479, 0.0007661185674149172, 0.001056644692882158, 0.0014128224154783598, 0.001853858074519654, 0.0023407396067227915, 0.0028537128861073806, 0.003483083626522574, 0.004179177729865214, 0.004929136063106107, 0.005762364274312385, 0.006654966142760661, 0.00762556226538925, 0.008661335820457883, 0.009770066646779601, 0.010948276538160846, 0.012215071935325342, 0.013531314489569795, 0.014936320843200741, 0.01639430107368614, 0.017925427081297636, 0.019550004986213666, 0.02122485514039226, 0.022904604264738344, 0.024736583548153543, 0.02663858465873045, 0.02858054590284099, 0.030627561194817406, 0.03274388769401215, 0.03492998912530911, 0.03718624859070496, 0.03956035101996363, 0.04195179585301031, 0.04433557078694745, 0.04688411626015472, 0.04950112427823242, 0.052208971558897144, 0.05496117818118653, 0.05777212440352958, 0.06066695813910221, 0.06363159038455656, 0.06670998372487844, 0.06980851289949576, 0.07295200365009784, 0.0761975015585555, 0.07951247635801945, 0.08288817327902213, 0.08634226268930002, 0.08986439801224666, 0.09345428349594502, 0.09711159456788448, 0.10081229175836662, 0.10460636905665627, 0.10846710536618975, 0.11239066993556819, 0.11637878592217442, 0.12044465649049646, 0.12455912885645326, 0.12864643882578297, 0.13290032974457194, 0.13721219318800593, 0.1416481748116996, 0.14606800747825627, 0.15052091672381282, 0.1550674036952444, 0.15967277546782993, 0.16431965172169521, 0.16904350961416922, 0.17384410398162106, 0.17867782044375755, 0.18356818117384516, 0.18851279772992566, 0.19351455086362873, 0.19858593133481023, 0.20369381745986745, 0.2088554586754747, 0.21404965331222742, 0.21931867813571304, 0.22457840335157084, 0.22995401819273964, 0.23537473125301833, 0.24084192892603326, 0.24635162892980533, 0.2518901480529408, 0.25748933244281974, 0.263130581208781, 0.26881844721609877, 0.27454155065368335, 0.28033232304060807, 0.28613246231151096, 0.29197320578168784, 0.2978907456024915, 0.30380488929247373, 0.3097332323411163, 0.315728395188423, 0.32175904874653377, 0.32783257051277886, 0.33392988959103537, 0.34006500604790085, 0.34622597855598103, 0.3524176711804516, 0.35853570062299167, 0.3647983798790174, 0.3711738728134371, 0.37746758031241423, 0.3837871435397775, 0.39013133556819857, 0.3964989428065371, 0.4028599997549869, 0.4092744801763251, 0.41570718775714316, 0.42218086886374867, 0.42864419005098303, 0.4350835741143235, 0.44158418159540347, 0.4480968095380632, 0.45458507753670974, 0.4611236588921337, 0.46766962076260454, 0.47422230611227867, 0.4807809969020336, 0.48736014806832934, 0.4939265559185583, 0.5004499857582453, 0.5070301503255935, 0.5136099754700002, 0.5201820065404209, 0.5267598854685416, 0.5332958865764947, 0.5398719595824057, 0.5464412299479453, 0.5530200301279548, 0.5595717138904498, 0.5661121681185785, 0.5726476516786368, 0.5791731869136176, 0.5856319552514623, 0.5921416722074777, 0.5987063279824353, 0.605174189878802, 0.6116285985656527, 0.6180512989631316, 0.6244769464476605, 0.63082838415733, 0.6372231789677643, 0.6435941322723836, 0.649957440087445, 0.6562763419833205, 0.6625209471729985, 0.6687945831291472, 0.6750381901118383, 0.6813120218392966, 0.6874858312237181, 0.6935513480441838, 0.6996763572410696, 0.70576551762434, 0.7118587940346197, 0.7178691314999996, 0.7238234880545781, 0.7297639056719532, 0.7356652400038328, 0.7414842216190528, 0.7473098111309497, 0.7531417445038213, 0.7588714110570723, 0.764558113541865, 0.7702159042219374, 0.7758112388800017, 0.7812729919859596, 0.7867869966127337, 0.7922479769235636, 0.7977095816230031, 0.8030561210304773, 0.8083188655880985, 0.8135650837997983, 0.8187556802624582, 0.8239033844886055, 0.8289785888216625, 0.8339795416452216, 0.8389412632807941, 0.8438427909970674, 0.8487222290586737, 0.8534960043751852, 0.8581450137945226, 0.8628048333544562, 0.8673983210531122, 0.8719689117577837, 0.8764224715578695, 0.880732577244647, 0.8850637428055648, 0.889322962672052, 0.8935522219932387, 0.8976612045440914, 0.9016690616756657, 0.9056397608699963, 0.9095364988890525, 0.9134145780497199, 0.9171547134662048, 0.9207546848590914, 0.9243573780049886, 0.9278817729021787, 0.931400228612535, 0.9347576123666286, 0.9380344430177131, 0.941240469730977, 0.9443687049617472, 0.9474114927497652, 0.9503823845189002, 0.9532218216957935, 0.9560370435696297, 0.9587673588142994, 0.9614480745438506, 0.9640033899439447, 0.9664835231237594, 0.9688699261240389, 0.971160227312925, 0.9733790378056162, 0.9755118108255648, 0.9775902814059634, 0.979545695891557, 0.9813869337584114, 0.983174547710335, 0.9848739627916305, 0.9865187391407424, 0.9880366562522537, 0.9893558157633634, 0.9907131816741823, 0.9919762484810916, 0.9931539747552215, 0.9942288035322051, 0.9952923300266042, 0.9961721114397017, 0.9969644133724589, 0.9975791020168834, 0.9982064664359633, 0.9987587252999571, 0.9991967270571297, 0.9995428661380548, 0.9998227230284078, 0.9999825193138168, 1.0, 0.9999866764480357, 0.9998805215131489, 0.9997090534515738, 0.9994151243057964, 0.9990379125884983, 0.9985631878910077