0.04442221943219359, 0.043544908315963415, 0.04278458831335977, 0.04201156652423029, 0.041321459807560676, 0.04065388709951716, 0.04002233558157091, 0.03938791825467947, 0.03881885932690994, 0.03820505895347331, 0.037570815273172686, 0.03698608641296638, 0.03640927514613095, 0.03590698209899041, 0.03533459562587452, 0.034656531620343246, 0.034116326541241554, 0.033577290784239114, 0.033036439585346467, 0.032501418579718534, 0.03201607286316572, 0.0314802965465079, 0.03095066463077104, 0.030471364224341033, 0.0299491990810205, 0.02937900001275662, 0.028883027619212673, 0.028393391245009572, 0.027900562979866667, 0.027426728004440928, 0.02700445589922121, 0.026540943434812808, 0.026088832010710983, 0.02564163718452513, 0.02521403999953352, 0.02479159508150961, 0.024389066699248733, 0.02399884220437214, 0.02365517795633883, 0.02328659847823049, 0.02295380714978417, 0.022613802833237183, 0.022290747776686593, 0.02192718141763606, 0.02164541279405085, 0.02139446736396992, 0.021138982997638462, 0.020899515522492623, 0.020625737373212483, 0.020425897689468772, 0.020287733164553415, 0.020111350801685825, 0.019953456212351832, 0.019817718456378933, 0.019697234456086538, 0.019582764971631837, 0.019503335081721463, 0.01944321535682693, 0.019429838372121276, 0.019406048563546798, 0.019414345754006673, 0.01943329727536496, 0.019475061724907088, 0.01948563379845504, 0.01958019559807706, 0.019705064533534662, 0.019839283296481738, 0.01999543214114299, 0.02016045811565383, 0.020363582749874636, 0.020626453087703746, 0.02087051276322383, 0.021140269281920445, 0.021419013845386217, 0.02174291849517925, 0.02201444657587822, 0.022399373123975587, 0.022806106217469504, 0.023282995456553223, 0.023730297298475228, 0.024208234774766683, 0.02471002821016522, 0.025240077094567995, 0.02580889043351658, 0.026395255421550856, 0.02703519600866973, 0.02767864775050082, 0.028353881995929257, 0.029108336812165517, 0.02984146679890419, 0.03057559428526637, 0.03138242434454982, 0.032221833774856413, 0.03301624565942204, 0.033931270050095406, 0.0348548816964347, 0.035831106931409444, 0.036836769480365655, 0.037909988911867594, 0.038972514268813804, 0.04009954889776062, 0.04122679547257064, 0.0423906455173635, 0.04352022369964473, 0.0447666889050124, 0.04604284524048757, 0.0473566278397033, 0.048704719210207525, 0.0501384947123311, 0.05155068766448891, 0.05297815519476696, 0.054471322368857385, 0.056002293672183075, 0.057584889372253395, 0.05919062160465038, 0.060839125735283654, 0.06252334376067727, 0.06424740536889002, 0.06601141148368896, 0.06781546321575198, 0.06963937124942583, 0.07152637907674705, 0.07345258919651375, 0.07544192900768869, 0.07744429489782931, 0.07939320323532915, 0.08148999266963687, 0.08362269111431535, 0.08583940186808385, 0.08804011975523375, 0.09021039531280926, 0.09250135396395397, 0.09482911042941096, 0.09730589740814502, 0.09969496476074804, 0.1020475801551308, 0.10453580861483501, 0.10706320132591485, 0.10958601124656504, 0.1121978827025609, 0.11485709199057778, 0.11754249538779854, 0.12026643518967345, 0.12306291545002711, 0.1258601569602199, 0.12869822392823604, 0.1315768697072508, 0.1344958361024338, 0.13744470902429165, 0.14044478095192434, 0.1434770015307344, 0.14655553351541792, 0.14967214009077218, 0.15277589342087528, 0.15597442679593773, 0.15922103015240682, 0.162487073650289, 0.1657886148322874, 0.16917288376709833, 0.17253905039086573, 0.17588541093756924, 0.1793335871266544, 0.18281498559570086, 0.18625845207290512, 0.18981480220020608, 0.1934268729687084, 0.1970374277872643, 0.20067863727838192, 0.20437065175900312, 0.2080701222907269, 0.2118109241889844, 0.21557100482930153, 0.21936185192605748, 0.22320651954989668, 0.22705404066118595, 0.2308438409773462, 0.23476203287916425, 0.23870380636095062, 0.24272652789096924, 0.246707753192873, 0.2506847564064147, 0.2547214525261245, 0.258781045480295, 0.26290693196734205, 0.2670050334213727, 0.2710861273788721, 0.27523549156661464, 0.2794041438117347, 0.2836455363821644, 0.28784393552386456, 0.2920355651037489, 0.29627678635238686, 0.3005344744054243, 0.3047401092106512, 0.3090366162233167, 0.31335326738493297, 0.3176681362484987, 0.3219927936991928, 0.3263537193529589, 0.3306927635977379, 0.33503786747910747, 0.339395293486161, 0.34376010304513344, 0.34806035898843257, 0.35244613090482063, 0.3568595435085933, 0.3612426789174409, 0.36562705491416714, 0.37000852377603344, 0.3743934693407489, 0.37879395673186633, 0.3831731816550389, 0.3875130570618348, 0.39189163112796155, 0.396263853997757, 0.40062557201415677, 0.4049831580966071, 0.40932499085358787, 0.4136645826534688, 0.41799302960381945, 0.4223263552733278, 0.42662768512795085, 0.4308653369184536, 0.4351460550241623, 0.4394087288205985, 0.4437270280204526, 0.4479419729355317, 0.4520730757192729, 0.4562626767155988, 0.46042935556750003, 0.4646838399622111, 0.4687879306180611, 0.47275768198877516, 0.47683571854476225, 0.48088429883006595, 0.4849432276658968, 0.4889253977361718, 0.49283059771755783, 0.49675828232331676, 0.5006512602917973, 0.504559441009481, 0.5083741110330566, 0.5121476078260929, 0.51589299366407, 0.519600977849133, 0.5232027146768256, 0.5268408234177161, 0.5304814872269239, 0.5340234142210435, 0.5375219171203434, 0.5409758970406272, 0.5443842624024251, 0.5476546258348212, 0.5509800631798463, 0.5542515356341312, 0.5576039841055067, 0.5607493723569945, 0.5637998402442308, 0.5668544331045018, 0.5698556199388968, 0.5728293630345562, 0.5757170673675355, 0.5784955716654678, 0.5812786852617247, 0.5840012293186189, 0.5866760146548058, 0.589273550883258, 0.5917888081992685, 0.5942640805726193, 0.5966745332745508, 0.5990769867469039, 0.6013485222187793, 0.6034380845653098, 0.6055962053292286, 0.6076818310851614, 0.6097523636801101, 0.6116854059791317, 0.6135284375824204, 0.6153238768302058, 0.6170470169009713, 0.6187886261471048, 0.6203540137881827, 0.6218472297530491, 0.6232741925553111, 0.6246297265441318, 0.6258316123719866, 0.6270514478089849, 0.6282904176294327, 0.6293398037067452, 0.6303153750949481, 0.6311417354905275, 0.631976170959299, 0.6327704555657815, 0.63343814699275, 0.6340270779901525, 0.6344454643433093, 0.6348870196157912, 0.6353414418791028, 0.6356005745529931, 0.635780710801061, 0.6358610505648155, 0.6358842874185182, 0.6357617816281232, 0.6356299788324689, 0.6354127491725614, 0.6351172518849987, 0.6347294660898505, 0.6342205231029568, 0.6336697741825743, 0.633033470688301, 0.6323628670530826, 0.6315505895211448, 0.6306164960452406, 0.6296468924872703, 0.6285938351395326, 0.627511827712015, 0.6262862033002073, 0.6249407437646646, 0.6235616775565779, 0.6221010094441402, 0.620660557745879, 0.6190249778383032, 0.617321392459796, 0.6155350090253987, 0.6136735310815035, 0.6116352696004883, 0.6096358147341349, 0.6075855976984232, 0.6054207740382476, 0.6031781910687494, 0.6009159361619283, 0.5985123875284583, 0.5960260263224307, 0.5934786287623689, 0.5908584814717865, 0.5880172322747955, 0.5852717731477387, 0.5826056374643154, 0.5796826568899183, 0.5766924813649774, 0.5735914828488058, 0.5704735551672024, 0.5672635288294126, 0.564012650361546, 0.5606938585884191, 0.5572643344652849, 0.5538186963716217, 0.5503027123434092, 0.5467250624132917, 0.543083194411635, 0.5394022169384598, 0.5356331970042412, 0.531835934906772, 0.5279468715889869, 0.5240031589774335, 0.5199313229017679, 0.5158905183929137, 0.5118850641179413, 0.5077224318498279, 0.503512174045589, 0.4992246660169025, 0.49492549408678754, 0.49062693468696733, 0.4862295372749518, 0.48179052539955836, 0.47733782682839393, 0.472814854162244, 0.4682613603377061, 0.46366379880064834, 0.45903107955189887, 0.4543878020251941, 0.449684629805135, 0.44492356639061764, 0.44016307016118184, 0.43537215815178537, 0.4305149279152694, 0.42567180874143323, 0.42083737200531696, 0.41593420836623113, 0.4110079838013819, 0.4060566839489338, 0.40108889341623155, 0.39606483276093885, 0.3910650657350836, 0.38604708337536164, 0.3809856237039292, 0.3759399772717832, 0.3709170895037919, 0.3658397953065808, 0.36075396830092454, 0.35561718899493666, 0.3505244752663046, 0.3454186107173795, 0.34031585894309246, 0.33521005523993586, 0.33015714828494047, 0.3250438805073031, 0.3198920255830386, 0.3147963400230446, 0.30970613049413537, 0.3046365845278368, 0.2995605686240465, 0.29451596884468606, 0.2894611051691844, 0.28442142430749834, 0.2794861268321496, 0.2744695401150506, 0.26942620845824994, 0.2644645885282172, 0.2595253825732444, 0.2545658055354249, 0.24968053517672573, 0.2448796693877566, 0.24003535698457262, 0.23522112977692916, 0.23035347732771108, 0.22561322965246247, 0.22091164308025896, 0.2162289308282202, 0.21160924206774367, 0.20698943244673018, 0.20240701606215877, 0.19784631701521666, 0.19334450750238968, 0.1888861778558794, 0.18446546123176516, 0.18008764751008408, 0.17584527217555757, 0.17154538834815092, 0.1672295132539446, 0.16304187997349714, 0.1589029913383485, 0.15480040260200648, 0.15076393931599547, 0.14677864790579506, 0.1428456584979449, 0.13896606619683916, 0.13522547232331356, 0.1314451347141448, 0.12769220620493557, 0.12403887814919418, 0.12044549708051518, 0.1168349385095759, 0.11337324693820669, 0.11008407789030882, 0.10672422377737771, 0.10343084590401229, 0.1001939944547663, 0.09703547858049097, 0.09383197948715438, 0.09082117418127411, 0.08787148963689649, 0.08500451235862762, 0.0821782863298564, 0.07943480122046749, 0.07673893358403934, 0.07411144084470686, 0.07152245092353376, 0.06903719929652084, 0.06666751369424462, 0.06431340225039768, 0.06203145945216908, 0.05977788676126093, 0.05764631175603747, 0.055605168619408826, 0.05361177955373425, 0.05169054315593915, 0.049834879245100334, 0.04805931708979844, 0.04634920874477445, 0.04471906968470051, 0.043160996215056674, 0.0416514272473876, 0.04024076461425094, 0.03893147431674561, 0.037659013267280605, 0.03645948371440203, 0.03537327344360802, 0.03431387665852526, 0.03329860557058389, 0.03239158608142757, 0.031556252633496325, 0.030778760928524117, 0.030087534899920186, 0.029523705398501292, 0.028964755316318994, 0.028478358180904478, 0.027996076840646842, 0.027660946564211607, 0.027405753704237198, 0.0272015332059913, 0.027064023200816367, 0.026989422915584416, 0.026984467607562197, 0.02701085154434338, 0.027139985309437127, 0.02733134585376222, 0.027608308183056963, 0.027920173523428578, 0.0282674560844327, 0.028707008219630143, 0.02920613364545908, 0.029760934271906035, 0.03037802938997101, 0.031083231926446422, 0.03181118175563218, 0.03259717896072767, 0.03339290153118745, 0.034298030300815144, 0.03532997428568776, 0.03632990477694946, 0.03738510979485905, 0.03846719624286641, 0.03963237558385857, 0.04089808761686164, 0.04215541440609573, 0.04346327395377006, 0.044847235061014346, 0.04624832811713776, 0.04767008475397378, 0.04916843858519191, 0.05070986009180153, 0.0522355899656008, 0.0538666155949576, 0.0555269484973604, 0.05723020014229969, 0.05896755387625801, 0.060788924797605955, 0.06258559408015082, 0.06448089626613775, 0.06633685848549656, 0.06822812781988392, 0.07018330248247183, 0.0721359050471086, 0.07406612852860683, 0.07608715081723581, 0.07813319945159596, 0.0802469582854869, 0.08233368526752022, 0.08446102680324662, 0.08659143952744308, 0.08874338338043827, 0.09093890806723764, 0.09312611759060914, 0.0953754604072948, 0.09759181055482329, 0.09982557743112845, 0.10205460279996588, 0.10432026243707695, 0.10659012012924392, 0.10887712213181179, 0.11117188769624103, 0.11346299063647187, 0.1157707575532592, 0.11821386098074303, 0.12051075733414578, 0.12281632000771811, 0.1250810756679155, 0.1274037102494179, 0.12978049085307342, 0.13209501139658322, 0.1344099626554359, 0.13670338256957573, 0.13901684734919495, 0.14136546808404984, 0.14366172895747648, 0.14595244806204258, 0.14825308955298502, 0.15052634298941878, 0.15284165034383296, 0.15508980902629593, 0.15732954531437612, 0.15965395392216852, 0.16186022152427437, 0.16392369147304173, 0.1661299695290894, 0.16831725457050914, 0.17052553612643578, 0.17266794985092856, 0.17489337084060294, 0.17698520157412995, 0.17906259024802695, 0.1811476210928471, 0.18318851772533462, 0.18518491202236867, 0.18719295291866717, 0.18917940467653963, 0.1911365984538918, 0.19307809307352036, 0.19511688159909554, 0.19699347190187005, 0.19885125954843508, 0.20074285714433548, 0.20255188841504074, 0.20422957383607554, 0.20601174478176876, 0.20776515143383675, 0.20949633332177128, 0.21119072191468546, 0.2128899779095561, 0.21452201649444588, 0.21612668558123482, 0.2177813815130846, 0.21932039952117943, 0.22077797063394697, 0.22227550977582952, 0.22374433351607367, 0.2252485696282833, 0.22665151881077425, 0.22805618499981498, 0.2294045380674164, 0.23072816891563874, 0.2320231719249774, 0.23329632703573144, 0.23459067038007886, 0.23580534496165076, 0.23699623325460323, 0.238044570911848, 0.23920174395621333, 0.24041552474744904, 0.24149981412530677, 0.24255941607652928, 0.24359442829080483, 0.24460501291381354, 0.2455778647809604, 0.2465420226856449, 0.24749196125240244, 0.2484065885198672, 0.24929841083992843, 0.25015773846402883, 0.25100663444115967, 0.2518539153794884, 0.2526570727930462, 0.25344075554277384, 0.2541648942276067, 0.2549163256920196, 0.25566455254679404, 0.2563745613493294, 0.25706727709533117, 0.2577840651993954, 0.25843943271129044, 0.2590483581147069, 0.25968324086907646, 0.26030463394846987, 0.26092354365523673, 0.26151926883212334, 0.26214526675330746, 0.2627160572352, 0.26328045707617154, 0.2637781191551122, 0.2643390578120231, 0.2649122147167678, 0.26545561619214814, 0.26599441075434194, 0.26654310227371364, 0.26707391280879605, 0.2676072125621754, 0.2681367019915654, 0.2686672916864791, 0.269247227533683, 0.2697767624823763, 0.27024519260734137, 0.27079691327002603, 0.27135258739069484, 0.2719371284053891, 0.27250142623524365, 0.27310511832516987, 0.2736844934796616, 0.27427655897295466, 0.27488885944735486, 0.27550783320183975, 0.2760983712470542, 0.27675478380516044, 0.27742594755640426, 0.27805562053264793, 0.2787672729028565, 0.2795685266033871, 0.2803028377648567, 0.2810597631976808, 0.2818435985986206, 0.2826480793901659, 0.283427416435125, 0.2842903883463877, 0.285177936629159, 0.28602715102045023, 0.28697595103090495, 0.28802400350557666, 0.2890148388920584, 0.2900380605927861, 0.2910743142001696, 0.29216766860741167, 0.29329504289087577, 0.29445750144091254, 0.2956560766490237, 0.29691882357202865, 0.2981891893218811, 0.29942909763728276, 0.30079025722295455, 0.302189393379885, 0.3036548328089135, 0.30513025002940075, 0.3065845191273022, 0.30815511769619064, 0.30976688614220943, 0.3114989081305955, 0.3131870086728629, 0.3149073830230815, 0.3166964079579602, 0.3185345157577898, 0.32044932454319264, 0.32238385662447167, 0.3243199112343671, 0.3263656473389159, 0.32846138692493054, 0.33059094217675694, 0.3327909400207362, 0.3351197908664614, 0.3374128277693332, 0.3397626904979643, 0.34210849425362955, 0.34457968369830283, 0.3470637296914221, 0.3496474588902652, 0.35228337233888946, 0.3549756197100993, 0.35771769293876826, 0.36049390421622723, 0.36334789927960054, 0.3662561185973843, 0.36921571499482525, 0.37223433417484103, 0.3753421740071379, 0.3784676650682929, 0.38165106715283365, 0.3849295125812565, 0.38822381113317994, 0.39153725472169143, 0.39495569106773465, 0.3984307025646442, 0.4019588118306781, 0.40554707834775566, 0.40924544319174605, 0.41293868155941144, 0.41669056866993265, 0.42037868822389196, 0.42426125001849163, 0.4282646616716574, 0.43223826216287564, 0.43626626107280936, 0.44025690951828206, 0.444403885969314, 0.44864267908350286, 0.45288001462854477, 0.4571679669355097, 0.46146220028894624, 0.46585576305833, 0.4703232359065362, 0.4748069093010147, 0.4793385000135752, 0.48395124713414367, 0.48857261437936605, 0.4932385333332204, 0.49795520155438083, 0.5027176182537152, 0.5075247993949163, 0.5123757474496327, 0.5172153450904996, 0.5221576190730026, 0.5271375452895231, 0.5321105415710524, 0.5371693973896722, 0.5422343177406144, 0.547362366380143, 0.5525209890937351, 0.5577401835677297, 0.5629546847154557, 0.5681220564304853, 0.5734066997374907, 0.5787155967271401, 0.584156492348562, 0.5894986913283485, 0.5947815366129411, 0.6001903158011831, 0.6056193988639025, 0.6110577046315504, 0.6165257939098464, 0.6219903002768326, 0.627493308268568, 0.6330096977659854, 0.6385824068053744, 0.6441168582088334, 0.6496469669785486, 0.6552071106052013, 0.6607757081125085, 0.6663614457778047, 0.6719412688099426, 0.677427603592627, 0.6830273789514301, 0.6886230142192454, 0.6942779318649169, 0.699854576375347, 0.7053771814760224, 0.7109519880892575, 0.7165173814274963, 0.721997735470596, 0.727549960255914, 0.73310164880311, 0.7386160624465288, 0.744112297792791, 0.7496669967792047, 0.7551135631401352, 0.7604412521994384, 0.7658638338395327, 0.7712594136317321, 0.7766911593600005, 0.7820212885319651, 0.7872873606830346, 0.7925666779700042, 0.7978134697006969, 0.802965398616636, 0.8081504091217001, 0.8133051573256902, 0.8184070387349248, 0.8234939999455662, 0.8285072679336042, 0.8334775442320894, 0.8383491785429469, 0.8432356751467135, 0.8481594233967474, 0.8529323502406233, 0.8576572667532048, 0.8622240506701199, 0.8668609490051347, 0.8714889108659062, 0.8759991835008082, 0.8804507983904121, 0.8847578010542593, 0.8890985520254024, 0.8934156361978848, 0.8976148599671583, 0.9017474235196451, 0.9058425589016753, 0.9098343367560361, 0.9137203321467371, 0.9175781795567034, 0.9213624581827001, 0.9249672366258899, 0.9286143228303809, 0.9322327466460709, 0.9357071914749064, 0.9391012771066776, 0.9423059066182454, 0.9455502789319702, 0.9488204803941328, 0.9518719618803136, 0.9548405127419871, 0.9576336317090398, 0.9604443022943002, 0.9631803237826366, 0.9658053712326419, 0.968339010437223, 0.9707332854705741, 0.9730882312976956, 0.9753505915393736, 0.9775128927279497, 0.9795787986170711, 0.9815546669559385, 0.9834256795737072, 0.9851993742213596, 0.9868752196351779, 0.9884526807715425, 0.9899278421589272, 0.9913073664011214, 0.9926374603899459, 0.9938097846318549, 0.9948838594762581, 0.9958486852142379, 0.9967250497255048, 0.9974528969553502, 0.9981323285309109, 0.9987068427757082, 0.999243988490643, 0.9995998704601916, 0.9997833822460258, 0.9999449259674522, 1.0, 0.999908149166235, 0.9997557894131477, 0.9994815387414786, 0.9991146269603477, 0.9986394956416292, 0.9980938659322678, 0.9973991322215602, 0.9966200423453286, 0.9957136048367448, 0.9947039920928918, 0.9935675751311882, 0.9923547799998538, 0.9909937906355439, 0.9895784613281412, 0.9880572010715036, 0.9864950322797978, 0.984756082074357, 0.9828494362833143, 0.9809191227017701, 0.9788854329161191, 0.9766883685514728, 0.9744582210713161, 0.9722219243171052, 0.9697722781179255, 0.9672265235033829, 0.9645377485082375, 0.9618071086431396, 0.9590231158378079, 0.9560932568903542, 0.9530704867051911, 0.9498776473838322, 0.9466807968031677, 0.943358242275511, 0.9399760901554605, 0.936499705728355, 0.9329610965496837, 0.9292970659475077, 0.9255281720926845, 0.9216915621014593, 0.9177684331966486, 0.9138040760508664, 0.9097063275573593, 0.905572443917539, 0.90130989541485, 0.896971661326586, 0.8925212240653361, 0.8880384455124096, 0.8834598877471901, 0.878829906498106, 0.8741257484672774, 0.8693420822738324, 0.8644947282856608, 0.859610951373572, 0.8546203532759659, 0.8495644358221999, 0.8443159415680361, 0.8391494023944193, 0.8339885704579235, 0.8286776312069407, 0.82330684727334, 0.8178304765883317, 0.812350787292835, 0.8068505866853093, 0.8012527506956802, 0.7956031955563916, 0.78992041663142, 0.7841700479477893, 0.7783533841650879, 0.7725150259448484, 0.7666324550990374, 0.7606363146382852, 0.7546792647689475, 0.7488345328166591, 0.7427735628523874, 0.7366824560190103, 0.7304403086659589, 0.7243069210554578, 0.7182036011975084, 0.7119958020577384, 0.7057615323738291, 0.6993737576721161, 0.6931072175855488, 0.6868182242765764, 0.6804949556376588, 0.6741478558060574, 0.6677859768772179, 0.6613971392780265, 0.6550489515860632, 0.6486211677507937, 0.6421837094968663, 0.6356466977827112, 0.6292057176810477, 0.6228556873457844, 0.6163830652892593, 0.6099099172441028, 0.6033292352998451, 0.5968723586505653, 0.5904599234906692, 0.5839934118169813, 0.5775308741334577, 0.5710975858674655, 0.5646447892631462, 0.5581276344508961, 0.5517056579234392, 0.5452922226835943, 0.5389873334868832, 0.532584319905225, 0.5260386272116642, 0.5196963537423821, 0.5133665277590583, 0.5071867297829259, 0.5008715106838914, 0.49452540197462724, 0.4882715089293096, 0.4820427437453157, 0.47586754409845716, 0.469689735099213, 0.4635291017298464, 0.4574154792212752, 0.45133394172898567, 0.44516392592161846, 0.43916545589257594, 0.43337154942032796, 0.4274103809748172, 0.4214918516009423, 0.4155216889796993, 0.4097017050710278, 0.4039272114097663, 0.39818514905898217, 0.3924847802297062, 0.38677315383256367, 0.3811664316958781, 0.3755712613749425, 0.37005381828561684, 0.36457947566261784, 0.3592714926535674, 0.35387241039323414, 0.34840237852183803, 0.34312768966727125, 0.3379006490228431, 0.33280709747284337, 0.3276684644284242, 0.3225756846931287, 0.31755067033623113, 0.31272041493139063, 0.3077905243507285, 0.30292537482105264, 0.2980464832554927, 0.2933186586079284, 0.28864945771391387, 0.28403913740052106, 0.27948796345427085, 0.27495224580137645, 0.2705257372590345, 0.26621420983912436, 0.2618960401876385, 0.25763978012928923, 0.25340490905508906, 0.24927778560653924, 0.24519697133810267, 0.24119163386797052, 0.2372461408449361, 0.23335077963404854, 0.22952750227964297, 0.22572068017526556, 0.22202415600925515, 0.21838624906835152, 0.214885341914917, 0.21135655708351514, 0.20790243850401469, 0.2045011303630285, 0.20116434821795834, 0.19787820270842077, 0.19467110219599493, 0.19149626674674647, 0.18841817527592014, 0.18540058571805798, 0.18234202855880333, 0.17945816092307734, 0.17674049749542597, 0.17395240684811758, 0.17122637954954928, 0.16854162595977698, 0.1659407851146862, 0.16333171852515546, 0.1608578850538966, 0.15843891989623926, 0.15616963910209056, 0.15384873824169132, 0.1515103634835802, 0.1493190162737052, 0.14718185653082108, 0.14520349524497922, 0.14316073845242258, 0.14111635010483597, 0.1391985364293124, 0.13733414609706387, 0.13555298452087147, 0.1337896907498791, 0.13200858349807038, 0.13035975302761357, 0.12875832184994176, 0.12716001481021827, 0.12565793925809138, 0.1242098266124777, 0.12279398132175334, 0.12142218784015707, 0.12017184838316508, 0.11887713665248695, 0.11763629681262942, 0.11643377557654971, 0.11527643040036503, 0.11413604187106567, 0.11306900219711441, 0.1119914904669862, 0.11101050708781238, 0.1100652025880948, 0.1092092220780189, 0.10832699856314763, 0.10751238732479089, 0.10669963039463302, 0.10592369266597385, 0.10521037075038948, 0.10450092545049867, 0.10375516112836884, 0.10312272933230097, 0.10251835617160367, 0.10206987195794101, 0.10150333380513271, 0.10079076412522087, 0.10031151173724022, 0.09985198055811767, 0.09948645660517544, 0.09905654574592251, 0.09865671297909766, 0.09827163272888338, 0.09790836970928572, 0.09753889368856589, 0.0972197702034827, 0.09692482547456323, 0.09663896456727217, 0.09636945882176054, 0.09612566086916094, 0.09588520342455736, 0.0956356154694995, 0.09542635367749132, 0.09522855673852858, 0.09507537269211004, 0.09489421214960544, 0.09462968679303356, 0.09448216499922495, 0.0943387283128624, 0.09432771643922554, 0.09417564706094783, 0.09391582931658024, 0.09379855798266155, 0.09368256600582016, 0.09371298409021313, 0.09358027949260675, 0.09337825805262989, 0.0932707291819116, 0.09316425046184525, 0.0930445573551418, 0.09293969199656617, 0.09284986238257925, 0.09273853562083914, 0.09262513050665862, 0.09248864950360827, 0.09237155145265809, 0.09233033686910658, 0.09219194636078415, 0.09205187499269077, 0.09190222929109837, 0.0917563449899875, 0.09164583561614192, 0.0914835700786767, 0.09131675409184774, 0.09109022917264205, 0.09091808696114274, 0.09072532207732958, 0.09053314132005368, 0.09032919853012539, 0.09006928050694336, 0.08984662007646026, 0.08969352899964213, 0.08943035465785006, 0.08915715100882456, 0.08884623322272137, 0.088554552032867, 0.08826311881198957, 0.08794291285173299, 0.08760969047869359, 0.0872394496286411, 0.08688222552681894, 0.08659091274830785, 0.0861928785442232, 0.08578404680129574, 0.08529270373688194, 0.08486924144833263, 0.08442238223755538, 0.08396661382550256, 0.08349403934873774, 0.08303524519059094, 0.08252565720590442, 0.08198449403322437, 0.08144759599102552, 0.08089488154261543, 0.08036024154743858, 0.07977185027991825, 0.07920022214092308, 0.07858046711595253, 0.07794844579873875, 0.07728691541255853, 0.0766315628248389, 0.07595880669162396, 0.07527582591460202, 0.07457864531902261, 0.07394512626324863, 0.07320999245403581, 0.07247212114884344, 0.07171666808233734, 0.07095126907191064, 0.07004371605351759, 0.06927421439520344, 0.06858471727345286, 0.06776767126586879, 0.06693996117477227, 0.06600358869473373, 0.06516720059909414, 0.06441304897578906, 0.06353358183784627, 0.06264568664154443, 0.06181368681963906, 0.06090107733548839, 0.05984535528570989, 0.05894102890005601, 0.058023926098154606, 0.05717281372965864, 0.05622323658486803, 0.05518689372617616, 0.05423657448519967, 0.05327654996340754, 0.05233818564537636, 0.05135764396482246, 0.05049348727953437, 0.04948739512374472, 0.0483215542312622, 0.0473406803053488, 0.04635249748439006, 0.0454629201657778, 0.044450051821618534, 0.04343543685030596, 0.04242632799028363, 0.04141884445171003, 0.04036922150916267, 0.03937117833354681, 0.03841020354471369, 0.03740786374046714, 0.036408800086386084, 0.035467460498757306, 0.034469160969004535, 0.03338021037142205, 0.03240912008629773, 0.03143997102182874, 0.030531154407034883, 0.029561290796997552, 0.028575518671209454, 0.027624505373680653, 0.026680616356752933, 0.02575118651690706, 0.024822402700802503, 0.0238690114468161, 0.022963426998538265, 0.022066168350968182, 0.021279465805305153, 0.020388344547741726, 0.019449241227833022, 0.018598655891124354, 0.017760558306386523, 0.016996351062124163, 0.016177129257885045, 0.015378780568782195, 0.014594144808575833, 0.013827306893055129, 0.012987070857814267, 0.012267741917121308, 0.011598740168383985, 0.01090193012680151, 0.010222202870906118, 0.00957363220925976, 0.008927987367665516, 0.008281492102594675, 0.00767768541706026, 0.007092966794847008, 0.006578614701755665, 0.006027298261310932, 0.005469076138856564, 0.004968745312197858, 0.00449042515349331, 0.0041088919826605085, 0.003666321382625244, 0.0031428433970942245, 0.002768320992271499, 0.0024146096329510326, 0.0020858396457495453, 0.0017755107807943692, 0.0015626541010409854, 0.0012896315508611482, 0.001044936571324841, 0.0007641966811368577, 0.0005839516851983578, 0.0004247861734067603, 0.00029438098698079024, 0.00018918627242496465, 0.00011978474732018809, 6.500247566878505e-05, 0.0, 4.121119034136905e-06, 3.359972221959736e-05, 0.00018023929332774676, 0.00025033080014096265, 0.00035223557813706356, 0.0004855605039230253, 0.000649958619459175, 0.0008552686273545199, 0.0010796478946653774, 0.00131118302345693, 0.0015999160775322181, 0.0019175940950144903, 0.002250649258980688, 0.0026278041863753866, 0.00301611362157467, 0.0034515966497018157, 0.003914306553471747, 0.00442131851835023, 0.004936812177907678, 0.005480884263870584, 0.006053470883834134, 0.006654496681739934, 0.007273729823440406, 0.007932643917214249, 0.008541354114002258, 0.009265206990545711, 0.010012162152107209, 0.0109112601829399, 0.011689692226443718, 0.012493007381377305, 0.01333482481012755, 0.014206438056951655, 0.015063279880662637, 0.015998260003037047, 0.016972379134890036, 0.017956715466041478, 0.018967086006805845, 0.01992202502399502, 0.020993799264050525, 0.02214022143811929, 0.023246566813758182, 0.024377059138110273, 0.02550437099816032, 0.02668573507605144, 0.027885466373048316, 0.02911064438642663, 0.03035711583569913, 0.03170587302412405, 0.03298413128574665, 0.03424704483568494, 0.03557997677823276, 0.03693406431152598, 0.038254698183861145, 0.03965642793005389, 0.04105785860744761, 0.042494874562584745, 0.04394735596470541, 0.045503185260964606, 0.04697529975291705, 0.0483559201371457, 0.049881425240953035, 0.05141897282317722, 0.05305316035329038, 0.05460419704934009, 0.05617534702528421, 0.05775858496210161, 0.059357102395478346, 0.06098023430572701, 0.06260562437870536, 0.06423436426235936, 0.06588720576073438, 0.0675513608625693, 0.06924643629609303, 0.07092861830636588, 0.07269563993126225, 0.0743884961286586, 0.07609438734444508, 0.07777476919388844, 0.07950749316796947, 0.08126770286046747, 0.0830114757318037, 0.08476206329311725, 0.08654902652253123, 0.08830682331935148, 0.09015858503486715, 0.09191636450180966, 0.09368321373017596, 0.09537640519414996, 0.09716708934186609, 0.09901885772953194, 0.10080173912543502, 0.10258719835681965, 0.10439115556154246, 0.10617674478730459, 0.108047657223267, 0.10982320405245931, 0.11160251145862596, 0.11338749743557361, 0.11516964866368729, 0.11690104388946307, 0.1186884350441521, 0.12047083225599543, 0.12241343035725316, 0.1241634093196879, 0.12583849869139446, 0.12760233766776813, 0.12936138807043027, 0.13114193370023067, 0.13288575207483797, 0.1346580196750104, 0.13638603725998916, 0.1381090809203313, 0.13990063029113325, 0.14160166763356283, 0.14327576386633173, 0.14497199791087587, 0.1466612624700083, 0.1483630502350597, 0.150033509821717, 0.15171629862750333, 0.15336755453604958, 0.1550106379720165, 0.15670569662560277, 0.15832266204374276, 0.1599092878681684, 0.16151493353023547, 0.16311075272640296, 0.1648449832763142, 0.16640075242263905, 0.16783524717983875, 0.1693985985147863, 0.17094949759621392, 0.1726060883024205, 0.1741165253017883, 0.17552595901517934, 0.17703468721069598, 0.17854675124138905, 0.18002619561500854, 0.1814930386475081, 0.18302496697241472, 0.1844565378838247, 0.18586279687480764, 0.18727907868305474, 0.18868487207076332, 0.1901103235318485, 0.19149049424742276, 0.19283415975662777, 0.19419849293898492, 0.19555122678822914, 0.196868702244146, 0.1982013030337687, 0.19959889399388556, 0.20089638657200312, 0.2021860590326919, 0.20339995829771323, 0.2046816588090047, 0.20600173594602797, 0.2072527666230093, 0.20849516522345796, 0.20976276239972572, 0.21098370853482465, 0.21217780166481018, 0.21338804909994663, 0.21459038632438046, 0.215788347742889, 0.21697492995289058, 0.2182355096828639, 0.21939772875348693, 0.22055781301000857, 0.2216950987308799, 0.22285246268837347, 0.22394148838210334, 0.22509887847595456, 0.22624878822005945, 0.22744264592212676, 0.22857327681472672, 0.2297250083907272, 0.23084775547475864, 0.23196979946742247, 0.23305069409658072, 0.23417691690295458, 0.23528719150363245, 0.23641088944952032, 0.23753262299232802, 0.23871059609798573, 0.23982326810836926, 0.24103399725728025, 0.24214165947093663, 0.24325849187811935, 0.24434684570145943, 0.24548550267569647, 0.24663704155117558, 0.2477872929153349, 0.24894452794167313, 0.25003462448570224, 0.25121610849574416, 0.2524216700520771, 0.25360918322223064, 0.25480362468434753, 0.2560260707125103, 0.25723415258600424, 0.2584323401390302, 0.2596643708241764, 0.2609068541007439, 0.2621436569689641, 0.2634114954332256, 0.2647181772284393, 0.26600704968606376, 0.2673109499999048, 0.26864062512377246, 0.2699751077938831, 0.27132023896399693, 0.2726909274189236, 0.274079713281842, 0.2754364738151169, 0.27686967306907834, 0.2783469816218633, 0.27981188204496293, 0.28129732285504727, 0.2827803243536391, 0.2843118967548854, 0.28591881196770863, 0.28748685146884057, 0.28908079514396584, 0.2906772987603116, 0.29232704700708356, 0.2939652177473787, 0.29567148479132105, 0.29740242508149933, 0.2991927096981068, 0.30097123909103396, 0.3027348072233909, 0.3045773481553932, 0.30644732600808416, 0.3084165549752689, 0.31033478081641325, 0.31230697976548205, 0.31429010424244674, 0.3163082787130594, 0.31834459220180045, 0.3204350416532575, 0.3224751750624318, 0.3246450161333393, 0.3268448578516505, 0.3291196179592611, 0.3313766963923114, 0.3336283097695136, 0.33596113837396635, 0.3383275687409956, 0.3407215212705632, 0.34315800427330145, 0.3456295937021533, 0.3481368686367043, 0.3506803556454278, 0.3533349282178814, 0.35594282189478077, 0.3585349174410851, 0.3612332124213784, 0.3639695162573989, 0.3667711683874257, 0.36958089990190696, 0.3724681300618479, 0.3753537462920867, 0.3782817252069102, 0.38118074217507847, 0.3842015287128866, 0.38730044144592135, 0.39039154288421724, 0.39352312331003575, 0.3965936643716537, 0.3998188162860431, 0.40309882111648415, 0.40639126386098595, 0.4097207587400631, 0.41304370140232377, 0.41645385609802293, 0.41996370367542013, 0.4234371267287271, 0.42695051154314617, 0.43046983840734954, 0.43406679017483274, 0.4377383292787076, 0.44140536316289364, 0.4451118335937801, 0.4488607273608174, 0.45264445040014356, 0.45638543061007786, 0.46025579785749754, 0.46415912110060586, 0.4681361683541581, 0.4721007494882435, 0.47612454073072313, 0.4801568225349569, 0.4842251749446814, 0.4883154415281121, 0.4924557534891211, 0.49659904543723593, 0.5008095041248501, 0.5050505900305838, 0.5093490337859203, 0.5136469388750449, 0.5180435147250239, 0.5223942724176853, 0.526778506913378, 0.5310901490195081, 0.5355509300206874, 0.5400120766036336, 0.5445236753043777, 0.5490574168139143, 0.5536435467427919, 0.5582170774999852, 0.5627899829564942, 0.5674119395953852, 0.5720542625344632, 0.5767468535019412, 0.5814244101296111, 0.5860918549768304, 0.5908129824897791, 0.5955508686436326, 0.6003284855507862, 0.6050947580050645, 0.609846467217614, 0.6146473286654368, 0.6194603418960154, 0.6243320764014566, 0.6291610499938224, 0.6339550595206389, 0.6388135175245282, 0.6436791977685532, 0.6485242025179229, 0.653405179486094, 0.6583636229712946, 0.6632406152181688, 0.6681233603237067, 0.673064545537591, 0.6779477308142411, 0.6828118690345486, 0.6877055271170591, 0.6924874269670196, 0.6973934315108425, 0.7022901796657772, 0.70722116752785, 0.7120923684954663, 0.7169213325659137, 0.7217789267930989, 0.726624103650302, 0.7314087187950049, 0.7362325936353492, 0.7410659026887614, 0.7458505682244256, 0.7506179484282962, 0.7553975532356337, 0.7601237020052594, 0.7647265571948989, 0.7694277599248966, 0.7741020722787054, 0.778809939506527, 0.7834214033814586, 0.7879469625848926, 0.7925148687826223, 0.7970519478961258, 0.8014966192314662, 0.8059775386485478, 0.8105064280114366, 0.8149031180316965, 0.8192670777988669, 0.8234685279826434, 0.827779442172435, 0.8320702578711019, 0.8362904037633664, 0.840467514888115, 0.84462798821044, 0.8487135697799384, 0.8527588430089077, 0.8567555561195087, 0.8607066282281248, 0.8646007931088311, 0.8684584948383877, 0.8722733679207685, 0.8760299799614354, 0.8797352701977184, 0.8833204887266055, 0.8869283389009962, 0.8905216972596042, 0.8940065309830144, 0.897434217482062, 0.9007936010855637, 0.9041052461365938, 0.907278375680204, 0.9104774636565286, 0.9136096185589834, 0.9166745515633398, 0.9196719002077088, 0.9226587257351825, 0.9255123038222014, 0.9283000895835593, 0.9309500409491406, 0.9336121615109545, 0.9361913508630493, 0.9387088007864871, 0.9411520894107781, 0.9435783236608106, 0.9458648390862125, 0.9480588739363945, 0.9502026295771894, 0.9522712050557391, 0.9542740370241327, 0.9561888603183651, 0.9579627452560179, 0.9597315776647769, 0.9614186675483409, 0.9629697450809128, 0.964499664118713, 0.9659374505260816, 0.9672976700434003, 0.9685724369157405, 0.9697686188549433, 0.970871879095982, 0.9719476972923248, 0.9728737277413095, 0.9737178227263852, 0.9744049729668466, 0.9750928032605856, 0.975804397924346, 0.9763025673430882, 0.9767193495956193, 0.9770708009893712, 0.9773202060027107, 0.9774023422834052, 0.9774962466180225, 0.9775013037605728, 0.9773533868059741, 0.9771892400722076, 0.9770040150643348, 0.9766473407873714, 0.9762037709727115, 0.9756022449128672, 0.9749937493085701, 0.9743010763043007, 0.9735104492433376, 0.9726304273357095, 0.9716479543298551, 0.9705922399314327, 0.9694646243884865, 0.9682296766437397, 0.9669078913570158, 0.9655435757317417, 0.964043599612236, 0.962483977621016, 0.9608143869211115, 0.9590628881644994, 0.9572260303066698, 0.9553110089711708, 0.953215832822386, 0.9511492016965499, 0.9489953704289974, 0.9467926040864199, 0.9444628248541797, 0.9420577657081455, 0.939563693704282, 0.9369892644966439, 0.9343046574257164, 0.9315752219544138, 0.9287757635293008, 0.9258856249001527, 0.922917707300132, 0.9199336951637092, 0.9168049753094757, 0.9135231986014781, 0.9102612917620424, 0.9069236979148659, 0.903575803877292, 0.9000821011269701, 0.896458801431303, 0.8928359106123726, 0.8891420733672767, 0.8853581660018395, 0.881528486008522, 0.8776842878622699, 0.8737118166860769, 0.8696763281259304, 0.8655786382267506, 0.8614195993217814, 0.8571121759490772, 0.8528442473698142, 0.8485127895293818, 0.8441194864104083, 0.8396659610845986, 0.8351740724221768, 0.8306021973889297, 0.8259758098536628, 0.8212894273262481, 0.8165587008746814, 0.8117904196796036, 0.8069571288844772, 0.8020761211166384, 0.7971688649946792, 0.7921934011614105, 0.7871749157856007, 0.7821144456420107, 0.7770130554775802, 0.7718481648800475, 0.7666712246567309, 0.761424945425662, 0.7561753933359456, 0.7508879224456805, 0.7455573552489148, 0.740199625754553, 0.7348522197458569, 0.7294232075465968, 0.7239660959962722, 0.7185158413823283, 0.7130016958895145, 0.7073701421881265, 0.7018234453596444, 0.6962506058721273, 0.6906364915080359, 0.6850187766037857, 0.6794535319123333, 0.6737843203000022, 0.6681008209608856, 0.6623905588494379, 0.6566833749476246, 0.6509407035198811, 0.645214111162799, 0.6394768411484781, 0.633747231727083, 0.6279907384832804, 0.6221814037805077, 0.6164211346874138, 0.6106551812557486, 0.604888539791306, 0.5991155849085082, 0.5934365209614624, 0.5876514572913116, 0.5818737815464126, 0.5760669196029591, 0.5703106583931866, 0.5645718998687328, 0.5588301671185784, 0.5530613622608497, 0.5473456108579218, 0.5416399646969245, 0.5359525369726748, 0.5302702670045985, 0.5245348132930059, 0.5188912030633682, 0.5132606489333056, 0.5077260257449657, 0.5021163841352237, 0.49637707616392707, 0.49083251076276196, 0.48530357021839426, 0.4799208239255026, 0.4744129452233507, 0.468926922760722, 0.4634777762123017, 0.4580581638713742, 0.45266881153691907, 0.44731045077357007, 0.44189589483626757, 0.43661284120964305, 0.4313580536034576, 0.426126210109055, 0.4209330423386551, 0.41583606896877856, 0.41069990773073006, 0.4056017034492396, 0.40048454471795103, 0.39547124843218934, 0.3905011650773399, 0.38556093964482324, 0.38065953316076095, 0.375868809510372, 0.3710385643275899, 0.3662535335863733, 0.36151386284507486, 0.3568197296072733, 0.35216457554417063, 0.34756301030377634, 0.34299037515044956, 0.3384829411624575, 0.33402103600411676, 0.32964908197078585, 0.32527404396655546, 0.32082321715548046, 0.31656271848962425, 0.31234466985315407, 0.308187089290788, 0.3040550246600177, 0.30003024181759685, 0.29598398049079666, 0.29198882776964397, 0.28801440234053927, 0.2841254762387739, 0.2802962583787136, 0.276505473768348, 0.2727653827959868, 0.26903555558454056, 0.26540241004753595, 0.2618687905079359, 0.25832724837514914, 0.2548381206928882, 0.25140467762321195, 0.24801961496072022, 0.24465638031928924, 0.24137954209343795, 0.23815295831563996, 0.23497333660325298, 0.23184792126737194, 0.2287490615637678, 0.2257271073137665, 0.2227540457595591, 0.21987397559480185, 0.21699349982032956, 0.21406318902076832, 0.2112983987503348, 0.2085787914836577, 0.20589128541658044, 0.2032649839381417, 0.2008227822143279, 0.1982701242567642, 0.19577114108362295, 0.19329099136395125, 0.1909006191274795, 0.1885320726480491, 0.1862422894077289, 0.183998698106584, 0.1818246152730529, 0.17966932938754782, 0.17751309441115096, 0.1754559757811153, 0.17344138763536363, 0.17144206082211655, 0.16951526052813037, 0.16767941669751463, 0.16582654407891007, 0.16401644152649264, 0.1621842082301212, 0.1604658175930129, 0.1588285968218883, 0.15717892625513677, 0.15556858646349842, 0.1539597598527686, 0.15243091398414169, 0.15102195913605387, 0.1495527734840566, 0.14812293329989262, 0.14663663466232932, 0.14529414760044532, 0.1439993790326899, 0.14271614330445453, 0.1414641427818247, 0.1403105264891104, 0.1391109626166906, 0.1378772525576361, 0.13675209639853828, 0.1356544426004433, 0.13463452600790085, 0.13358396367451245, 0.13251146614681977, 0.13152391228767388, 0.13056036219433206, 0.12968116226822804, 0.1287563280686799, 0.12777948886504184, 0.1269149466787053, 0.12606968020824494, 0.12520610876046556, 0.12440290428283889, 0.12371029746239504, 0.12292674426331512, 0.12216394576224074, 0.12139713917057575, 0.12067560892446576, 0.12006165227753171, 0.11936032934145982, 0.11867883238065025, 0.11790744492874848, 0.11727486702292805, 0.11660785596066145, 0.11599952863938412, 0.1153975014682963, 0.11482537180719307, 0.11423265952499632, 0.11363362301442524, 0.11305657084273482, 0.11248502596712001, 0.11195917225488039, 0.11139229151785228, 0.11089616462430679, 0.11033335860339999, 0.10977906561898429, 0.10917789465228504, 0.10864369596762276, 0.10808768843335802, 0.10755958561992615, 0.10703078275203254, 0.10649072305203895, 0.10596055320910655, 0.10543460245347956, 0.1048981243432513, 0.10435873455296862, 0.10381260031277244, 0.10326645606541433, 0.10274289604065819, 0.1021839596632383, 0.10162120086295875, 0.10099309350236012, 0.10042844129220951, 0.09985465764196925, 0.09927165050551795, 0.09867929012419263, 0.09815519128654886, 0.09753377558898103, 0.09684593623610312, 0.09622024877080211, 0.09558393445193103, 0.09495365002400824, 0.09429318244392586, 0.09362902516960742, 0.09294639273957092, 0.09225289453133348, 0.09150414196529517, 0.09079320974097983, 0.09015564923020247, 0.08940449004772912, 0.08864367210766522, 0.08776084279003214, 0.08699261013547911, 0.08626387358830673, 0.08545272501136356, 0.08462742694228749, 0.08384861828063489, 0.08298664980739748, 0.0820896317880316, 0.08120722609718707, 0.08031084226343192, 0.07937985299198111, 0.07845710615581816, 0.07758936308824928, 0.07662555705502226, 0.07564961928027986, 0.07454596998431125, 0.0735585744128656, 0.07266599731841923, 0.0716243001188866, 0.07046849640596245, 0.06941383784780057, 0.06833995787692275, 0.06726425002521538, 0.06615120660970379, 0.06502799723494566, 0.0638804854329352, 0.06271690433676082, 0.061544189996617586, 0.060348134072722354, 0.05915719879607171, 0.05792836193632069, 0.05668574956255071, 0.05537185316985901, 0.054108924980582826, 0.05281211104019906, 0.051517889485329836, 0.05020675626326499, 0.048919887979006337, 0.047571549799464645, 0.04626097073158921, 0.044880447355569154, 0.04349013463998288, 0.04202217510967186, 0.040620221675759495, 0.039221097375078805, 0.037789338307805516, 0.036345409826259174, 0.03495726204465289, 0.03348139942524247, 0.03189329423977235, 0.030415643648561263, 0.028924333172216543, 0.027440412611277398, 0.025921451248981806, 0.024442839949123586, 0.022897190033206154, 0.021344946864039562, 0.01976924517771754, 0.018206123414113918, 0.016693196974101557, 0.015108516177795716, 0.013520372491652445, 0.011871139737456321, 0.010282992954651533, 0.00865412878458094, 0.007056969563108781, 0.005452034310239444, 0.003846861191945655, 0.0022278046886099146