0.056955498898588815, 0.05621480581669205, 0.05559623063762069, 0.05498384247170814, 0.054354231835756314, 0.05375443509486622, 0.05320858196271594, 0.052606942091820035, 0.05200997733617315, 0.05145555681706393, 0.05086109948184653, 0.05029420534418593, 0.04970632554838313, 0.049123454382091286, 0.04853526704330301, 0.04796168998305098, 0.04737157151190043, 0.046805603620448236, 0.04624075043033922, 0.04560308507659524, 0.045049777556984485, 0.044548097427330846, 0.043982545118503476, 0.04341832599423617, 0.04287483763903382, 0.042311208536432686, 0.041753583833632923, 0.04119511244537748, 0.040639598415498676, 0.04012559900140623, 0.03957113644043386, 0.03904755062511133, 0.03849991713303575, 0.03795842523536462, 0.03739378351220816, 0.036867182219244406, 0.036218854912520804, 0.03571532106360985, 0.03520843541330015, 0.03478924381889462, 0.03426738434279446, 0.03380473795259054, 0.03328518502906424, 0.032773369473684984, 0.032169288911508186, 0.03168443207537692, 0.03127784138298847, 0.030786095566299663, 0.03030090473055677, 0.02978997596420238, 0.029321508749110194, 0.028854187937518837, 0.028395026618445632, 0.02794039492410807, 0.02745513297883029, 0.027014577609993436, 0.026667066590932677, 0.026221717408616195, 0.02578532375268957, 0.02537358561862509, 0.024952026743032242, 0.024545811629034135, 0.02414092887104028, 0.02374468990771935, 0.023215420236660924, 0.02285353171114587, 0.02258161090111271, 0.02220932585078467, 0.021843961251867074, 0.02153700037381595, 0.021179192546008776, 0.020818564620048607, 0.020482121034285775, 0.020154390581424975, 0.019709935945745643, 0.019415154629103936, 0.019240684529324176, 0.018934683694059033, 0.018638623663583282, 0.018288064375617447, 0.018019525419197997, 0.017805100952324456, 0.017542735654000823, 0.01728982867232692, 0.016962811834769744, 0.016739335268888177, 0.016523823084244094, 0.01631013595219809, 0.016102695619357957, 0.016004859356216126, 0.01579845016031723, 0.015541226231032188, 0.01536940134803801, 0.01524515471564473, 0.015086682855937832, 0.014939763855124142, 0.01481068207346511, 0.01468565785686172, 0.014540069806858897, 0.014442130409803435, 0.01435375089642443, 0.014307257706526102, 0.014234504949445293, 0.014138319391453165, 0.014093769973905823, 0.014058988263306304, 0.014066343735937759, 0.01404772747594582, 0.014054197484137125, 0.014058355696030311, 0.01407535502806263, 0.014101849522249472, 0.014144567781502217, 0.014083951272237055, 0.014165953229361802, 0.014253760303765343, 0.014380433318629886, 0.014478467197174305, 0.01453839132626805, 0.014663085189450135, 0.014795889870465624, 0.015072450798000365, 0.015206386808441778, 0.015251780015234221, 0.015433486654458942, 0.015625551104565618, 0.015940799263771167, 0.01614039281346565, 0.01636724138108732, 0.016600177033606597, 0.0168500091497203, 0.01697475506378778, 0.017274539471428606, 0.017687747336956, 0.01798963106576498, 0.018306239260040148, 0.018495904685959547, 0.018859026889634162, 0.01928924237751042, 0.01965766870279257, 0.020037329340963438, 0.02050878418007293, 0.020901401648897606, 0.021223579303910264, 0.021659289195609357, 0.022105469756630518, 0.02256240280246371, 0.023030326562331047, 0.02352871950671255, 0.02401674673853158, 0.024517337736635995, 0.025043291037262404, 0.025567212662420964, 0.026133152968555742, 0.026679437036532614, 0.027240092746484427, 0.02789505560620358, 0.02847314043146697, 0.028979041787850896, 0.029603132605483466, 0.030238171212133423, 0.031019091121960763, 0.03165887992790454, 0.03230746035418275, 0.03298420742145928, 0.03367672770619306, 0.03433280884705678, 0.03506107303931468, 0.035861154713082564, 0.036603097712023955, 0.03735898572503004, 0.038102519445763955, 0.0388878406464032, 0.03981905085769263, 0.04060897238747927, 0.04141703101688493, 0.0421970045580254, 0.043043469605489014, 0.04396654485732914, 0.044829106229206474, 0.0457067494330477, 0.04655683687480529, 0.04746744374572757, 0.0484495704257749, 0.04937316162891763, 0.05031022176025885, 0.0513211490712791, 0.05227555000086958, 0.053293331145935596, 0.05427108351439308, 0.055265010595340565, 0.056245115897620726, 0.05727196090733164, 0.058435857051510075, 0.059469856934336, 0.06052176450232491, 0.06161594704745525, 0.06269658047281382, 0.0637866357714899, 0.06489871150474225, 0.06602429120669052, 0.06719798993075285, 0.0683440258449695, 0.0695454497010347, 0.07071271405167216, 0.07189460882641074, 0.07302280638410466, 0.07424007613731601, 0.07554955531118336, 0.07677361818738375, 0.07801111152926311, 0.07922607987952307, 0.0804931696098367, 0.08183441400508709, 0.08311307688192361, 0.08440510615874454, 0.08575815669139586, 0.08706927230256815, 0.08833722214850602, 0.08968428424569688, 0.09104144848167985, 0.09244400602996825, 0.09381676228576892, 0.09525291568724174, 0.09664285696167324, 0.09804714984069939, 0.09949089386641527, 0.10091890613604783, 0.10233865082021666, 0.1037973781638072, 0.10526799464209723, 0.10682416982411833, 0.10830855557874763, 0.10983410565167766, 0.11134544644186717, 0.11287237129068814, 0.11435632068203727, 0.11591967536534242, 0.11744532142976033, 0.11903578744120333, 0.1206341272004716, 0.12235004851145184, 0.1239516518376901, 0.12561350768466037, 0.12723943295353768, 0.1288821851061455, 0.1304510603337149, 0.13213675832576938, 0.13385485006262893, 0.13555779162617548, 0.13727245726924442, 0.13895394287832658, 0.14069800245022096, 0.14249973900300394, 0.14425713043653987, 0.1460276087782652, 0.14788187741207445, 0.14966963891831742, 0.15139741326067183, 0.15322867571820145, 0.15507179490758716, 0.15693024445201478, 0.1587974408378474, 0.16074811625865706, 0.162632151032117, 0.16453334297405434, 0.16648345178052942, 0.16841384141091606, 0.17032691791410953, 0.17229739239017505, 0.17428309544397233, 0.17627758713754274, 0.17829455006339362, 0.1803135745971274, 0.18236211122323043, 0.18442509357098175, 0.1864802777292461, 0.18857574144092865, 0.19080402320564477, 0.19291272965054615, 0.19504285849271635, 0.1971841924382434, 0.19935675154751856, 0.20150054653936164, 0.20371783869738208, 0.20595145866701725, 0.20821774554001013, 0.21048280869967412, 0.21275628242975178, 0.21505881079735054, 0.21737915464988053, 0.21973363194839168, 0.22208833133228817, 0.22451070656282127, 0.22689838988467662, 0.22926353594888577, 0.2317015741821898, 0.23415913435525798, 0.2365914741501562, 0.23909450122477, 0.2415734919603128, 0.24411788489215389, 0.24667884636387538, 0.24933114236670548, 0.25191839611887057, 0.25450943408476717, 0.25714530195991964, 0.2598032625673752, 0.2624481994093616, 0.2651554962918917, 0.26793819448416767, 0.2706806257940607, 0.2734478386850941, 0.2761594728457803, 0.27898634342128487, 0.28188166182446894, 0.28474360585540337, 0.2876297798646915, 0.2905339151770056, 0.29346982925267256, 0.29635294828674413, 0.2993474535540237, 0.30236232594584334, 0.3054336998135743, 0.30848711368476767, 0.3115392816841051, 0.3146451326388628, 0.31777450294154164, 0.32101135454469504, 0.32417839796926257, 0.32726228686540715, 0.3305017823425915, 0.3337635423807395, 0.3370867282278727, 0.3403898719555133, 0.34366761918570754, 0.34702938472018857, 0.35041444069898064, 0.35384896232526797, 0.35727868948633157, 0.360827551838909, 0.3642974792049475, 0.36779873166282767, 0.3712374159639487, 0.37481105392169095, 0.37838638861610535, 0.38201149373853177, 0.3856599736600081, 0.38941250979014597, 0.3930985723585242, 0.39672985574215874, 0.40048356558422293, 0.40426049091797367, 0.4081187633936917, 0.4119356286569776, 0.41578931414198644, 0.41965899971542997, 0.4235557800259431, 0.4274439399491161, 0.43139829424854764, 0.4354184880108058, 0.43941566465445464, 0.44343917278102735, 0.4474918187653574, 0.45156638478300704, 0.45565345145139957, 0.4597799744333334, 0.4639303943918172, 0.4680787620137799, 0.47227949579401934, 0.4764923083010623, 0.4807376525172277, 0.4850040518895808, 0.4893428908611369, 0.49364477693955133, 0.4978740085920356, 0.5022350256849419, 0.5066133025980664, 0.5110830094690151, 0.5154871710220205, 0.5198072523726407, 0.5242681818482638, 0.5287440133217012, 0.5332286314364254, 0.5377359129142262, 0.542268016922477, 0.5468045315619687, 0.551356860411158, 0.5559634138584939, 0.5605419883166097, 0.5651604136012987, 0.5697702377658266, 0.5743974326122693, 0.579057250347173, 0.5837147289004667, 0.588310965582685, 0.5930090509362332, 0.5977169139439021, 0.6024214719535289, 0.6071497705963501, 0.6118380723460652, 0.6165885881956731, 0.6213439795761535, 0.626136375444151, 0.6308973469143381, 0.6355779471047271, 0.6403621405024077, 0.6451467649197554, 0.6499544106126462, 0.6547372247508086, 0.6595216763564203, 0.6643073565584224, 0.6690937909568044, 0.6739061528015766, 0.6786891927743225, 0.6834116240009094, 0.6882023893395052, 0.6929883951967569, 0.6978849061472387, 0.7026454528717079, 0.707415926083262, 0.7121742948645379, 0.7169304927321714, 0.7216444762726018, 0.7263968211050121, 0.7310409541194631, 0.735787696700212, 0.7405182606555211, 0.7452453171685122, 0.7499412597706342, 0.7546112894678858, 0.7592753670134312, 0.7639214989803454, 0.7685394791905484, 0.7731491855339409, 0.7778317346851811, 0.7823883366697718, 0.7869285059447404, 0.7913543676129144, 0.7958694882592081, 0.8004324054422368, 0.8048854122584389, 0.8093153031597884, 0.8136694186754346, 0.8180558693988847, 0.8223516153174268, 0.8266857323599582, 0.8309852444452017, 0.8352916131960508, 0.8395156165251837, 0.8436322788049246, 0.8477978861539792, 0.8519241514928926, 0.8559786317883633, 0.8600292595194108, 0.8640439878912849, 0.868008866376113, 0.8719311170870735, 0.8758969876036095, 0.8797214110765101, 0.883477429537014, 0.8872251548900668, 0.8909290461567152, 0.8945655414814625, 0.8981814121102976, 0.9016911699475859, 0.9052169500972864, 0.9086894853727799, 0.9121919102276759, 0.9155460940434751, 0.91885351834526, 0.9221061008880546, 0.9253064345396711, 0.9284501133793737, 0.9315428193400145, 0.9344960947296639, 0.93748654673067, 0.9404143606360253, 0.9431956757688519, 0.9460077788716736, 0.9488542812702164, 0.9515167438445821, 0.9541168601825999, 0.9566345148633371, 0.9591098799790975, 0.9614229424696832, 0.9637780429479904, 0.9660605307175225, 0.9683572843522931, 0.9704838379438514, 0.972513807997049, 0.9745078577357847, 0.9764309774006833, 0.9782408391431945, 0.9800257107783772, 0.9817806175320534, 0.983409673368099, 0.9849947340568981, 0.9864736474383726, 0.9878799765727091, 0.9891229003885775, 0.9903929421838625, 0.9916761397766428, 0.9927743580380282, 0.9937977692620671, 0.9947680540103719, 0.9956366308997566, 0.9963972738328228, 0.9971174942124559, 0.9977585502467965, 0.9982846817411873, 0.998770670925689, 0.9992032915844647, 0.999521017034267, 0.9997580123835937, 0.9999268630882536, 1.0, 0.9999281487219658, 0.9998476853321634, 0.9996823702398647, 0.9994582250921421, 0.9991208756139439, 0.9986720691068764, 0.9981733458158654, 0.9975905630143168, 0.9968822504624513, 0.9961375247163207, 0.9953169048865075, 0.9944004993387268, 0.9934002695321726, 0.9923712876247867, 0.9911978177213691, 0.9898870253190601, 0.9885618571431486, 0.9871539143000932, 0.985631572330146, 0.9840636536213804, 0.9825186804141751, 0.9807719000874929, 0.9789494084997216, 0.9770735156608704, 0.9750962906645926, 0.9730443102013054, 0.9709174436643461, 0.968715651556518, 0.9663682861827708, 0.9640257955466607, 0.9615083786411429, 0.95902185562266, 0.95645305358018, 0.9539192466724169, 0.9511759463005094, 0.9482360398039174, 0.9453664130607192, 0.9424193189588157, 0.9394894468125035, 0.9363800640103629, 0.9331641594277057, 0.9299242675628678, 0.9266153680800124, 0.923289800836474, 0.9198391644797009, 0.9162287845151782, 0.9126641638328057, 0.909031875828786, 0.9054329321547567, 0.9016568651660953, 0.8978613456105026, 0.8939648574972443, 0.8900135503715612, 0.8859595315209301, 0.8819057020925899, 0.8777537898510702, 0.8735935947475999, 0.8693767195692623, 0.8650788234944716, 0.8607559201642617, 0.8563500276924377, 0.8519241755326481, 0.8474456630942824, 0.8428776316231079, 0.838303721801804, 0.8337634775374513, 0.8290811071670081, 0.8243571971444446, 0.8195606637378804, 0.8147609092935877, 0.8100045768432507, 0.8051153873243246, 0.8001935049355925, 0.7951624959320907, 0.7901871124197822, 0.7851898413714135, 0.7801448669358715, 0.7750688859347422, 0.7698893693084955, 0.7647648492069945, 0.759641433962059, 0.754452761028871, 0.7492387218378098, 0.7440587229549626, 0.7387913109444033, 0.7335417453414143, 0.728235891732314, 0.7229166154786587, 0.7174883340732783, 0.7121569185162665, 0.7067739680203162, 0.7014164168764792, 0.696044189975866, 0.6907331579081347, 0.6853280528286145, 0.6799213073601637, 0.6745072534561201, 0.6690908734035887, 0.6636187127814878, 0.6582081195653782, 0.6528053376543248, 0.6473915224736638, 0.6419796838354707, 0.6365970201567933, 0.6311903322397829, 0.6257111247542892, 0.6203314273971889, 0.6149574511923858, 0.6096553187665571, 0.6042901483924599, 0.5989492821543185, 0.593613341414835, 0.5882948489444486, 0.5829402254938267, 0.5776666875874616, 0.572388207912369, 0.567154126300899, 0.5619393018797261, 0.5568449397422792, 0.5516607458891104, 0.546428863970965, 0.5413138920140954, 0.536225286747118, 0.5312254172961947, 0.5261857334342377, 0.5211186173401067, 0.516154603432858, 0.5112222282289145, 0.5063388062053452, 0.5014713778755613, 0.4966111875643581, 0.49182072824663525, 0.4870667765509043, 0.48238265350259724, 0.47770116857713063, 0.47306783994227997, 0.46846979195684496, 0.4639154053354756, 0.4593507724952955, 0.4548927665710172, 0.4505514019549532, 0.44617065985013116, 0.44183901324075786, 0.4375504564329509, 0.4333190940434537, 0.42902531281917705, 0.4249087789172762, 0.42083700899888293, 0.4169078184898188, 0.4129175195423732, 0.40889454248385443, 0.40502369323532106, 0.40120269470506237, 0.39749361964526747, 0.3937675751282079, 0.39008475797138653, 0.38647278517942674, 0.3829167332843879, 0.3794683848162307, 0.37601875891911823, 0.37258399037914464, 0.3692596256931467, 0.3659923796784703, 0.36274399124022355, 0.35959672776812335, 0.3565695028879208, 0.3535261892812237, 0.35054325283592697, 0.34757881137958446, 0.3447215915610243, 0.3417871384807884, 0.33906267516002436, 0.33638880226112644, 0.33387601402338984, 0.33129305920020313, 0.3288310973525035, 0.3263601887522361, 0.32395239412609705, 0.32153315568409063, 0.31925901747004237, 0.3170002281736563, 0.31484565801350234, 0.3127458999964739, 0.3106626748813476, 0.30867817174081635, 0.3067501189365581, 0.30487203385895845, 0.30311543971325744, 0.3013369656166407, 0.299616444337428, 0.2979404355720634, 0.2963356789875806, 0.2947510309118076, 0.29326115312117673, 0.29182372667036216, 0.29040636409621423, 0.28907708680871325, 0.2878071783454974, 0.28657599551736734, 0.2853947193849637, 0.2842790523041218, 0.28319441290946873, 0.28215290919590386, 0.28116756855360375, 0.2802301280964213, 0.27935280693425335, 0.27850761173845034, 0.27779260150472035, 0.27702930726207414, 0.2763157057184954, 0.275634229407882, 0.27501761784773665, 0.274397314573278, 0.27387464595702815, 0.27339148362621807, 0.2728507193412979, 0.2724566122933924, 0.27220045726778214, 0.2718567789891274, 0.27155087346135487, 0.27119813789240543, 0.2709751837886882, 0.27087536565492826, 0.27070017675521457, 0.2705593878796938, 0.27044211484458164, 0.27036764353081344, 0.27024948316800146, 0.2702437085228576, 0.27026185163080946, 0.2703355814043499, 0.27039604078272794, 0.2705127767130288, 0.27061656439188586, 0.27074449287624375, 0.27081183440280576, 0.2709950834486455, 0.27119429908556836, 0.2714090271179091, 0.2716387455764891, 0.2718925115400728, 0.27214918888903483, 0.272454837942463, 0.27273349024152244, 0.27302611032174856, 0.27327692834676187, 0.2736009742037812, 0.27392610628610253, 0.27426532653228236, 0.2746103296034592, 0.2750600381259031, 0.2754019039810728, 0.27575296465699617, 0.2761116311908305, 0.27647639038208993, 0.2767590393783592, 0.2771426877226048, 0.2775459106339657, 0.2779203100239632, 0.2782918817855432, 0.27872086329026324, 0.27907660933252926, 0.27932124345424325, 0.27968577024104185, 0.28003973861274223, 0.2803603365295595, 0.28069501869226404, 0.28111315941277565, 0.2814094831467103, 0.2816976398259314, 0.28194110781324316, 0.2822139247061437, 0.2825021344452664, 0.28274349343402944, 0.2829714610899743, 0.2830918872323761, 0.283302000220631, 0.28348749853650984, 0.2836551080296372, 0.2838008611973472, 0.28394384326116145, 0.284042812969493, 0.28426166991350665, 0.28429928973313173, 0.2843223830174817, 0.2842200673121889, 0.28422316884344895, 0.28418184311708006, 0.2841367145162591, 0.2840646076849977, 0.2839395945881893, 0.28381609882110687, 0.2837020264256341, 0.28351532361917803, 0.2833014970130521, 0.28309224888311535, 0.2828188343154321, 0.28248029284995174, 0.2821579774945091, 0.281805696050617, 0.28139750516020695, 0.28098783653013104, 0.2805814123292952, 0.28010306050197964, 0.2795945541033557, 0.27910055678254825, 0.278525111286256, 0.27789543957373297, 0.2772655982637441, 0.27660465118095745, 0.27583521373151665, 0.27512104553418426, 0.27441895081152107, 0.27362689037878196, 0.27280227121481704, 0.27202540665985575, 0.2711254683360771, 0.27010749065401163, 0.26916217316381735, 0.26818259101755293, 0.2671658150862294, 0.2661189535613264, 0.265054541858999, 0.2639387057398231, 0.26279072971538514, 0.2616075528453951, 0.2603961750419724, 0.25914333823477426, 0.2578697637288395, 0.256564286127929, 0.25524008281812016, 0.25387014927678786, 0.25241860345575773, 0.25099500496452276, 0.24953880667230924, 0.24808925179331187, 0.24656499564044418, 0.2449865525595217, 0.2434088731505078, 0.24180186307596643, 0.24027209121536508, 0.23859459311692569, 0.23679566978053407, 0.23508680126979428, 0.23334995302138525, 0.23167897012850003, 0.2298763449102577, 0.2280272057770788, 0.22618609604549691, 0.22432258318620651, 0.2224497735407861, 0.22054063562411214, 0.21855929945536626, 0.2166153710932454, 0.21464837996693248, 0.21256913919209247, 0.21056974497563663, 0.20857348361706676, 0.20652033771303985, 0.20444588780956507, 0.20244116763152484, 0.20031586678597194, 0.19814200374553817, 0.19599494476213702, 0.19383314958185527, 0.19171183789586993, 0.18951545436023656, 0.1872192393227692, 0.18501469889443167, 0.18279568265211876, 0.18060820510523445, 0.17835759572799664, 0.1761108629797264, 0.17384123910640709, 0.1715645050447521, 0.1693165009801058, 0.1670225858907968, 0.16471225147335705, 0.16241311319338228, 0.16011031032191142, 0.15773685503336332, 0.15543676154053995, 0.15311792865931853, 0.1508088052841114, 0.1484952627284438, 0.14624912591094633, 0.1439211512119238, 0.14155741069577563, 0.13924032128083685, 0.1369568699908679, 0.13463951838745716, 0.13232704250919664, 0.13000388098917784, 0.12770472304165825, 0.1254207505140094, 0.12313214994797426, 0.12085100278785041, 0.11860361566834163, 0.11633593061131424, 0.11409180956320246, 0.1118443261908416, 0.109609112748676, 0.10732546898668387, 0.1051236057991119, 0.10294137841234086, 0.10075921723351318, 0.09858941103054299, 0.09637810718991703, 0.09424221297512636, 0.0921564122744913, 0.09003984855050783, 0.08793918233328293, 0.08586152086025498, 0.0837938523395288, 0.08167049924214988, 0.07964917170343704, 0.07764300793252503, 0.07572381560936584, 0.07374229638726638, 0.07171872670074866, 0.06979006608664948, 0.06788061926983728, 0.06604904694197557, 0.0641731138656074, 0.06228014436154452, 0.06045914622179798, 0.05866090852927623, 0.05686346865171463, 0.05511515088977304, 0.05341552212708022, 0.05171052816537, 0.050031125723754954, 0.048348697861494476, 0.04672502525951063, 0.045148668712107654, 0.04357228064052568, 0.04202289864458856, 0.04051037867939013, 0.03901442235038051, 0.037546614805629236, 0.036107049504356566, 0.034695815611134155, 0.03330657084114943, 0.031953060018927726, 0.030540996757208925, 0.02925498751771191, 0.027992538113179786, 0.026892608902445197, 0.025662072946750464, 0.024516337960387425, 0.023345481781674175, 0.022209770403287265, 0.021040833869330977, 0.019981373678101492, 0.018986237960782755, 0.01798018735988392, 0.017004947442163628, 0.01600553576289457, 0.015097790845608297, 0.014207182950584495, 0.013354384344898608, 0.012528135467558207, 0.011786462001454332, 0.01100651781969178, 0.010224677437392235, 0.009508878640143189, 0.008820755130286038, 0.008195565358192486, 0.007558044615056309, 0.006917741692162822, 0.006342569642154051, 0.005794133743761555, 0.0051823412251282815, 0.004698375462703065, 0.00432244186764868, 0.0038706017572527128, 0.00344589674673697, 0.0030447623069439415, 0.0026736778524362637, 0.0023349137224786963, 0.002014470205027108, 0.0017196062742895891, 0.0013824425648282838, 0.0011460694139329834, 0.0009592054859221804, 0.0007604920405787054, 0.0005841958067784674, 0.0005072073679953647, 0.00036527875730836556, 0.0001464974558755647, 6.858721847863236e-05, 9.074908436170762e-06, 4.186659389689611e-05, 9.74628735920063e-06, 0.0, 1.1872806927095557e-05, 4.4639626070131255e-05, 6.22557256392087e-05, 0.0001392088511028895, 0.00021698027848673812, 0.000329384800999719, 0.0004570546149756486, 0.000680066871121155, 0.0008273119774987018, 0.0008392340008172028, 0.0010428258219460707, 0.0012547601001183283, 0.001600716180219809, 0.0018144629032977632, 0.0021054060203496623, 0.002342781179347683, 0.0025978949227230897, 0.002866193950667876, 0.0031532713587298367, 0.003460604922071261, 0.0037734880953360092, 0.004098551354355115, 0.004283812008705762, 0.004649523790043306, 0.005131933379285971, 0.005485485668597156, 0.00584730371705347, 0.006207048877083186, 0.006584551243899495, 0.007003116138954163, 0.007387042512442792, 0.00777760357699617, 0.008129014543957909, 0.008536183682784734, 0.008996614063583295, 0.009400667537987488, 0.009808820852218179, 0.010249249025110794, 0.01065975411815603, 0.011067446355896654, 0.011485132204201215, 0.01190441367978461, 0.012289253285479506, 0.012714165686961328, 0.01328134317269161, 0.013683017601757755, 0.014089896842427575, 0.014410555091808473, 0.014835003689459175, 0.01533278311464319, 0.015739562639456535, 0.01614621571366115, 0.016571091763543253, 0.0169723527462247, 0.01735918559833996, 0.01775808079595145, 0.018153082606382015, 0.01865286796752587, 0.019024598872145745, 0.019335952159680186, 0.019715453001594777, 0.020089752669271703, 0.020535446910993353, 0.020888083332150708, 0.021183826380680792, 0.02153785717326729, 0.02188471919922855, 0.022365488542138632, 0.02267925100495964, 0.02297048349148655, 0.023285688025344555, 0.023597108996870973, 0.023897499704669877, 0.024199823086782753, 0.024601921141797684, 0.02487785666852056, 0.02515265496599594, 0.025486214748149067, 0.025747725443550463, 0.025986059383714274, 0.0262478595697859, 0.02650552237032715, 0.026768028929397242, 0.027014346688029354, 0.02722974663832657, 0.027468491606438352, 0.027699879521011075, 0.02793996793796434, 0.028154634803100778, 0.028404740625221962, 0.028601455871515826, 0.028794228753852832, 0.029011737279514983, 0.0291923246745472, 0.029498635114448158, 0.02965709711946175, 0.029822753529999114, 0.029987648730546594, 0.030154658119059603, 0.03037120941072045, 0.030534200454676703, 0.030642328723192065, 0.03081786847844417, 0.03099186790696089, 0.031148319969688955, 0.03132152283098704, 0.031608355250358135, 0.03176321856678374, 0.03192333156606176, 0.032052869538241574, 0.03222665774415637, 0.03240268668374751, 0.032581143165040266, 0.03276227935564833, 0.032997818175072996, 0.03317879383290622, 0.03335355753897844, 0.03354947242952654, 0.03375145575751493, 0.033946950607658836, 0.034163639634472255, 0.034325669190957045, 0.034563409015692964, 0.03480522867498048, 0.03507791411436293, 0.03532783798266507, 0.035637808607672114, 0.03589925176849151, 0.03617371061485392, 0.03639724194486729, 0.03670687068232479, 0.03707841691102514, 0.03740351125459613, 0.03774387700582087, 0.03821567488347911, 0.03857342603600154, 0.038841990102182936, 0.039260136923865666, 0.03969461963813804, 0.04022975903465655, 0.04068866989909971, 0.04117091689217899, 0.041676590847403744, 0.04220586189620125, 0.0427268381831465, 0.04330815376560102, 0.04389931775306994, 0.04452833220256078, 0.04518068041434597, 0.0458185993483177, 0.04652487619349296, 0.04732860531500337, 0.04807372180094025, 0.04884867224213466, 0.04963459037427676, 0.0504729236631214, 0.05129315478459894, 0.052198442295018764, 0.05313245706883153, 0.054083406577884706, 0.055079637166327244, 0.056222600732396794, 0.05726734916788313, 0.058351668181435425, 0.05940166519445373, 0.06057458499178059, 0.06179603634332139, 0.0630394944093043, 0.06432094405528485, 0.0656442596888414, 0.06700326243734805, 0.06840239874462878, 0.0698422813137073, 0.07132351763973016, 0.0728756291749187, 0.07443771486382816, 0.07599957569757938, 0.07765722013250874, 0.0793578171370213, 0.08108604665185194, 0.0828767885962194, 0.08476635541373176, 0.08663937439000997, 0.08856118835388914, 0.09049028895220194, 0.09251578544540026, 0.09465284007465541, 0.09676543641512579, 0.09893018171341347, 0.10114713646814627, 0.1034163952449165, 0.10565774876834899, 0.10804216769021083, 0.11047482148284977, 0.11295975292636541, 0.1154908908234519, 0.1181177200498745, 0.12074519364138231, 0.12342707264183536, 0.1261345889813021, 0.128929389725172, 0.1317742103863004, 0.1346762603073931, 0.13763208142400635, 0.1405681019210881, 0.14364177779910858, 0.14685594859568663, 0.15002011970516768, 0.15324141153803594, 0.15651651365378413, 0.1598521630024204, 0.16324446314905014, 0.16669334128253763, 0.17019871775610984, 0.17377335828659596, 0.17738983481070325, 0.1809925477724608, 0.18473160051022616, 0.18852317458462534, 0.19233548375491183, 0.19623713011657648, 0.20021923830124827, 0.20422071038046868, 0.20827605218251796, 0.21240131954162272, 0.21656228783277448, 0.22080034376476698, 0.22506737854285008, 0.2293896888831401, 0.23370571455302777, 0.23814477299395873, 0.2426662885600163, 0.247201909211797, 0.25178954558230854, 0.25649626937813297, 0.2611781571875118, 0.26588884536740165, 0.27068197642657477, 0.27552617540794083, 0.2803596596858085, 0.2853115328613299, 0.2902606799238126, 0.29530937128372264, 0.3004003240595312, 0.30562998463514884, 0.31079331181936815, 0.3158981175611317, 0.3211688808258028, 0.3264792138657687, 0.33187719280504213, 0.3372601059030167, 0.3427167805564868, 0.3481781160058413, 0.353681315100701, 0.35922529959469496, 0.36480900101310826, 0.37041850535094195, 0.37608008933072506, 0.38177750236846464, 0.38751943935154876, 0.39328444471375046, 0.39913436271092195, 0.40495880904354753, 0.41081752294419427, 0.4166254822490228, 0.42255891382342664, 0.4285047785159487, 0.43448972762766797, 0.44049782860441256, 0.4464705633045091, 0.4525301870855169, 0.4586075098148809, 0.46470215477257376, 0.4708136410240367, 0.47692853924093237, 0.4830735182372172, 0.4892551296722737, 0.4954248328979245, 0.5016084392313243, 0.507734216005585, 0.5139514057713463, 0.5201592240136658, 0.5263912497183072, 0.5326277960766868, 0.5389485464472428, 0.5451819303659914, 0.5513803372472278, 0.5576310344011831, 0.563883071604016, 0.5701513094395038, 0.5764003449504522, 0.5825997111020325, 0.5888504802999405, 0.5950942263088442, 0.6014102376953738, 0.6076265962903058, 0.6137407602751277, 0.619955890404623, 0.6261562067411413, 0.632340743368814, 0.638508476277903, 0.6446840363817903, 0.6508116391911211, 0.6568658964113285, 0.6629615641560312, 0.6690326349470194, 0.6750813489551162, 0.6810998435621126, 0.6871647455033947, 0.6931177491828834, 0.6990450700518981, 0.7049577549315537, 0.7108267145997526, 0.7166429437936485, 0.7224525006832091, 0.7282270665656413, 0.7339330191788765, 0.7396372218424596, 0.7452102587323844, 0.750842286884723, 0.7564257315469374, 0.7619504894084086, 0.7674364982908431, 0.7729038438512037, 0.7782835499631586, 0.7836128917044731, 0.7888843920341745, 0.7941106391180618, 0.799215453219058, 0.8043412584455135, 0.8094071682113781, 0.8145250863957403, 0.81945521936433, 0.8243105738729045, 0.8291304725283585, 0.8338905017391234, 0.8385282071893451, 0.843172048293923, 0.8477260016973464, 0.8522370906563886, 0.8566778803905055, 0.8610798267098483, 0.865373882709709, 0.8695812294948303, 0.873734993845068, 0.877815148024526, 0.881856151270367, 0.8857819518775304, 0.8896045403094968, 0.893384243244186, 0.8970857331423322, 0.9007274345523778, 0.9042675052356506, 0.9076411528253971, 0.911031892261473, 0.9143361860469257, 0.9175249061109816, 0.9206592870028973, 0.9237112487741448, 0.9266670126152674, 0.9295340049928168, 0.9323665758370071, 0.9350482526398354, 0.937688278157185, 0.940190187063142, 0.942606411250015, 0.9448683796571725, 0.9471185739096974, 0.9491830769206849, 0.9512597257552079, 0.9532380061843484, 0.9551729814736356, 0.9569488429277981, 0.9587011586733383, 0.9602793782293022, 0.9617668742701955, 0.9630471773720125, 0.9643655596201997, 0.9656135037686157, 0.9667298733919167, 0.9677491782808115, 0.9687550013223739, 0.9695697186701504, 0.9702600264049083, 0.9708936157316772, 0.9714319385468375, 0.9718073085054841, 0.9721630566546928, 0.9724610425734396, 0.9726129097402411, 0.9726685039359623, 0.9726729032306588, 0.9725305659774502, 0.9722851983279793, 0.9719571127377411, 0.9715347965405142, 0.9709700837847635, 0.9703655574361133, 0.9696386539826988, 0.968844616209349, 0.9679536237383465, 0.9669407577525185, 0.965861447766203, 0.9647792298606988, 0.9634968932389246, 0.9621255455215147, 0.9605528530229279, 0.9590181698435343, 0.9573759128335304, 0.9556546469673626, 0.9538403516282647, 0.9519856757117202, 0.9499824761794717, 0.9479569572959295, 0.9457731493172631, 0.943507759848475, 0.9411128028072835, 0.9386910714152338, 0.9360991867018693, 0.9335224785711266, 0.9308592112554032, 0.9281430987929837, 0.9253073275693711, 0.9224684751108356, 0.9194637029323841, 0.9163853510222131, 0.9131054018075305, 0.9098977595365918, 0.9066817754025147, 0.9033088773457124, 0.8998643467861919, 0.8962817580843884, 0.8927056736876313, 0.889092730233903, 0.8853694144291887, 0.8815791245944196, 0.8777102792323244, 0.8737914796772379, 0.8698827020980802, 0.865828164376032, 0.8617166304919036, 0.8575424385883583, 0.8533200885370479, 0.8490139587424654, 0.8446865542965446, 0.8403047328217486, 0.8357894952284597, 0.8313130098819248, 0.8268426883638262, 0.8222507189654888, 0.8176112445047863, 0.8129802826510826, 0.8082430709365812, 0.803385278215386, 0.7985786968227487, 0.7937293581114869, 0.7888807653227952, 0.7839457905134851, 0.77901085221471, 0.7740021016001373, 0.7689626714653055, 0.7638711366263069, 0.758776447619702, 0.7535921190543221, 0.7484493662445981, 0.7432773956159078, 0.7380684762746367, 0.732844966436659, 0.7276229869832909, 0.7223497248619961, 0.7170573823049131, 0.7117571520985614, 0.7064300744734414, 0.7010922885695028, 0.6957383978882338, 0.6903736369427903, 0.6849704923970994, 0.6795918674191067, 0.6741760493639033, 0.6687861722354644, 0.6633896435569665, 0.6579882738529554, 0.6525838177997723, 0.6472390317843203, 0.6418257468651488, 0.6364177749244033, 0.6309005190237236, 0.6255210699275136, 0.6202626490157273, 0.6148745122595727, 0.6094992304227811, 0.6040316897508538, 0.5986983361082419, 0.5934293875283063, 0.5881105519310492, 0.5828082116846756, 0.577507567457989, 0.5722440344293037, 0.566932367445385, 0.5617174043902927, 0.5565206608554243, 0.5513825222295359, 0.5462227224363083, 0.5410403008306837, 0.535938999075975, 0.5309626420532524, 0.5259009736072544, 0.5208732753911282, 0.5157644770760756, 0.5108212033063423, 0.5059683756958845, 0.5010777873115897, 0.4962231585027688, 0.49146648420224304, 0.48667886018694734, 0.4818594796274087, 0.4771658892610381, 0.47251112128496014, 0.4679123020912603, 0.46333628305643226, 0.4588255313920953, 0.45433302242766277, 0.4498861398034403, 0.44545011881478086, 0.44110070407183294, 0.4367291977353288, 0.4324799522509669, 0.4282739891781346, 0.42418653783239313, 0.4200616592319119, 0.41591396635848255, 0.41190105278658257, 0.40793594679837075, 0.40409677785665354, 0.40022048059109644, 0.3963508990204386, 0.39259067877206044, 0.388882981344286, 0.3852540669951128, 0.38164978145992845, 0.37803029781277814, 0.37454615944878783, 0.3711139740357682, 0.3677184353795872, 0.3643943830754369, 0.361158759803126, 0.35793705513554264, 0.35477163573386583, 0.3516787736488052, 0.3486244730944595, 0.34560216115357034, 0.3426664727323784, 0.3397869643263311, 0.33706018230858314, 0.33428124508580553, 0.3314742447371619, 0.3288297579758271, 0.326240702945232, 0.3237714389168435, 0.32128535759733, 0.31885846694079695, 0.3164902212251607, 0.3141801023433258, 0.31190512213760857, 0.3097126350552455, 0.30748560788148166, 0.30541509339722395, 0.3033944103043629, 0.3014368366432905, 0.2995153599616474, 0.29761648189261297, 0.29580172708170177, 0.29403685434120974, 0.2924280288659902, 0.2907498018081683, 0.28904076740142476, 0.28748444316003235, 0.2859772968891477, 0.2845801774462622, 0.2831629973099973, 0.28181049284329845, 0.2804944769186611, 0.2792293094645415, 0.27793051436799204, 0.27677484100375843, 0.27564975171963035, 0.2745823806291572, 0.273557261433439, 0.27255810081424103, 0.27161876539822777, 0.27076809222145237, 0.2699032943414943, 0.2690810073108684, 0.2682682832613412, 0.26753262655290405, 0.26683199038834915, 0.26617262300567723, 0.2655500995248605, 0.26503447727636814, 0.26447476052586144, 0.2639088571088806, 0.2634311258129719, 0.2629871095029887, 0.2625952313215131, 0.2622136281406976, 0.2617646129090603, 0.2614589692986861, 0.2611778748462482, 0.26098216950612724, 0.2607417254854849, 0.2604897985113572, 0.26030743677899887, 0.26014808978415704, 0.2601010854291132, 0.25997441636905727, 0.2597998522881797, 0.2597330724426793, 0.2596852618031489, 0.2597070668459988, 0.2596883720328984, 0.25963775466657485, 0.25966330232897183, 0.2597030134893863, 0.2598236120827697, 0.2598808313177565, 0.25985085065195046, 0.25995097261186817, 0.2600583029009565, 0.2602559675555109, 0.2603658341022265, 0.2605022403852188, 0.260629779034602, 0.26076625133137327, 0.260826824695599, 0.260987922438753, 0.26117205679099714, 0.2613309319424267, 0.26149064088491747, 0.26167937993301454, 0.26183492020310917, 0.2620357077933887, 0.2621851047931006, 0.2623353588066135, 0.262475541400762, 0.2626249311827826, 0.26270991815982364, 0.26285930576678984, 0.2629999170323606, 0.2631505847722901, 0.2632698411446972, 0.2633157289781453, 0.26342424385594354, 0.2635187292299558, 0.2636022625530587, 0.2636678171470704, 0.2636675350647419, 0.2637104273865847, 0.2637353438564738, 0.26383871526718145, 0.26381550877226984, 0.2637346230343754, 0.26369077222044, 0.26362985584430243, 0.26364135010975814, 0.263533433559089, 0.26328989757745924, 0.263169170075537, 0.2630257237577639, 0.2628562828583423, 0.2626675756238342, 0.2625649141487956, 0.26231583442267364, 0.2620493610502171, 0.26174192652349176, 0.2614403773797727, 0.261130067541058, 0.2607830244623242, 0.2604138571749144, 0.2598933861276375, 0.2594943376108707, 0.25919270976961245, 0.2587157319318905, 0.25821586580222705, 0.2576731909744835, 0.2571281295604901, 0.2565059542061353, 0.25591568814100385, 0.2552962623819906, 0.2546221451701611, 0.25394815324539255, 0.2532857959866848, 0.2525465736076473, 0.2517801764449421, 0.25100259500947125, 0.25017960373773945, 0.24927553030816738, 0.24840637499908166, 0.2475074114888059, 0.2466785947017098, 0.24570842163982323, 0.24461858724649854, 0.2436135574705238, 0.24257889837450727, 0.2415632274816285, 0.24046444575167705, 0.23933992747486166, 0.23818964467573103, 0.23701360475115635, 0.23570902238106342, 0.2344946228229757, 0.2332681897571028, 0.231989681811733, 0.2307856049097868, 0.22943796425325763, 0.22806897649369412, 0.2265723602768519, 0.22517343264778056, 0.22374026739365635, 0.2222873428473757, 0.22080782306002383, 0.21929926751601528, 0.21776923806545562, 0.2162821050859402, 0.2146950609424497, 0.21308855621394812, 0.21141768704463532, 0.2097782409602542, 0.208191093329653, 0.20649965587568622, 0.20479188737547668, 0.2030484678731555, 0.20131042388042303, 0.19954540837412293, 0.1977742258052648, 0.19598581623119257, 0.1942095483803768, 0.19238439451042508, 0.1905643206660773, 0.1887086007969823, 0.1868403507186285, 0.18482802639953705, 0.18295203489063103, 0.18111793999741901, 0.17919732895369836, 0.17726372270998467, 0.17532751104474267, 0.1733689322400415, 0.1713519118422632, 0.16937958104168668, 0.16739557850453382, 0.16542984931864224, 0.16342187470364522, 0.16146784144311288, 0.15943858762405125, 0.15740696969229181, 0.1553024567115726, 0.153275591081386, 0.15127839002251098, 0.14923657498610232, 0.14719279960311887, 0.14515724758942197, 0.14310997512347823, 0.14100510699842814, 0.1389661311548537, 0.136925161031469, 0.13484462849690973, 0.132807474906073, 0.13085897897662727, 0.12880899661373596, 0.12676503065246691, 0.12466634356620288, 0.12264310573929074, 0.12067811633260593, 0.11865610174757572, 0.11664250682454025, 0.11458307551640577, 0.11259435842529843, 0.11063465923818867, 0.10865701188490565, 0.1066888394402342, 0.10471468054285976, 0.10276929277521026, 0.10081176454253367, 0.09889062523660583, 0.09697994722853921, 0.09512875775648055, 0.09323534486947818, 0.09140564710265743, 0.08953748487284867, 0.08768818423626505, 0.08577414967396035, 0.08397304467887037, 0.08218612944962231, 0.08041417868085174, 0.07865792300265638, 0.07692126537914075, 0.07519802440008681, 0.07357616229664489, 0.07187858089827606, 0.07020460878103942, 0.06843518643272972, 0.06682302359102557, 0.06531743968485551, 0.06372805900755091, 0.06216214736579314, 0.060655124008147356, 0.059131923612514695, 0.057557343017561255, 0.05609522221132881, 0.05465426221050345, 0.053183612243594275, 0.05179312140420112, 0.0504160490461579, 0.04906692356548296, 0.0477389227085776, 0.04645207746676225, 0.045166063191249085, 0.043981400133606026, 0.04273447895375062, 0.04151683777674586, 0.04026067912130583, 0.03910921811515172, 0.038004910259824, 0.03690026083182709, 0.0358221659414978, 0.0348092648583017, 0.03377963087430407, 0.032750000435335914, 0.03178160579266313, 0.030840010989915057, 0.029922022285740455, 0.029034483596523157, 0.028167170458791805, 0.027333767405394067, 0.0265266805851532, 0.025697755226593556, 0.02494951075172894, 0.024327781597572755, 0.02361429188862842, 0.022930952015260252, 0.02226754868837717, 0.021644055348970317, 0.020948976520693583, 0.020393764053395422, 0.019860274197332915, 0.019390754086725012, 0.01889676679280301, 0.018408746244191265, 0.017967598932107073, 0.017550411876820552, 0.01714756563598016, 0.016779540358072654, 0.016393108409945758, 0.01607708688652922, 0.015782025285240794, 0.01561099690777191, 0.015345520333513954, 0.01501732374962692, 0.014816942906390813, 0.0146372397243212, 0.014622837975103721, 0.014466229030029643, 0.01420016229807256, 0.014117172422711207, 0.014052686546318378, 0.01401316053363835, 0.013984904832722156, 0.01405256696562457, 0.014051989851987502, 0.014074171548286525, 0.014092555280770093, 0.014161003710645, 0.014216228225020097, 0.014326048560123022, 0.014451966147820076, 0.014677295156238944, 0.014824123801748045, 0.014852799566376886, 0.01505616729641641, 0.015269923784576925, 0.01557787750976286, 0.015802549283844468, 0.01598499638737411, 0.01624756782144311, 0.016521240833673286, 0.016780167330362063, 0.01707882702205628, 0.017335185707353123, 0.01765852031106622, 0.01798792534683168, 0.018381495968128964, 0.018716398132906875, 0.019096448293074806, 0.019446012726532794, 0.019806407078696884, 0.02027968004681082, 0.020646428860693605, 0.02092148841215099, 0.021328818927029588, 0.021741621858605824, 0.02215624904091442, 0.022579095807567978, 0.022954509362341953, 0.023391400427486626, 0.02382854954962214, 0.024413758277392672, 0.024832647978190698, 0.025269543019140552, 0.025702601766324006, 0.026141991165514904, 0.026519021373610906, 0.026976073769308013, 0.0274259044273067, 0.027881785285774178, 0.028287530032701385, 0.02874530362361648, 0.029197777623181407, 0.02969642249841542, 0.030131920771700675, 0.03057789039393541, 0.031006513513501744, 0.03143252045635829, 0.03189391409662522, 0.03230817038220067, 0.03267539865565597, 0.03309046996133927, 0.033499455832309864, 0.03397594978635213, 0.034362487701736374, 0.03479757964093006, 0.0351710094840809, 0.03554276642201276, 0.03579923399626224, 0.036178530664852986, 0.036582077700319654, 0.03693478535051166, 0.03727849963158005, 0.03755512039472135, 0.03788739386150853, 0.038322367583495304, 0.03861430107301714, 0.03890019024691933, 0.03912463612733999, 0.0394031041791653, 0.03981497243598633, 0.040052642389103305, 0.04028699914895335, 0.04048464111663901, 0.04071277882876908, 0.04098384339216273, 0.04118790720731999, 0.04138524780960445, 0.04153322945632562, 0.04171993356966792, 0.04186318623084877, 0.04203110498344497, 0.042185522056322325, 0.042432605417441885, 0.0425470004677566, 0.042699225518749634, 0.0427929040997234, 0.04288062767986941, 0.042977591437615044, 0.04304889263584488, 0.043035793277366244, 0.043101643945615276, 0.04315471991821314, 0.0432402026236897, 0.04326264052851085, 0.043391133721508886, 0.04337956860073316, 0.04336466868987397, 0.0433551193432992, 0.04332962691790832, 0.04333107347866083, 0.043290531291997426, 0.04324552736086209, 0.043121538113120444, 0.043075236525612355, 0.0431538190181173, 0.04307064036939892, 0.042985657251220125, 0.042846750585695995, 0.04276269183179107, 0.04264334233032579, 0.04255031253046917, 0.042449573897865876, 0.0424154859281339, 0.0422913601229736, 0.042267902377203584, 0.042126357850579825, 0.04198830572116185, 0.04182405524341164, 0.04169450050097671, 0.04156177822115992, 0.04143263902654456, 0.041303293332180115, 0.04119956626397897, 0.041066983144389634, 0.04095868725437725, 0.040826946989867836, 0.04069853455112209, 0.04064420039088892, 0.040513758695809886, 0.040339604912438966, 0.04023077084280671, 0.040126289295416916, 0.040113277861232526, 0.040007655775974364, 0.039922112738805006, 0.03983594249739967, 0.03976045719394865, 0.039673105450030735, 0.03962176426829938, 0.039660306927006686, 0.03961831436205072, 0.039591239754101525, 0.03949860397174323, 0.03951120219221908, 0.03955660719756603, 0.039587805813920775, 0.0396322174622305, 0.039806161464589325, 0.039864314945204336, 0.03987346289837286, 0.03998369500630294, 0.04011130591200713, 0.04029221727097962, 0.04045187310111493, 0.040600571830797585, 0.04080701288698668, 0.041033620886236764, 0.041313258155578424, 0.041578333671281935, 0.041835458230431666, 0.04215345164983044, 0.0424948398220302, 0.04287650260889714, 0.043265082238096324, 0.04373179107721903, 0.04416796551359256, 0.04463507553433465, 0.04508197202901492, 0.045618301040344145, 0.04627360501117409, 0.04685738757843645, 0.0474768588305356, 0.04813852114820406, 0.04882886131460552, 0.04951714024262262, 0.0502855822914163, 0.051088877080020696, 0.05191803553250415, 0.05279421427184145, 0.053790222446188925, 0.054729147661134535, 0.05571052324381454, 0.05671833729679817, 0.05778688290179112, 0.058858794284748335, 0.06001644631456156, 0.06121465351611966, 0.06246059486680882, 0.06374134250870993, 0.06506200610422479, 0.06643007477227585, 0.0678423956272246, 0.06926428497060216, 0.0707715533944349, 0.0723358888451251, 0.07393086279570457, 0.07557252764778456, 0.07725515888130853, 0.07899309295238191, 0.08074081078743701, 0.08258097075217131, 0.08446860307377516, 0.08642710810511453, 0.08840949365351418, 0.09043028048607896, 0.09251733507539885, 0.09465596049633893, 0.0968981458589821, 0.09913509965543975, 0.1014056245475724, 0.10375759902260825, 0.10616448965569712, 0.10864905170305655