0.02478388407547189, 0.02467777665293962, 0.024620585708855596, 0.024612793420550644, 0.024632421086112067, 0.024685117314656314, 0.024761691211693998, 0.02486066183177948, 0.024972196958965274, 0.025106996587785018, 0.025291318373213863, 0.02544610194966362, 0.02561263199082874, 0.02574349620194926, 0.02593497053752653, 0.02612974940238991, 0.026332041965830316, 0.026539174270464254, 0.026714904201297945, 0.02693647337399271, 0.027200710959076734, 0.027424344996436787, 0.02765470489216883, 0.027885773042490618, 0.028131595277352015, 0.0283499014851597, 0.028616100281191048, 0.02888917466037715, 0.029160423627244577, 0.029451126307552776, 0.029769970534561017, 0.030077029020410238, 0.030395851807385688, 0.03071216638359451, 0.03105835759046371, 0.0313757983551777, 0.031753643623064196, 0.032143392369075374, 0.03253322891111226, 0.03295127180818498, 0.033413085803124555, 0.033856055534937826, 0.034316299553740805, 0.03475059949377078, 0.03525240412493932, 0.035797118837277486, 0.03632883057928863, 0.03687977991649987, 0.037387490361931654, 0.037986168395692625, 0.03865619016197575, 0.03928278605700541, 0.0399310719342365, 0.0405565515890576, 0.04125474980382085, 0.04194098616987209, 0.042683921845979904, 0.04344630811857702, 0.044232142681956625, 0.04503535207561313, 0.045849723881013625, 0.04669852326156653, 0.04756968411554291, 0.04844353685758849, 0.04936371476529581, 0.05033982573719166, 0.05130221296444711, 0.052290561605941886, 0.053264631959580096, 0.05431087401981934, 0.05540510518807251, 0.05649804040109572, 0.057617986924091896, 0.05872689456532985, 0.059906731828469006, 0.061093232917138376, 0.06232784864271284, 0.06358847206857854, 0.06486728278397065, 0.06618308175342623, 0.06750186758364277, 0.06887643874329534, 0.07027838884463992, 0.07172553666998532, 0.0731822970301658, 0.07465136243306246, 0.07617174227395711, 0.07772243250495038, 0.07930719018311995, 0.08091973253772375, 0.08251954030375211, 0.08420228465394623, 0.0859154064882842, 0.08768844361096881, 0.0894608508704651, 0.09125983619326684, 0.09310161319958239, 0.09497767637616122, 0.09688305948363529, 0.09882944427739214, 0.10078845424485425, 0.10280805749437572, 0.10486209667496672, 0.10693825983298755, 0.10906420219139393, 0.11117827474066798, 0.11338072725591848, 0.11561650092356399, 0.11786289969660169, 0.12017049171336226, 0.1225100032686176, 0.12488669083145197, 0.1272986659680669, 0.12972303914723488, 0.13221019521254065, 0.13476587791724026, 0.13732034670521842, 0.13991317214271493, 0.1425338295801307, 0.1452051024902049, 0.14790912564788727, 0.15065737359102965, 0.15344364183749123, 0.15623071758661544, 0.15909804416888781, 0.16200366001719932, 0.16494334347004516, 0.16791986541574605, 0.17093233177284362, 0.17398313048193098, 0.17704761226882273, 0.18017570268772548, 0.1833236581446373, 0.18652564007873473, 0.18976282069831557, 0.19306415648856087, 0.1963685200623234, 0.19968334028094167, 0.2030650622344656, 0.20648189220489782, 0.20991989518368376, 0.21340843383386757, 0.21691389372820433, 0.22047247253269278, 0.22406385940031823, 0.2276602864436203, 0.23132061227313966, 0.2350140278752536, 0.23873601794056373, 0.24248905174609067, 0.24625486387720893, 0.2500718089224283, 0.2539661877617846, 0.25783580475796314, 0.2617371940591055, 0.2656067804022455, 0.269577692431237, 0.27357805879597064, 0.27760091080189414, 0.2816497980864407, 0.2857627899132321, 0.2898578768504646, 0.29394377705771446, 0.29809681388721326, 0.3022733315792313, 0.30643978115812254, 0.3106659292747995, 0.3149313109714313, 0.31919477423942133, 0.32347862005535316, 0.32778223717354676, 0.3321049801290105, 0.33643230874061064, 0.3407929963254547, 0.34516991603619657, 0.34958374986652574, 0.3539884623588616, 0.35840855887773543, 0.3628431208526826, 0.36729122264810826, 0.37173273647950594, 0.3762075404760442, 0.3806983874793981, 0.38519087323075096, 0.3896917400619521, 0.3941489011150153, 0.39867028747355265, 0.40324669029793886, 0.40776646214263623, 0.4122907986406738, 0.41678023325438246, 0.4213153235524547, 0.42583999383508603, 0.4303738803336348, 0.4349048202214751, 0.4394405717164415, 0.44396217731181464, 0.44845327606475177, 0.45296733072840756, 0.45747309047840723, 0.4619676213017099, 0.46645461164559304, 0.470938116061813, 0.47540135287450447, 0.479852205762727, 0.48431736524719965, 0.4887368156016931, 0.49308894878938586, 0.4974858308228092, 0.5018631042413496, 0.5062604293302215, 0.5105907306467671, 0.5148913887904221, 0.5191815101820708, 0.5234484532624728, 0.5276504900218485, 0.5318725857950416, 0.5361072045620205, 0.5402650305414309, 0.5443943291061146, 0.5484415607060644, 0.5525165644724189, 0.5565605481243151, 0.560563606294293, 0.564529906104016, 0.5684979554770957, 0.5723828742333832, 0.5762377848967081, 0.5800454732064753, 0.5838134472576265, 0.5874795629496946, 0.5911717432767677, 0.5948423930790074, 0.5984362945320941, 0.6019828812844341, 0.6054778830459236, 0.6089270286039051, 0.6123414552378985, 0.6156860987769861, 0.61897882431768, 0.62222165145794, 0.6254066152946924, 0.6285331553819079, 0.6316069218346, 0.6346229991325716, 0.6375621720197574, 0.640461920520357, 0.6432720264987698, 0.6460505575300601, 0.6487638329197549, 0.6514175817350596, 0.6539975032145401, 0.6565019164230239, 0.6589481775154016, 0.661325405645713, 0.6636392712014997, 0.665875430018288, 0.668032171960638, 0.6701268371842382, 0.6721485411110242, 0.6740869657237822, 0.6759617995602986, 0.6777524440855639, 0.6794764048671795, 0.6811229551062551, 0.6827309824784038, 0.6842160097716008, 0.6856017259041624, 0.6869348583013424, 0.6881880742380589, 0.6893586126269292, 0.6904503986185171, 0.6914656511721231, 0.6923924785951776, 0.6932366518291722, 0.6940114768755354, 0.6946869436335048, 0.695274676568664, 0.6957831579316294, 0.6962067963547288, 0.6964960646735049, 0.6967548362780583, 0.6969321623257217, 0.6970121934324709, 0.6970037655084744, 0.6969356084055027, 0.6967464330907296, 0.6964808932720831, 0.6961160276168277, 0.6956641993065619, 0.6951123149493824, 0.6944873365820677, 0.6937717942293437, 0.6929701659104125, 0.6920799022110908, 0.691053034879988, 0.6899916552032054, 0.6888572187561286, 0.6876116649886592, 0.686276902014566, 0.6848809655465194, 0.6833652140914624, 0.6817051772324834, 0.680023423696483, 0.6782520127117169, 0.6764321286410614, 0.6744782445282005, 0.6724218493229308, 0.6702995209692191, 0.6680914134381919, 0.6658150928555744, 0.6634347986119448, 0.6609680496490971, 0.6584220729299435, 0.6557935476690548, 0.6530435427302617, 0.6502565199877425, 0.6473874780652973, 0.6444350913287287, 0.6414015556042041, 0.6383304493560685, 0.6351319898917038, 0.6318116911772873, 0.6284676501665274, 0.6250462789116996, 0.6215518317118419, 0.6179785608136947, 0.6143728969636374, 0.6106474393831156, 0.6068524177106869, 0.6029341702461568, 0.5990091257202242, 0.5950084674641549, 0.5909448500034991, 0.5868132760112493, 0.5826577472117573, 0.5783888957785346, 0.5739934470202349, 0.5696107137484916, 0.5651925252737626, 0.5606815147449425, 0.5561120351446404, 0.551479007512666, 0.5467973662624529, 0.5420438210490948, 0.5372560548261303, 0.5324152959600504, 0.5275550855018073, 0.5226089334765419, 0.5175874113416487, 0.5125530148239159, 0.5074729928400866, 0.502377695171938, 0.4972074498513619, 0.4919573358764781, 0.48671484508225654, 0.48143340765323744, 0.47613818941970876, 0.47078099309119414, 0.4654083037355861, 0.45998531947161764, 0.45453371324222847, 0.4490751197681465, 0.4435678579480699, 0.4379861335236936, 0.43244008875188517, 0.42687053122756474, 0.421279251814361, 0.41566802632827343, 0.410024753662092, 0.40438066271393636, 0.3987210975214946, 0.39311401413206665, 0.38742063479223976, 0.38170921083370485, 0.3760059300667524, 0.37029821254968975, 0.3645426987187851, 0.35883608526247124, 0.35315674515192375, 0.34744304403414816, 0.341732124555871, 0.3359892957710334, 0.33029322969086683, 0.3246015593426098, 0.31891842243724544, 0.3132443927153527, 0.3075802140443513, 0.30192993205060537, 0.29631429485807637, 0.2906919447346401, 0.28508854132006, 0.2795343868113144, 0.27396975897811005, 0.2684387361228444, 0.26292443657724324, 0.2574382293689974, 0.25194295303508746, 0.2465214938036781, 0.24111585885267245, 0.23575711977957278, 0.23043044731187184, 0.225171615594752, 0.21990966918223137, 0.21465027538880624, 0.20947179275517194, 0.2043326014596927, 0.19923317956505723, 0.19417729704840522, 0.1891939476261523, 0.1842233367652062, 0.17930090692806874, 0.17443418120092752, 0.16961067125062992, 0.16484011857760764, 0.1601213021978373, 0.1554565241858462, 0.15082228193084782, 0.14627174703260004, 0.14174599409937524, 0.13731197432238595, 0.13293426712727943, 0.12868035093563757, 0.12441092579851333, 0.12013502567515714, 0.11600295155410247, 0.11193211670834279, 0.1079845208842453, 0.10403205445391596, 0.10012741795336397, 0.09631422648242847, 0.09256905130633525, 0.08887872269035413, 0.08527338914150641, 0.08171277353020419, 0.07824976145471454, 0.07485603775474738, 0.0715356491356127, 0.06828257703203021, 0.06511305937531771, 0.06200279341563111, 0.05896624082880762, 0.05601451167271357, 0.05312533976300476, 0.050297847615915534, 0.047561768926109874, 0.04490094029259741, 0.04236899970242833, 0.039852844636648496, 0.03739231015019059, 0.03503706055328962, 0.03275914525570932, 0.030571355340430772, 0.028446458304440158, 0.026361159091538817, 0.02439693399568753, 0.022508218524886207, 0.020747400313082327, 0.019003449511880318, 0.01735099277707438, 0.015762389258821532, 0.014252350522028537, 0.012818223624408293, 0.011464037321186926, 0.010201701956341123, 0.008998996186148812, 0.007873100704300978, 0.006878871044858081, 0.005897802097519642, 0.005002352766153266, 0.004175623907968971, 0.0034254719078565996, 0.002744513423046351, 0.002145415564759343, 0.0016346414397486301, 0.0011796273827393573, 0.0007972310993308964, 0.0005473344610902054, 0.00029980400313590303, 0.0001352605825219775, 3.196311746080656e-05, 0.0, 7.861724576805693e-05, 0.00018042931085829358, 0.0003735231453119988, 0.0006111029688365475, 0.0009170254529187773, 0.0013655363573190082, 0.0017942441016183628, 0.0023244237583980617, 0.002883909094474976, 0.0035100504956350293, 0.004200950107636033, 0.004954840262979654, 0.005810591076738393, 0.006680479409883312, 0.007610960879411203, 0.008645108856389694, 0.009686072724718385, 0.010849284758532207, 0.011996889852789, 0.013202870560180522, 0.014453399969529683, 0.01577147685236862, 0.017190472117469748, 0.01860447460884571, 0.020069985734994876, 0.02160544389519981, 0.02316605839910516, 0.02482537496683148, 0.026472872503317636, 0.028167507695270343, 0.02993510708339895, 0.03171493895083994, 0.033539196598285366, 0.03540382665667019, 0.03730841838813247, 0.03931750880225145, 0.04128901389464085, 0.04329437687363609, 0.04534306121062224, 0.047427012555090485, 0.04955316758274691, 0.05170188402540395, 0.05388503094233041, 0.056094390506015585, 0.05833240320443418, 0.06062229132937502, 0.06291065328951648, 0.06525089371155832, 0.06758724393756894, 0.06994868930488898, 0.07234019932177457, 0.07474681584452934, 0.0772238760992037, 0.07966579492829731, 0.0821293697394199, 0.08463437700120302, 0.08713401089335451, 0.08961373828923543, 0.09215373833709842, 0.09473710883574321, 0.09729938632593509, 0.09987494940600478, 0.10245626219548619, 0.1050558539678482, 0.1076768674306788, 0.1102934391702446, 0.11291856133227234, 0.11557155792162607, 0.11820845151830445, 0.12089074275316372, 0.12353582221150644, 0.12618817081779732, 0.12879542656597706, 0.13146534761283116, 0.1341619861770114, 0.13683039349360696, 0.13950032577083338, 0.14215508680843417, 0.14482803166707847, 0.14750495470678102, 0.15017406077491915, 0.15284121627337305, 0.15552941801375134, 0.1581883370712036, 0.16085276390789055, 0.16350624066317465, 0.16615705602308825, 0.1688099861421083, 0.17145318525049005, 0.17411062562606788, 0.1767432957900743, 0.17937221886034346, 0.18195102226567608, 0.18457675658272124, 0.18719159367098478, 0.1898023546075645, 0.19240527728770668, 0.1950004130725578, 0.19758781606286163, 0.20018140800763676, 0.20275177412650508, 0.2053153804592678, 0.20788499316926778, 0.21043339383350698, 0.2129608027148183, 0.21549890420246953, 0.21803001654152265, 0.22052974032385378, 0.22305037717493303, 0.22557161760742198, 0.22807570026232063, 0.23057308758284537, 0.23306088204570796, 0.23554619545349634, 0.23802449542833867, 0.2404984020328896, 0.24296701378381347, 0.24543923839050416, 0.247897319514323, 0.25030908366301546, 0.25276557161456187, 0.25521669435455174, 0.2576855623422727, 0.26012524726381825, 0.26254904063682444, 0.264986897129878, 0.2674229068771212, 0.2698438117487498, 0.2722796922537556, 0.2747350150679896, 0.27716740511079657, 0.2796015200641416, 0.28201655568452044, 0.2844584005026585, 0.28692584149085454, 0.28936972184110094, 0.29181850725849856, 0.2942215361718256, 0.29668819829351745, 0.2991350602403504, 0.3016129963314091, 0.30409521240876985, 0.30664573202057, 0.30913181834841447, 0.31157769540513064, 0.314092670080413, 0.31661669649133223, 0.31912830150196003, 0.3216759975277821, 0.32423096838738186, 0.3268010392520467, 0.3293834057101015, 0.33199502929531405, 0.33460282264062263, 0.33721806350379274, 0.3398596260785605, 0.34251814272158304, 0.345213587395046, 0.3479059029761244, 0.35057267722304736, 0.3533119923238223, 0.356070200199023, 0.35886638062884707, 0.36166289197374796, 0.36444471751436464, 0.3672919116186694, 0.3701610080608354, 0.37302843657421325, 0.3759472583841673, 0.37892345165943203, 0.38188546372105214, 0.3848745962115976, 0.387849872628882, 0.3909003232667822, 0.39398373688872246, 0.3970873955436975, 0.4002196937839551, 0.40334616162147197, 0.40654230745070474, 0.4098055404933899, 0.4130551040803083, 0.4163372038387557, 0.41963947490611486, 0.42298953812007933, 0.4263449211689028, 0.4297650511843244, 0.43321757479084694, 0.43671911355054616, 0.4402362200984421, 0.44377126103113607, 0.44736085184244084, 0.45098511666165186, 0.4546210026377608, 0.4583187592118365, 0.46201256934969703, 0.4657845319167881, 0.4695896484297805, 0.4734275022260972, 0.4773009167107703, 0.4811963027818223, 0.4851412688971309, 0.4891210030342225, 0.4931070656691393, 0.49716095791645315, 0.5012573638297187, 0.5053785081521442, 0.5095347536762683, 0.5137304868712114, 0.5179566882551191, 0.5222279860628941, 0.5265238632951705, 0.5308555095358504, 0.5351821154656894, 0.5395895289590762, 0.5439996124360698, 0.5484757948860585, 0.5529826284618086, 0.5575062847535149, 0.5620761849520799, 0.5666576620948143, 0.5712891538385425, 0.575949021996357, 0.5806349987759019, 0.5853513915242167, 0.5900857668598631, 0.5948581580397188, 0.599656764723682, 0.60448114408376, 0.6093307795543169, 0.6142157505543298, 0.619112733261717, 0.6240336329502324, 0.6289488115929546, 0.6339186107981921, 0.6388643370949803, 0.6438782383007037, 0.6489078228121509, 0.653967527214991, 0.6590250148317036, 0.6640844655954521, 0.6691722114494876, 0.6742721800045957, 0.6793504212278697, 0.6844762767574983, 0.6895979089626603, 0.6947394601212518, 0.6998861740509249, 0.7050574470588292, 0.7102092482299746, 0.7153207964779289, 0.7204838159829982, 0.7256453125428469, 0.7308160409063027, 0.7359700036694735, 0.7411327456858615, 0.746275773240656, 0.7514128911478172, 0.7565074352939302, 0.7616327397872458, 0.7667382033708279, 0.7718384410839916, 0.776923313216116, 0.781997917611363, 0.7870472968286614, 0.7920509597686213, 0.7970641071568318, 0.802033429446082, 0.8070006779205298, 0.8119405073266887, 0.8168431191938073, 0.8217253266941535, 0.8265948543871798, 0.8314095233565398, 0.8361906207708266, 0.8409034765522173, 0.8456167554240825, 0.850323839380551, 0.854950766171298, 0.8595364481416197, 0.8640673994804546, 0.8685668093076025, 0.8729699981964194, 0.8773796219196985, 0.8817360077225131, 0.8860560107707781, 0.8902997557658231, 0.8945054395491668, 0.8986329574964342, 0.9027021784766381, 0.9067028448090335, 0.9106513812945336, 0.9145029358543174, 0.9183261813453532, 0.9220804052531848, 0.9257823900461049, 0.9293922151457115, 0.9328936709596717, 0.9363623059053171, 0.9397536987944723, 0.9430644728169365, 0.9462978938781575, 0.949470412038439, 0.9525376547938371, 0.9555222826562397, 0.9583855002517684, 0.9612052194070014, 0.9639283993699657, 0.9665697946377712, 0.9691194419619803, 0.9716253085981744, 0.9739819816909517, 0.9761887745433405, 0.9783666297259196, 0.980445987179362, 0.9824749502285144, 0.9843482457745415, 0.9860749280736543, 0.9877556777687719, 0.9893324347493281, 0.9908235193584138, 0.9921872412598132, 0.9934113080750561, 0.9945672722432477, 0.9956137987944349, 0.9966099331393357, 0.997428014500807, 0.9980889403201804, 0.9986958814194441, 0.9991897587619367, 0.9995443725154836, 0.9998135572404784, 0.9999632789832776, 1.0, 0.9999195954226616, 0.9997516122157152, 0.9994322488528431, 0.9989815871366343, 0.9984308476278553, 0.9977618945399293, 0.9969978741502739, 0.9960886152831412, 0.9950594789144863, 0.9939145962750879, 0.9926511004677158, 0.9912591244988677, 0.989758862774808, 0.9881196101849125, 0.9863821546522177, 0.9845238102184238, 0.9825511864694232, 0.9804509131636157, 0.9782244204063248, 0.9758855528739163, 0.973427019208731, 0.9708555815742462, 0.9681580294806854, 0.9653092991216679, 0.9623800979077304, 0.9593317841410408, 0.9561704489368466, 0.9528855219537985, 0.9494766237329245, 0.94596037994587, 0.9423287384029777, 0.9385569659364984, 0.934700365672698, 0.9307732955812485, 0.926683913492947, 0.9224850549646546, 0.9181519102987638, 0.9137397382733696, 0.9092255573582702, 0.9045969031742991, 0.8998625069165694, 0.8950160418463456, 0.8900745520563434, 0.8850272144851702, 0.8798821293078835, 0.8746368369482707, 0.8692671204442896, 0.8638288046336798, 0.858342105404335, 0.8527043712754698, 0.8469752739181332, 0.8411208945712385, 0.8352173943010697, 0.8292224076360893, 0.8231421875393946, 0.8169759439715618, 0.8107339731826404, 0.8043999138766281, 0.7979525919257051, 0.7914640479653706, 0.7848969582819051, 0.7782896420033322, 0.7715670536101114, 0.7647751861656998, 0.757913528693108, 0.7509851356462621, 0.7439566356625404, 0.736904715281548, 0.7298365679683169, 0.7226546195834864, 0.7154165547173706, 0.7081145924688866, 0.7007710037040112, 0.6933230228571526, 0.6858860523230061, 0.6783990849969983, 0.6709051446222355, 0.6633205314275105, 0.6556742825407925, 0.6480138456777925, 0.6403161139982156, 0.632581259358144, 0.6248161173933563, 0.6170087322070985, 0.6091863584732559, 0.6013374299858287, 0.5934579438193807, 0.5855638853917774, 0.5776361899725015, 0.5697067397904857, 0.561761524755445, 0.5538328820638673, 0.5458597657471315, 0.5378415158322201, 0.5298619217393904, 0.521877744736712, 0.5139202510244385, 0.5059306526597709, 0.4979507365874917, 0.4899713084395059, 0.4820008176166693, 0.474052028284751, 0.46610436739356703, 0.4581234959994652, 0.4502157440718389, 0.44232512894144516, 0.4344903356718628, 0.42663664654299527, 0.41882527343817194, 0.41102420861490585, 0.40325437246289186, 0.39550163994321896, 0.38780190616128507, 0.38013280960530726, 0.37250770685985307, 0.3649222950731456, 0.35737220418416565, 0.3498730447790575, 0.34241389885109497, 0.3350081116010233, 0.3276513526547132, 0.32034560790037936, 0.3130928258067927, 0.3058831873562204, 0.2987435111801097, 0.29166176338824845, 0.2846291758023035, 0.27767027253681187, 0.27077424353909074, 0.26394292936997665, 0.25717811491899983, 0.2504868632467142, 0.24385951501817704, 0.23729653894464348, 0.2308153442828299, 0.22445658444291444, 0.21811972633709084, 0.2118629801218095, 0.20562125632383646, 0.1995361763885288, 0.19353484315299, 0.18760973476126921, 0.18176736782554273, 0.1760187048834051, 0.1703446363498964, 0.16474921650715357, 0.15925168379292864, 0.15384299711462415, 0.14851036042855187, 0.14328426344931594, 0.1381641968797251, 0.1331194264788853, 0.1281685536248296, 0.12332193815805265, 0.11855988672985754, 0.11390934793685936, 0.10933912133235095, 0.10486737306480999, 0.10049232532456358, 0.09621884681921763, 0.09201166681881681, 0.08794138378428064, 0.08396917665331692, 0.08013287734017184, 0.0763535618965065, 0.07264482363072529, 0.06907244471878277, 0.06559985306881257, 0.06225606620654196, 0.058980026818782005, 0.05575364494855386, 0.05268786473153297, 0.049720699638611296, 0.04689927301206339, 0.04412393202478785, 0.041390494340651764, 0.03882554770463546, 0.036358050050159435, 0.03403922435642393, 0.03176017589338685, 0.029542918824298565, 0.027468474246767273, 0.02549080912971397, 0.023604244471883137, 0.021819710441976378, 0.02013043522772522, 0.0185359394017745, 0.017035684658923078, 0.01561947887510592, 0.01430708258584537, 0.013110973781695014, 0.011978325383725792, 0.01093741440481558, 0.009985129400579707, 0.009125000575167313, 0.008347075969000521, 0.00766392101216337, 0.007066900698660286, 0.006545372617510411, 0.006118667027227883, 0.005779655070916644, 0.00551593297647507, 0.005332700394920111, 0.005242633679204652, 0.00521503556117705, 0.005247989791335815, 0.005376390445989006, 0.005578658167753524, 0.005852447486635931, 0.006198715559662304, 0.006611661719058709, 0.007096728627582088, 0.007648744673629604, 0.00829298066518885, 0.008971328086310133, 0.009729865911225695, 0.01053289623729887, 0.011397655240056388, 0.01232553565774488, 0.013307945297646864, 0.014305303176920074, 0.015404259416571487, 0.016553857736939747, 0.017754802896785007, 0.019001100016928906, 0.020275653708740266, 0.02161548115631454, 0.022997588825264044, 0.024444007670619265, 0.025903383101804116, 0.027428619428305337, 0.028961307960291, 0.03053125504953739, 0.03207573834678492, 0.033722100531824124, 0.03544882375700902, 0.03714341381082548, 0.03886624307748207, 0.04056957938071905, 0.04234907441927932, 0.044175324030198596, 0.04599018642704641, 0.04782370961137106, 0.0496645781668709, 0.05153148875671038, 0.05339645635397263, 0.055289606525497116, 0.05719166102574959, 0.05914910492490205, 0.06105837836620117, 0.06295764141853388, 0.06488125703960892, 0.06680717183924459, 0.06875928160378098, 0.0706814872798094, 0.07260773320677656, 0.07452484387411716, 0.07643733499522842, 0.07831355987791282, 0.08021527313381971, 0.08210653722052903, 0.08398367424962774, 0.0858465466007488, 0.08771615412642482, 0.0895434966949773, 0.09140488056360696, 0.09318993231909031, 0.0949576975061526, 0.09671484858068324, 0.0984414747589845, 0.10014277894948229, 0.10182388662783043, 0.10347941833231773, 0.1051238755102731, 0.1067218169011024, 0.10837077621994017, 0.1098992498584828, 0.11140046157127936, 0.11287674542894974, 0.11431724385424524, 0.11579146428984709, 0.1171572479612285, 0.11849133450314397, 0.11978438874995467, 0.12105058005894367, 0.12229339225198507, 0.12348199375175667, 0.12463154681422739, 0.12580267022350397, 0.12686272415431563, 0.1279328955630926, 0.12890746362673633, 0.1298431807638538, 0.1307715929128781, 0.13162106711881916, 0.1324188576195538, 0.13318634646040645, 0.1339097952511112, 0.13465976309643998, 0.13528355637600148, 0.13590661235792884, 0.1364393807105031, 0.13693010018779994, 0.13736804910755085, 0.13777269345390888, 0.13815749906912947, 0.13846749131970196, 0.13873251116547497, 0.1389989643903421, 0.13916668904665183, 0.1393452917454887, 0.13941858595709902, 0.1394504948236609, 0.13943712149861798, 0.1393847450324192, 0.13931694237587908, 0.13917455731412515, 0.13899030674427904, 0.13883012816158244, 0.13855338037675455, 0.13820739673734922, 0.13785758742721205, 0.13746719375884175, 0.1371068081782396, 0.13662708024979645, 0.1361265788368223, 0.13557348431453634, 0.1349855266892309, 0.1343841224186297, 0.13372414293551552, 0.13304288734164813, 0.13231569824883666, 0.13155685582388235, 0.13080304163740097, 0.12997769093616007, 0.12907739396882625, 0.12820236076290858, 0.12732111598633788, 0.12638480620822487, 0.1254222585524359, 0.12446213797840411, 0.12344648721226138, 0.12240062111190521, 0.12134356681021763, 0.12026619523184415, 0.1192154562454864, 0.11809498744775873, 0.11693781336986804, 0.11579241997138179, 0.11463327335539847, 0.1134541126065196, 0.11227206028833425, 0.11109344170680537, 0.10989016360322916, 0.10868003122495407, 0.10746756592995242, 0.10624732074624528, 0.10505859004051182, 0.10383019708582897, 0.10260391169576519, 0.10135423912323485, 0.10013909132066948, 0.09896127059669786, 0.09775201003185596, 0.09655194627595771, 0.09537943049345854, 0.09419951187300667, 0.09299108085675208, 0.09184610830150465, 0.09071546237065144, 0.08959977170647097, 0.08850299211876576, 0.0874660667213254, 0.08640450716740945, 0.08536790752912586, 0.08433627768167105, 0.08335633913540384, 0.08238933590306415, 0.08146860424855676, 0.0805780760010462, 0.07972052090829466, 0.07889535490981998, 0.07810550319135753, 0.0773526020482977, 0.07663826979075632, 0.07597797003560212, 0.07534380598513359, 0.07474093944820692, 0.0741980171559794, 0.07370133682306718, 0.07327695344643102, 0.0728742191381178, 0.07251082970167771, 0.07221526712547649, 0.07197367276199625, 0.07175010105883595, 0.071625283860299, 0.07157989351871663, 0.0715656753062142, 0.07161195204579734, 0.07170406644624133, 0.07187734590672595, 0.07213655545132541, 0.07243546396933506, 0.07280190127451687, 0.07319647018978005, 0.07370644952042274, 0.07428287509991086, 0.07493167780806205, 0.07565166965971465, 0.07645480749543757, 0.07731964977284847, 0.07826958442106653, 0.07928524346930096, 0.08037897720822144, 0.08150581427519119, 0.0827641177587182, 0.08413461101826149, 0.0855458934066359, 0.08703940743576981, 0.0885956331755551, 0.09025836332692448, 0.09198298270216597, 0.09381564615674516, 0.09573187963648629, 0.09771761990237948, 0.09980540800838834, 0.1019772478038791, 0.1042361868912248, 0.10658166677134073, 0.10904311828848405, 0.11155988282755394, 0.11414091676409877, 0.11684084912381462, 0.11962958760720023, 0.12248615136346286, 0.1254561823632751, 0.1285274892746645, 0.1316732117562788, 0.13490876111423017, 0.13818412254890092, 0.1416059278675275, 0.1451042434444693, 0.14870209992712036, 0.1523871423413346, 0.15616175287771558, 0.16002154853452782, 0.16395205043465919, 0.1679894998457184, 0.17211360065488404, 0.17633709481413398, 0.18063262975951214, 0.18500125379351842, 0.18947204631592177, 0.19402815510983729, 0.19871076793852888, 0.20343097873931457, 0.20816705647026323, 0.2130677409488247, 0.21804886164954337, 0.22312495893290665, 0.22826380933348228, 0.23347184596930742, 0.23877099098725937, 0.24414782285566067, 0.2495908990784426, 0.25512205615501626, 0.26075337920844543, 0.26642957844242743, 0.27217999126073167, 0.2779650344819016, 0.2838651208798248, 0.2898346668081527, 0.29587043388443635, 0.30197264644664457, 0.3080879435955751, 0.3143262753541315, 0.32063636120441774, 0.3269924088293, 0.333407342241225, 0.339861898569852, 0.34639342061985673, 0.35300692189077804, 0.3596422525662385, 0.36633093378664383, 0.3730639411100447, 0.3798555518414655, 0.3866537183445722, 0.3935452760395805, 0.4004794026519889, 0.40747075350631046, 0.41448389930045343, 0.42148828559538265, 0.42858428272895277, 0.4357134275543204, 0.44288608409206115, 0.45007585941853906, 0.4572364492904889, 0.46449088708654174, 0.47176807607630783, 0.47908056799479787, 0.4863974721147456, 0.4937155519531978, 0.5010716627684857, 0.5084426121179271, 0.5157947462789889, 0.5231943668948794, 0.5306242495424465, 0.5380351921513592, 0.5454520173507529, 0.5528738815056014, 0.5602965671902139, 0.5676724291596661, 0.5750992199011232, 0.582519402964798, 0.5899099570992127, 0.5973144768251639, 0.6047144560731499, 0.6120900592066616, 0.619449615218666, 0.6267528481693548, 0.6340794661045345, 0.6414204980528918, 0.6486926251145422, 0.6559394990263309, 0.6631696729848563, 0.6703583507278047, 0.6774690956177493, 0.6845994691955559, 0.6916917794802716, 0.6987079531240423, 0.7057232400017756, 0.7127323419248961, 0.7196497463536213, 0.7265204490010333, 0.733293367275788, 0.7400707843762299, 0.7467734697521281, 0.7534406148576304, 0.7600478527111773, 0.7665968347651838, 0.7730791629935304, 0.779486321819942, 0.785839294444758, 0.7921290858655269, 0.7983427100536337, 0.8044848017356396, 0.8105387006053515, 0.8165344163370477, 0.8224696166740926, 0.8283064015744431, 0.8340633209491379, 0.8397066132501622, 0.8453025544757193, 0.8508243744167884, 0.8562434047038221, 0.8615733122827683, 0.8667602698969685, 0.8719138306452496, 0.8770037138991084, 0.8819585145706956, 0.8868161858511824, 0.8915219765174505, 0.8961878517556939, 0.9007685530873712, 0.9052223117487016, 0.9095708448015154, 0.9137809995143794, 0.9179196461475307, 0.9219531313135462, 0.9258692308850168, 0.9296733457596753, 0.9333911763976172, 0.9369650711903498, 0.9403989401794721, 0.943748311004691, 0.9469805317330706, 0.9500819343694812, 0.9530788730222667, 0.955951108452153, 0.9587069933442612, 0.9613407753581416, 0.9638528607373181, 0.9662403343599228, 0.9685315524868873, 0.9706669361056971, 0.9726786763465525, 0.9745094597682111, 0.9762787325670674, 0.9779733600626669, 0.9794775174560102, 0.9808553419743146, 0.9820433026865513, 0.9831746374741431, 0.9841861791566432, 0.985053053526312, 0.9857891961331308, 0.9864009735349379, 0.9868747630821877, 0.9872117340467123, 0.987425462702097, 0.9875083824852833, 0.9874381813119125, 0.9872625878754623, 0.9870128413030219, 0.9865668349336064, 0.9859930219022311, 0.9852315877077947, 0.9844094967788757, 0.9834934991345811, 0.982404821389425, 0.9811882007582287, 0.9798343477688621, 0.9783640285278947, 0.9767439045853428, 0.9750221267689837, 0.9731727799174372, 0.971175320823368, 0.9690759020201156, 0.9668938413017886, 0.9645371731716932, 0.9620586095246619, 0.959458809917531, 0.9567384843380717, 0.9538695990191263, 0.950914187074437, 0.9478390526874105, 0.9446367948201642, 0.9413267001730315, 0.9379030419611184, 0.9343602670707242, 0.9307034198957687, 0.926896425009383, 0.923019916436762, 0.9190523702462151, 0.9149500399246129, 0.9107397373765224, 0.9064633931717292, 0.9020362581795854, 0.8974533034488912, 0.8928313056890695, 0.8881071347796585, 0.883315526448741, 0.8783878591572866, 0.8733531718966031, 0.8682378217115051, 0.8630293876370227, 0.8577379826613961, 0.8523470709333396, 0.8468673032590591, 0.8413025302764059, 0.8356531051186584, 0.8299057509218885, 0.8240938950716042, 0.8181941246149512, 0.812224165521636, 0.8061770522207543, 0.8000675134787048, 0.7938702723888569, 0.7875949356231357, 0.7812592167897356, 0.7748561463600607, 0.7683396713625453, 0.7618137793812754, 0.7552482014667998, 0.7485931287738545, 0.7418798735824434, 0.7350891829893651, 0.7282684782150834, 0.7213946005501978, 0.7144697798843789, 0.7074962211959495, 0.7005059666622474, 0.6934376858357504, 0.6863107063437054, 0.6791654688116279, 0.6719824417210518, 0.6647892860811891, 0.6575336412728912, 0.6501902459131897, 0.6428834008684186, 0.6355468774526899, 0.6282342146720225, 0.6208388770012361, 0.6134279360195829, 0.6059941497050253, 0.5985444107238901, 0.5910560231052246, 0.58358299282023, 0.5760619237605513, 0.5685719927256998, 0.5610723864856965, 0.5536027707319121, 0.546086070231874, 0.5385473408858213, 0.5310338385001935, 0.5235222414744497, 0.5160306132550655, 0.5085269802733904, 0.5010237431535958, 0.4935409054604131, 0.4860702330988781, 0.4785944450825154, 0.4711562547551681, 0.4637209766898868, 0.4563201029927192, 0.4489392142348131, 0.4415782271272604, 0.4342436774826057, 0.42695739178710834, 0.4196736770643773, 0.41242089957217903, 0.40517619371628033, 0.39799335912283645, 0.3908620790465822, 0.3837478754309107, 0.3766726860442852, 0.3695943697176378, 0.36260745749050993, 0.35573002899779194, 0.34881881746378524, 0.341956326810926, 0.33512667714533084, 0.3283673413918683, 0.3216049510996157, 0.31495648971454304, 0.3083589572052996, 0.30184927742636947, 0.29535427589972363, 0.28887983111242654, 0.2825065474344717, 0.2761914956880128, 0.26999800756897535, 0.2637959748127616, 0.2576225687259272, 0.2515579529539477, 0.24555879130617367, 0.23959846094909992, 0.23373698549640493, 0.22796819752995187, 0.22223888637746897, 0.21658046625519167, 0.2110087480778681, 0.20549283343667912, 0.20001813489711873, 0.1946556124960029, 0.18936361901755216, 0.18414984954520652, 0.17901135959171102, 0.17397562233508226, 0.16898670730728285, 0.16405232416375423, 0.15922507524957105, 0.15447638168948405, 0.14985056754770357, 0.14525521430256977, 0.14073293798242054, 0.1363042611220509, 0.1319579486290858, 0.12768992446714353, 0.12350943411457872, 0.11937320127352995, 0.11536303565696, 0.11143368922866374, 0.10757493278023333, 0.10380981365954918, 0.10018041778525326, 0.096571433782978, 0.09304744933536596, 0.0895517180860774, 0.08620419280444573, 0.08297085517266431, 0.07978161392030052, 0.07667570046671325, 0.07363905977411306, 0.07070095181220003, 0.0678340716034755, 0.06506093252414381, 0.06236871937814105, 0.05975194153728374, 0.057221729279096835, 0.05477045584884676, 0.052400131902638994, 0.05010919113720295, 0.04793141598544786, 0.045793855049080276, 0.04369377751362762, 0.04172114476098607, 0.03982476472900703, 0.03799782692959486, 0.03625347492553429, 0.03459749587266574, 0.032999907722027995, 0.03147655331600047, 0.030038454905834015, 0.028659931399557206, 0.027388214912785893, 0.02614985572910509, 0.02498430973065871, 0.02384240210321313, 0.022825010057382637, 0.021883832785331993, 0.020997711325074147, 0.02017720830783904, 0.019450217643502778, 0.018754591138038693, 0.018108504411120944, 0.017542507870223305, 0.01703775834403432, 0.016543073403900925, 0.016163960233612582, 0.01586672576744644, 0.015593989268985623, 0.015376527628602076, 0.015180262357608339, 0.015074445753117541, 0.015047709828141353, 0.015038005641367029, 0.015078507116156516, 0.015154196282860717, 0.01529338270026752, 0.015510480877146127, 0.015736377105959605, 0.016007794108956478, 0.016277486781419263, 0.016641584885115156, 0.017040227588828272, 0.017481494428909634, 0.017959312530402154, 0.01853023967984371, 0.019070761189586085, 0.01959456253820979, 0.02021344250295275, 0.02086279696922388, 0.02156606232720963, 0.022269967001175436, 0.02302583887350446, 0.023782435764692588, 0.024566155345929853, 0.02532748272301619, 0.026166966086202476, 0.02701785892584253, 0.02789724840958268, 0.028793969104158563, 0.02971019218676531, 0.030638061171866706, 0.031626139039287855, 0.03257579741901921, 0.033540130559337175, 0.03450483082948547, 0.03549563721089286, 0.03649917905504915, 0.03750735316675938, 0.03852266155951558, 0.03953635100636697, 0.0405630278467427, 0.04156062582962277, 0.0425960073244995, 0.04363018486368372, 0.04468893276586057, 0.04571465485577722, 0.04673902333454096, 0.04775862211867128, 0.04877358050401824, 0.04981263425962841, 0.05081118419280233, 0.051772527848986984, 0.052761117839087324, 0.053739121920551455, 0.054726901165329835, 0.05567814776817986, 0.056641668285521855, 0.05756420667412549, 0.05847370284560187, 0.05937106138694581, 0.060250575886900935, 0.061109385267618666, 0.06195547552123332, 0.06278276710570589, 0.06361483281807874, 0.06439860214165882, 0.06513447627137307, 0.06588037510038208, 0.0666025302631304, 0.06735569206017339, 0.06802126439497276, 0.068634308623493, 0.06925723993792121, 0.0698537470137299, 0.07048499230026915, 0.07101880121437247, 0.07152343495244186, 0.07200688486020586, 0.07246312159902234, 0.07293180471110992, 0.0733259763525493, 0.07374296161495995, 0.0740752044326909, 0.07438110005206433, 0.07470531859786124, 0.07494930245777784, 0.07515782216779383, 0.07534783910198511, 0.07550823448626505, 0.0756936360536127, 0.07578541719891839, 0.07585388234325852, 0.07588673981616491, 0.07588948447414215, 0.07593177536482017, 0.07586334830228655, 0.0757616147652362, 0.07563696093088726, 0.07548229182908223, 0.07535459364885096, 0.07513094234490163, 0.07490147505676854, 0.07461785746433414, 0.0743060104960721, 0.07402824756463083, 0.07365032028989077, 0.07326017040671912, 0.07282760685312294, 0.07236848222479803, 0.07191322276733225, 0.0713957196099787, 0.07086299762942536, 0.0702920442583184, 0.06969527532323778, 0.06909066572085329, 0.0684396360090418, 0.06784048758244693, 0.06712998694351013, 0.06639907629399737, 0.06561965271934499, 0.06485046114804585, 0.06411409887366519, 0.06329293527584991, 0.06245292304129126, 0.061614334549654225, 0.06073422206460395, 0.05982186725024109, 0.05890920611598091, 0.057978883038652125, 0.05708047075448734, 0.056110249330818346, 0.05516100995817637, 0.054160508216191915, 0.053153784524570945, 0.05213200367707267, 0.05110055919466086, 0.050083328645116866, 0.049030935879776916, 0.047958924612915864, 0.04689499006508182, 0.04582457312675138, 0.044787887881115505, 0.04370184770403153, 0.04262357823496473, 0.041533267332409675, 0.040442940952116285, 0.03935753455440482, 0.03826871980136486, 0.037221804392165395, 0.036133714883884456, 0.035051995098607555, 0.033936736403525014, 0.03287480515257907, 0.03183504463330831, 0.030784598416940336, 0.02974355694337228, 0.028723643016346997, 0.027703265591248274, 0.02669720996269402, 0.0257042501198332, 0.024726715592177182, 0.023765689252974894, 0.022822274584281443, 0.021884795598858368, 0.020981599201570007, 0.020098699397937587, 0.01928214440825668, 0.018437947439972905, 0.017588329919074892, 0.016802202335627316, 0.01604265101592626, 0.015307685355453859, 0.014605313167684904, 0.01396920921036049, 0.013323494520986032, 0.012712257450771265, 0.012123611687529448, 0.011585705630022236, 0.011084365402826597, 0.010620671826464784, 0.01019570853812958, 0.009815892255012584, 0.00947096895334962, 0.009142732474480728, 0.00888664180853877, 0.008673467077582335, 0.008517245666738761, 0.008391978100858101, 0.008302251750225665, 0.00827406607234716, 0.008294591658469104, 0.008372416680473787, 0.008492765416104912, 0.008643143756486468, 0.008872160394976552, 0.0091543043380082, 0.009518437010190091, 0.009906695439107414, 0.010325199454144023, 0.010833707063395183, 0.01140022282540281, 0.012002293375543262, 0.012690777149111395, 0.01343886507817303, 0.01424764617148116, 0.015118152889774037, 0.016083356615321346, 0.017076157500814062, 0.01810327798804282, 0.019233327246805303, 0.020429042097073958, 0.021722162916633786, 0.023047698297346837, 0.024416287172357613, 0.025885058833631194, 0.02742291640275351, 0.029018764280681886, 0.03069814360968635, 0.03241255177374923, 0.034237440147462765, 0.03613176599280179, 0.03810593848082173, 0.040140282829518106, 0.04226920471765776, 0.04444560030014937, 0.046696414927905806, 0.04898348963209129, 0.05138866468979838, 0.0538667203680477, 0.05641811857593189, 0.059043257088791185, 0.06174887175154368, 0.0645216372854441, 0.0673650813866484, 0.07028839908897455, 0.07328662861577197, 0.07634065132677835, 0.07949131830905232, 0.08270632480391947, 0.08600618653728073, 0.08937960337431371, 0.09280958539367154, 0.09633242634124267, 0.09992470376372622, 0.10359325757113075, 0.10733427320346361, 0.11118607166811535, 0.11506688553939264, 0.1190005942940574, 0.1230319952168309, 0.12713529730682074, 0.1313122208652228, 0.13555778154544684, 0.13986548604304208, 0.14425294012869078, 0.148709489124715, 0.15317488707358304, 0.15777555633786663, 0.1624477391712042, 0.1671754049790188, 0.17196713063117328, 0.1768299835743618, 0.18174762014072351, 0.18673366203298283, 0.191776110205912, 0.19688055803252197, 0.20203233940817916, 0.20726009102287843, 0.21252947615982384, 0.2178759726023312, 0.22327855090150886, 0.2286959280063512, 0.23421345521587586, 0.23979086858118792, 0.24540942745900668, 0.25107853281181675, 0.2567877497147072, 0.2625565836327416, 0.2683407286225298, 0.27420727066664147, 0.2801173726793933, 0.28607129709089635, 0.29206588836417346, 0.29811317345214366, 0.3041871652399727, 0.31030062976495054, 0.3164405791379468, 0.3226306593193866, 0.32880447577204663, 0.33506959984080686, 0.3413641810817908, 0.34767021053089364, 0.3540229366538854, 0.36041279966781836, 0.36681380812515607, 0.37323870461785313, 0.3796893907652535, 0.38615771104773555, 0.3926055232251459, 0.399117524943281, 0.4056442854766299, 0.41217499020853693, 0.4187287608025611, 0.4253227568049696, 0.4318921552615287, 0.43847087762254194, 0.4450369799873136, 0.45163184746787866, 0.4582063432747196, 0.46480878975897183, 0.47140984599631136, 0.47801340785860563, 0.484606653474609, 0.4911677023761848, 0.4977516395997457, 0.5043253047636147, 0.5108893879078992, 0.5174378639881415, 0.523906673358593, 0.5304325569957214, 0.5369369740979737, 0.5434571976280241, 0.5499103884025337, 0.5563246682490466, 0.5627323940642405, 0.5691129704702819, 0.575468028478674, 0.5817891668802447, 0.5880742796501592, 0.594330766911234, 0.6005518999952874, 0.6066933620637255, 0.6128441858235841, 0.6189234532244325, 0.6249910451880817, 0.6310115208565188, 0.6370274028111972, 0.6429444556219498, 0.6487714776398951, 0.654595192371301, 0.6603348478239348, 0.6660525675782742, 0.6717116373158424, 0.6773268611596358, 0.6828629802444622, 0.6883024305513691, 0.6937185888827712, 0.699068368952895, 0.7043569705783459, 0.7095695473249819, 0.7147326518363694, 0.7198018437038297, 0.7247997122051476, 0.7296607277027674, 0.7345194160420982, 0.739344450162748, 0.7440373354955376, 0.7486512672770258, 0.7531346870751945, 0.7575927513752806, 0.7619957094162615, 0.7662768158390552, 0.7704716286331719, 0.7745703313216643, 0.7785897930861515, 0.782510137697525, 0.7863483360839901, 0.7900931403256356, 0.7937285434831006, 0.7972852222606901, 0.8007497932163264, 0.8041099904241418, 0.8073711916007194, 0.8105196329769274, 0.8135815714514962, 0.8165441331216095, 0.819399694710109, 0.8221512252674398, 0.8247616363762948, 0.8273072120594033, 0.829737878639998, 0.8320667541494101, 0.8342857691371015, 0.8363837980390771, 0.8383830439850222, 0.8402554864372512, 0.8420324755995525, 0.8436959506521949, 0.8453000084103163, 0.8467286952063302, 0.8480289507702105, 0.8492363031019454, 0.8503298754391421, 0.8513070262865711, 0.8521718176714044, 0.8528860988328224, 0.8535243179477846, 0.8540445098889431, 0.8544733032213674, 0.8547539759216163, 0.8549190946302784, 0.8549661582734914, 0.8548962319187621, 0.8546643596550844, 0.8543656539491805, 0.8539694540936842, 0.8534284486823758, 0.8527694233693411, 0.8519946320339854, 0.8510996848536238, 0.8500627478634372, 0.848936157500554, 0.8476911195277256, 0.8463259395482138, 0.8448455979493871, 0.8432224335444319, 0.8415113534719003, 0.839682587782463, 0.8377283215087867, 0.8356674030018431, 0.8335320359373467, 0.8312345531133251, 0.8288249020436484, 0.8262928483578629, 0.8236615419142707, 0.8209028923943249, 0.8180515589236631, 0.81508930070089, 0.8120489450486732, 0.8088633136519225, 0.805565775114407, 0.8021682974010442, 0.7986652568983056, 0.7950446314782005, 0.7913344503114775, 0.7875428339387971, 0.7836231643146361, 0.7796029530271804, 0.7754681458589541, 0.771251414070663, 0.7669360735218225, 0.7625232598419528, 0.7580141364005712, 0.753370436920846, 0.7486772813050112, 0.7438849873174361, 0.7390042117361135, 0.7340314822109237, 0.7289491987989773, 0.7237997620054616, 0.7185823078573632, 0.7132554731220918, 0.7078449174120548, 0.702338294942938, 0.6967666076542056, 0.6911629789142106, 0.6854270138555016, 0.6796171054535868, 0.6737025177873306, 0.6677525835865213, 0.6617276192465411, 0.6556360746641562, 0.6494758207924394, 0.6432720063086395, 0.6369764363141551, 0.6305673664342574, 0.6241551602675678, 0.6176808330400274, 0.6111581021385554, 0.6045639859399172