0.03149693377420235, 0.031122165730232215, 0.03075115509440246, 0.030416832379559167, 0.030167905227583433, 0.02985079561522582, 0.029547922410832362, 0.029214036238279027, 0.028938986201148976, 0.028642106639893746, 0.028382217982924094, 0.02812527054139616, 0.027842728189630652, 0.02759407387457108, 0.02741332595241107, 0.02715707785147161, 0.02690527258417687, 0.026636923151853734, 0.02639560814437925, 0.026166132222831682, 0.025928621281947214, 0.025694259771380595, 0.025410621844009842, 0.02518942141674257, 0.024985594694144003, 0.024763850839151405, 0.0245446955024657, 0.024309772679619125, 0.024099321682669594, 0.02385779760748805, 0.02365745352258494, 0.02345885720908827, 0.02331895595270093, 0.02311881296301006, 0.022901152342444, 0.022717878870383006, 0.022517771796124107, 0.022348958989732118, 0.022185113658533283, 0.02207166281853129, 0.02191333743078062, 0.021799320327586226, 0.021653844573017098, 0.021519015241202387, 0.021400170854023397, 0.021285117007082237, 0.021082835090138977, 0.021000408004382246, 0.020922407753532025, 0.020834503445900356, 0.020769186215651374, 0.020735510053397993, 0.020678281812911793, 0.020629087693283615, 0.020554470277418073, 0.020526441326966294, 0.02049971514377611, 0.020486742970848907, 0.020481317345464524, 0.02049700379599618, 0.020506297673306806, 0.020579437269440438, 0.020601042018072502, 0.020635598586254092, 0.020684729371945793, 0.020744237510351815, 0.020733686282182483, 0.020828313428799188, 0.020930461540763633, 0.021108190149090475, 0.021218519453166367, 0.021326730648115397, 0.021464601062748598, 0.02161431360207204, 0.021727193866762053, 0.021906955324492546, 0.02208854555704604, 0.022288391063272704, 0.022498065284497763, 0.02272927927226033, 0.022958538915129955, 0.023248269803769653, 0.02349509520261307, 0.023756896700558198, 0.023962278285819677, 0.0242625853781732, 0.024612849067312533, 0.02492986415058966, 0.025260641607051985, 0.025565916587805784, 0.025929501327083777, 0.02635181259116208, 0.026733620025015413, 0.027130728980218347, 0.027543114556698924, 0.02797076791817112, 0.028376203323032517, 0.0288391621229877, 0.02931533838233789, 0.02981444602251677, 0.03031686675143878, 0.030802103062985763, 0.03133810622028883, 0.03188736486345096, 0.03245217178984232, 0.03302891623005284, 0.03366514099905233, 0.034265464633878195, 0.034883345886865, 0.03545679090773416, 0.036117229118707, 0.03674829560000796, 0.03744208820325041, 0.03814798894122849, 0.03887229191166476, 0.039603625748100425, 0.040379145411618515, 0.04113547055045248, 0.04190841154673034, 0.04273738439589135, 0.04353871444868097, 0.04428211727246932, 0.045130715918865166, 0.04599334075796186, 0.046922840772027144, 0.047807910736486395, 0.04873149872669255, 0.04964954887129833, 0.050586249955794166, 0.05151313307155777, 0.052489670518582776, 0.05352730765606014, 0.05453033515178111, 0.055551908031246024, 0.05649038437048088, 0.05756063961505105, 0.05868948958121224, 0.05977778287652611, 0.06088136750052856, 0.06196648551238065, 0.06310485696695946, 0.06427340629613022, 0.06543647174151605, 0.06661417195074068, 0.06783461544848518, 0.06903797865404106, 0.07024621489081265, 0.07148294586218461, 0.07273458700226117, 0.07396721246052408, 0.07525238635371768, 0.07655564062440194, 0.07786509510355195, 0.0791874412801839, 0.08050951905953126, 0.0818591676867456, 0.08329201592500968, 0.08465658699268515, 0.08603708289191749, 0.08740849617075497, 0.08882205255450099, 0.09019589105502618, 0.09164129963850681, 0.09309589081648584, 0.09455227603443082, 0.09602646142922036, 0.09759582750616101, 0.09907704939058776, 0.1005720932326589, 0.10206147448129241, 0.10358436544891991, 0.105116079216233, 0.10666014806549531, 0.10821391831751237, 0.10973199329227558, 0.11130964419746642, 0.11290640291917177, 0.1144943483567944, 0.11608894126360099, 0.11764874334538704, 0.1192612322226153, 0.12088115168329347, 0.12250060760183087, 0.12412405453203325, 0.12577954978435202, 0.12740719645394805, 0.12906634610055776, 0.13070078685039235, 0.13234114368223338, 0.1339717953093977, 0.1356240288253574, 0.13727202999844296, 0.13893130054980088, 0.14059253186924503, 0.1422853369496772, 0.14394555082843963, 0.14554638862594502, 0.14721875352852276, 0.1488888763348062, 0.15059415209983137, 0.15225471948430888, 0.15395222897848418, 0.15560644535657833, 0.1572611983917448, 0.15883695470578854, 0.16050037318926014, 0.1621819970351004, 0.16382995217982194, 0.16547295490451092, 0.16709191838949286, 0.16872634792477662, 0.17031996357185747, 0.17194428421376562, 0.1735591458582007, 0.17524326256735917, 0.17682914064888228, 0.17839476111377728, 0.17997120638487157, 0.18153997234895564, 0.18305170468078044, 0.1846094433198627, 0.18614559354643143, 0.18767990554503924, 0.18920107834828992, 0.1907089375072042, 0.19220326995057804, 0.19376443460259535, 0.1952207493812132, 0.19666723158855784, 0.1980747869895852, 0.19950229194372618, 0.20092125730152302, 0.20231913960599437, 0.20370202187591302, 0.20501494546509533, 0.20637293301606588, 0.20776175442391, 0.20907368161061748, 0.21031593978663543, 0.21159956006740413, 0.21286191153591305, 0.21413474134929156, 0.21535012951975852, 0.2165961881975044, 0.21776482156589905, 0.2189154209490233, 0.21995152262634868, 0.22107561729648767, 0.2222357598823125, 0.22330047479316434, 0.22434293233568928, 0.22536073180074534, 0.2263573546026966, 0.22733009929352666, 0.228278515121959, 0.22920216719677666, 0.23005377140270883, 0.23093257549708754, 0.231833380594381, 0.23264855767454967, 0.2334379224910043, 0.2341335160030962, 0.23487838848835196, 0.2356204252927046, 0.2362999685137253, 0.23695035651659385, 0.23760140076194203, 0.23818913226669153, 0.23879756071400973, 0.2393226025941324, 0.2398214772658408, 0.24028215383747215, 0.24072783831437752, 0.24105460645239002, 0.24145330017174188, 0.2418170650760044, 0.2422455686420625, 0.24252780879824767, 0.2427402525344156, 0.24296997387159558, 0.24316764580732525, 0.2432768633428843, 0.24341705515788278, 0.24352157384797146, 0.24359073909195705, 0.24362482574533745, 0.2436221945030165, 0.24358703200446225, 0.24355665761157239, 0.24344752154024854, 0.24330631154614651, 0.24309533478161094, 0.24289413480848385, 0.2427238278449009, 0.2424450631054837, 0.24213557541748157, 0.24174623208198687, 0.24138033305294113, 0.24099494881331837, 0.24055833895445605, 0.24008838131131682, 0.23960946481141152, 0.23906980223799315, 0.23850013220278432, 0.23789633167900354, 0.23726051799582928, 0.23656636766757452, 0.23586964172223315, 0.23512429580933578, 0.23436244724714433, 0.23356659179370895, 0.2327801977663211, 0.23191192565681787, 0.23102996527963926, 0.2300984202692743, 0.22913725830905457, 0.22804516877636938, 0.2270373686885416, 0.22608789034781537, 0.22499829228486348, 0.22388021744004308, 0.22264930525474763, 0.2214849713880526, 0.22027441822034316, 0.2190463438520799, 0.21778597621114482, 0.21657472855998663, 0.21524195174054134, 0.21381619250227935, 0.21244097324921896, 0.21103655575301095, 0.20958859349656928, 0.20812959686142765, 0.20669866476864288, 0.20517690811415631, 0.20363149256919835, 0.20207009771768072, 0.20047699154981996, 0.19883691377982982, 0.1972018935219976, 0.19554335507945103, 0.19389738463020115, 0.19218871947560418, 0.1904580831422564, 0.18870966010515314, 0.18694147310260675, 0.18513131982246045, 0.18332735944029557, 0.1814789767853433, 0.17963855582057422, 0.177777845251814, 0.17593135298966892, 0.17402807285110472, 0.17209363604418446, 0.17016036946509988, 0.1682109954835551, 0.1662611052834483, 0.16427940551423273, 0.16228985135232732, 0.16028096255820082, 0.15825988429969606, 0.15622145771746002, 0.15417812562041133, 0.15209937037160737, 0.1500375751551358, 0.14796449384290153, 0.14598025447665647, 0.14387435052321026, 0.14174064644199497, 0.13963089430890477, 0.13751629499843143, 0.1354290096299907, 0.13330161376384278, 0.13116467635888038, 0.12903430517605136, 0.12690186139946752, 0.12475456994967025, 0.12262072523659479, 0.12049086428330812, 0.11835359974117247, 0.11621617053514417, 0.11418973453726773, 0.11203968618401781, 0.10988428707095065, 0.10775115834039443, 0.10562462253965338, 0.10354035120942308, 0.1014227469428888, 0.09930664499049308, 0.09720798486926999, 0.09511798858468969, 0.09309125161874572, 0.09101247533255112, 0.08894255545522638, 0.08688943652091961, 0.08484875573259171, 0.08280945367913617, 0.08079570809697917, 0.07878516996549166, 0.07679824022097323, 0.07482434159221313, 0.07291844923991858, 0.07096559396279498, 0.0690738193214095, 0.06715165829029024, 0.06525037211563288, 0.06339993554296706, 0.06153664084595541, 0.059696105510479304, 0.057878305988703714, 0.05608330838609026, 0.05434312519159694, 0.052590205636430826, 0.050886878061275245, 0.049181391841119214, 0.04750271064349307, 0.045914585832774774, 0.04428158662280876, 0.04264738600853389, 0.04107946838747748, 0.03953998548980209, 0.03809849279613477, 0.03660775840083572, 0.03514636039670676, 0.03372206286186688, 0.03233032938324968, 0.030959932275862953, 0.02963488502340087, 0.028358921194647866, 0.027096476308142634, 0.02586784987496238, 0.024738895769376917, 0.02357038526041607, 0.022427105845004788, 0.021336784648111565, 0.020283817625526047, 0.01931891512265778, 0.018334603153789233, 0.017392808456396933, 0.016489376880136047, 0.01562644101440024, 0.014880832021950086, 0.014089157363155113, 0.013318031969812887, 0.012618802631917083, 0.011919180710512569, 0.011310791530080827, 0.010742659249281002, 0.010256438066506755, 0.00976485216260466, 0.00931334341358079, 0.008909973761128672, 0.008550437200336014, 0.008272414497239484, 0.007996394648470058, 0.007804434590020901, 0.007616753931781182, 0.00747767868398667, 0.0073663184640291954, 0.007326322726498734, 0.007421276173603893, 0.007463915072725415, 0.007558540205585239, 0.007655838461404608, 0.007858980551796778, 0.00817743824280255, 0.008467807472997805, 0.008810012627575518, 0.00911741955321925, 0.009573068023935746, 0.010138469049767517, 0.010678596185782853, 0.011269289921956967, 0.011891730121314793, 0.01258573609298248, 0.013314128209544581, 0.014108953107326265, 0.014952632955639374, 0.015901678751134542, 0.016836760530266986, 0.017774003354648238, 0.01882079629788516, 0.019917085705594115, 0.02117745780090927, 0.022358971701682943, 0.023572673190071825, 0.024869632273654317, 0.02622037348822361, 0.027639514248673284, 0.029094834792477924, 0.03057753709402347, 0.03214305473113183, 0.033760026386105056, 0.03544337318373344, 0.03716113879206131, 0.038915999520203026, 0.04073966601153279, 0.04261424183705633, 0.04453407482165012, 0.046511090201418984, 0.048540473111237346, 0.05061823667840256, 0.05274658367386988, 0.05492922071541626, 0.05715812136068788, 0.05942265664732984, 0.061754607596714854, 0.06413612340178948, 0.06656907386984555, 0.0690494440681479, 0.07160001945946198, 0.07417686426814703, 0.07680425644965166, 0.07946503484463525, 0.08219478843019482, 0.08503326852683783, 0.08785277198311318, 0.0907240734775614, 0.0936015236194793, 0.09658017538363134, 0.09962874627793233, 0.10269922511860564, 0.10581802218944034, 0.1089266406232129, 0.11214827498617437, 0.11549069376810658, 0.11879056975257103, 0.12213884277587927, 0.12553677258790047, 0.1289797902000256, 0.13244706297100625, 0.1359858797008258, 0.13956911743814507, 0.14322082521930313, 0.14688885805433913, 0.1505585888892041, 0.15432116744839686, 0.15812509444111275, 0.16201520863067034, 0.1658956622908098, 0.16982132538022363, 0.17378761742412413, 0.1777961822773613, 0.18183895237044692, 0.18593132106554808, 0.1900695093404228, 0.19424109687209046, 0.1984522760731247, 0.20261819098318115, 0.2069177247656401, 0.21131624400852703, 0.2156744279611281, 0.2200699775472878, 0.22444991715642934, 0.22892536915764589, 0.23350875424126546, 0.23804055406426264, 0.24260931275070535, 0.2471692608491216, 0.2518153153140313, 0.2564560574347922, 0.26117087020381213, 0.265915053364555, 0.2707278869258666, 0.27552551773490525, 0.28029618970044684, 0.2851629117436729, 0.2900563973212821, 0.29500653605625754, 0.2999493842184298, 0.304903317825048, 0.3099036989890799, 0.3149300475760621, 0.3199782067205386, 0.3250557113458984, 0.33022889749228523, 0.33534583417151875, 0.34049027705382556, 0.34559928859651085, 0.3508033859273663, 0.3560603034012463, 0.361301836332923, 0.3665652061275645, 0.3718234272464585, 0.3771315763615347, 0.3824728966102198, 0.38781500119587486, 0.39317510940055317, 0.3985057056320537, 0.4039057924698635, 0.4093511669739828, 0.4147737903914228, 0.42021102697016594, 0.42566600620239337, 0.43113012958765456, 0.43660532398242546, 0.4420949078723028, 0.4475959956717449, 0.45305544463295555, 0.45858420886635043, 0.4641701707932318, 0.46970546281470144, 0.4752496417804696, 0.4807400943216315, 0.4863076162133718, 0.49188580976590496, 0.4974584900439764, 0.5030342261838779, 0.5086463500950411, 0.5142226615334875, 0.5198007031887073, 0.5253836735472974, 0.5309685735898653, 0.5364890314145078, 0.5420838028913378, 0.5476632964862352, 0.5532512021738264, 0.5588339291732869, 0.564452461420396, 0.5700187849402125, 0.5756300332988722, 0.5811818111300138, 0.5867309962527649, 0.5922108263305315, 0.5977597110584182, 0.6033158715815353, 0.608842936643552, 0.6143603316873666, 0.6198429995573234, 0.6253420654439329, 0.6308636272837372, 0.6363314386132113, 0.6417870803282172, 0.6472053335346538, 0.6526371816810752, 0.657998619750413, 0.6634046285662881, 0.6687902898312815, 0.6742153826652393, 0.6795520783910223, 0.6848278688253737, 0.6901335706974049, 0.6954173464533286, 0.7006580832978025, 0.7058991049674558, 0.7111136005934776, 0.7163051458368666, 0.7214766949948483, 0.7266158146888174, 0.7317286454240951, 0.7368314725292913, 0.7418878136571393, 0.7468832522946763, 0.7518887623391437, 0.7568636683504586, 0.7617549842242566, 0.766673794359796, 0.7716043394308831, 0.7764468117721423, 0.7812564054507313, 0.7859743429529957, 0.7907235189754395, 0.7954157837032421, 0.800090775648663, 0.8047260414614357, 0.8093607568502816, 0.8139109551446576, 0.8184359937130843, 0.8229072837899362, 0.8273396507283349, 0.8316554353296702, 0.8360172780801877, 0.8403166388787014, 0.844589240894165, 0.8488149153921646, 0.8530272646717311, 0.8571543306316286, 0.8611645148242242, 0.8652087001638763, 0.8692020459868223, 0.8731970005513139, 0.8770818344830649, 0.8809128084339578, 0.8847012134563068, 0.8884397319811677, 0.8920602595887693, 0.8957056754313925, 0.899278681801531, 0.9028150755411412, 0.906294762807933, 0.9097045580619993, 0.9130722347434554, 0.9164308268079268, 0.9196765626090345, 0.9228668905940632, 0.925943070865592, 0.9290280523339467, 0.9321181110935252, 0.9350735953816415, 0.9379719090570364, 0.9407223215244613, 0.9435154472095272, 0.9462104472909518, 0.9488791332521561, 0.9514816016491048, 0.9540218171368301, 0.9564919420701445, 0.9588814770314926, 0.9612222824167881, 0.963496544869204, 0.9657173846170205, 0.9678568452393537, 0.9699059771246983, 0.9719163592370587, 0.9738589137993299, 0.9757935489197583, 0.9775925952455967, 0.9792874825495449, 0.9809612727515075, 0.9825668071732105, 0.9841244557158149, 0.9855901192157931, 0.9869373185806639, 0.9882732667302059, 0.9895377229184017, 0.9907044875246617, 0.9918293850286823, 0.9928832520001674, 0.993862292852069, 0.9947688750896597, 0.9956199715634699, 0.9963797821088946, 0.9970814330993921, 0.9976969217929723, 0.9982416692752917, 0.9987136043253071, 0.9991165364411652, 0.999463088987692, 0.9997212519479757, 0.9999086574921655, 0.9999444954428411, 1.0, 0.9999797114873066, 0.9998841706441698, 0.99971386732944, 0.9994786199950763, 0.9991589053865206, 0.9987624332048808, 0.9982974478316311, 0.9977597742826921, 0.997144067383861, 0.9964625531632637, 0.9957538306789584, 0.9949225325877479, 0.9940221540898638, 0.9930188787615442, 0.9919844253950477, 0.9908639037247319, 0.9896895207540471, 0.9884438627415645, 0.9871329987042589, 0.9857454062017927, 0.9843106598144503, 0.982781305955065, 0.9811843300396222, 0.9794524560552079, 0.9777294224033081, 0.9759563097968365, 0.9740901043860843, 0.9721559829519614, 0.9701151699713934, 0.9680519544711685, 0.9659765932157085, 0.9637703853443876, 0.9615006758925921, 0.959171567318768, 0.956775465948755, 0.9543078358408937, 0.9517890050078945, 0.9492083140287317, 0.9465119264707748, 0.943815982302617, 0.941084870636298, 0.938259809230844, 0.9353750212026338, 0.9324049744809406, 0.9294061861896367, 0.9264008210995739, 0.923278192294914, 0.9201012724807361, 0.9168105375217632, 0.9135340427571661, 0.910240750135716, 0.9068479984917518, 0.9034033592005168, 0.8999037606868839, 0.8963578708363088, 0.8927563455377652, 0.8891119036072339, 0.8854186679259087, 0.8816493511172235, 0.8778645833404386, 0.8740563273292269, 0.8701738418345308, 0.8662470034509525, 0.8622766573525487, 0.8582636583072842, 0.8541563827336462, 0.8500673163455513, 0.8459352719089622, 0.8417428172942633, 0.837531083836118, 0.8333053787148867, 0.8290112433918382, 0.8246810115349461, 0.8203194767348, 0.8159196990957677, 0.8114683888694334, 0.807006391448815, 0.8025125199350154, 0.7980497648187551, 0.7934876936283194, 0.7888049508709132, 0.7842054115737093, 0.7795766501181846, 0.7749107370956415, 0.7702289919641109, 0.765532917842928, 0.7607999688956433, 0.7560447682726222, 0.7512385114437186, 0.7464461375879655, 0.7417176700091757, 0.7368750881277605, 0.7320194546624543, 0.7271457319495195, 0.7222665099754941, 0.7173776861031863, 0.7124760304752559, 0.7075645450503931, 0.7025652941862107, 0.6976465173299979, 0.6926990820503748, 0.6877603598684915, 0.6828118347764459, 0.6778868894045137, 0.6729192068367115, 0.667940360534153, 0.6629673697932346, 0.6579924235742144, 0.6530203703650171, 0.6480443141569376, 0.6430884894111399, 0.638114040511383, 0.6331553746787365, 0.6281894035362029, 0.6232302631102066, 0.61825246011061, 0.6133125670772134, 0.6084009494806388, 0.6034747626709261, 0.5985593780409073, 0.5936518520781034, 0.588760968543922, 0.5838662386446171, 0.5790043867320731, 0.5741563087601225, 0.5693342319041959, 0.564515198620923, 0.5596647105927822, 0.5548872379451057, 0.5501259673964742, 0.5454064754923689, 0.5406780927864095, 0.5359744846701625, 0.5312885325698964, 0.5266255032029752, 0.5219655596474262, 0.5173533176019142, 0.512793264142292, 0.5082265114884981, 0.5036871810282953, 0.49912152125675213, 0.4946457385480587, 0.49023926553009584, 0.48581145755371974, 0.4814142778340935, 0.47704267824489405, 0.4727091848528441, 0.46835521858999946, 0.46409298685491845, 0.4598609997632153, 0.45571273211301766, 0.4515374915843214, 0.4473588400869516, 0.44326086537411663, 0.4391973929739263, 0.4352141051578322, 0.4312159851360609, 0.42716686807816145, 0.423258302088466, 0.41938410473007476, 0.41556210141088207, 0.41175728715147253, 0.40799790445725237, 0.40426859539407106, 0.4005787653745977, 0.39696258987675065, 0.3933487176690038, 0.38977366960631776, 0.3862454851667816, 0.38275980401130755, 0.3793129848182448, 0.37591310689201585, 0.3725146012808518, 0.369205295380667, 0.3659365442791818, 0.3627106699867936, 0.35952408376961503, 0.3563362381989881, 0.35323910689497473, 0.3501819572733157, 0.34718409872559647, 0.3442061565615982, 0.3412969587485879, 0.3384009000241062, 0.33554917549238517, 0.3327623169970482, 0.32999637999286674, 0.3272194065732987, 0.3245507010658619, 0.32192349145134763, 0.31930797759742935, 0.3167680820339025, 0.3143659128472617, 0.31189448926214075, 0.3094693148916995, 0.30699229719924415, 0.3046701405704135, 0.30245264191459525, 0.30020056041558557, 0.2979916877296091, 0.295765650192548, 0.29364962320368004, 0.2916229064087497, 0.2895779829517113, 0.287574757637643, 0.2855959513738835, 0.28367703343777206, 0.28177702742752414, 0.2799395114362141, 0.27813981360727835, 0.27635530077450393, 0.27463363162524346, 0.2730004836278422, 0.2713441852709876, 0.26972669591161386, 0.2680818262991382, 0.26654852140159974, 0.26502801103460794, 0.2635641139242388, 0.26213235609324026, 0.2608152397820248, 0.25943732528423497, 0.2580622956991065, 0.2567610674573667, 0.2554929339135515, 0.25430050358525125, 0.253091579135444, 0.25184538839742304, 0.2507125255276726, 0.2496079086064161, 0.24854816886604503, 0.24749714847156698, 0.24642761296201804, 0.24543872363181443, 0.24447455309326774, 0.24355932560794452, 0.24264101674988656, 0.2417463119922741, 0.24087869510370957, 0.24003542775138204, 0.23919911526915977, 0.23840509234499188, 0.2376384758538937, 0.2368868738647591, 0.236156474735274, 0.23543549849243922, 0.2347473125329802, 0.23407055355759057, 0.23342067928422808, 0.2327883132854759, 0.23220485450861264, 0.23160204520944716, 0.23101330684734372, 0.23044582211460377, 0.22989438345087423, 0.22937325840389253, 0.2288498392780569, 0.22837489428275567, 0.22787585406627325, 0.2273918269116739, 0.22687490673392086, 0.22642376037472492, 0.22596516054816482, 0.225534468501908, 0.2251112141323465, 0.22474374870859543, 0.2243280250686434, 0.22384627209972022, 0.2234571036343058, 0.22307105135285335, 0.22273856662433422, 0.2223518166470558, 0.22190292335358558, 0.22153469872825424, 0.2211666681432682, 0.22080621972640996, 0.2204372483101479, 0.22009840880570075, 0.21972561791403333, 0.2193540122114221, 0.2189867445025896, 0.21861525624425823, 0.21821903566820547, 0.2178493069879685, 0.21747667058560421, 0.217074510973417, 0.2166982520334295, 0.21635583405955028, 0.21596336191360524, 0.21556717135198286, 0.21520231965619824, 0.21479252745903846, 0.21432502528321717, 0.21391461539592435, 0.21349626646524816, 0.21306222023588942, 0.21262815125556503, 0.21219053808465532, 0.211737198521528, 0.21127454742364402, 0.21081916583634255, 0.21033488684096688, 0.20981325126788639, 0.20931362507672618, 0.20880234930521113, 0.2082736375134533, 0.20773927523552543, 0.20724679377560587, 0.20668045362789947, 0.20610439098161545, 0.2055011401806573, 0.20490603118925177, 0.20428361680343393, 0.2036654647302011, 0.20300917257048884, 0.20236640356249463, 0.20170818837006882, 0.20104207603685417, 0.20035215496859413, 0.19965480858954798, 0.19893403767507117, 0.19819865217774227, 0.1974372861007677, 0.19667374532198592, 0.1959621106681091, 0.19515887712855842, 0.19434384323130702, 0.19351271118368973, 0.1926729727020078, 0.1917710375237195, 0.19091021512898157, 0.19003258783187993, 0.18915330776631298, 0.1882406343277163, 0.1873330650455273, 0.18638677062259576, 0.18542616605378526, 0.18443425656019038, 0.18344682568202683, 0.18247385326559998, 0.18145166198990012, 0.18041583029545286, 0.17929500205984147, 0.17824056641715358, 0.17721135116353673, 0.17611623031929127, 0.17500670400951468, 0.17384353703322367, 0.17271057938758025, 0.1715689275737219, 0.17040311357195354, 0.1692224509532143, 0.16804791953532244, 0.16683601548374402, 0.16557396228410518, 0.16434163567616525, 0.16309486348496025, 0.1618941071818178, 0.1606122583656253, 0.15930943143755055, 0.15800946530300686, 0.1566990233833699, 0.155376324472496, 0.15404547264309626, 0.1526387819120104, 0.15129594398993615, 0.14993956532394606, 0.14860037630525982, 0.14721528542572893, 0.14581665376443478, 0.14441281385398902, 0.1429996863542553, 0.1416188912928902, 0.14018310560814412, 0.13873396641478344, 0.13728744805861193, 0.13583475043378676, 0.13433104534365609, 0.13287218531368442, 0.1314389163213656, 0.1299600757743438, 0.1284761271383528, 0.12694047237666728, 0.12545304331641838, 0.12405056338263759, 0.12253838776877637, 0.12102577829947678, 0.11944511834905958, 0.11793983850595949, 0.11643011943376214, 0.11491653863172471, 0.11339965146741865, 0.11193623021649898, 0.11040720761593238, 0.10887021510669871, 0.10734521726046671, 0.10582120656397707, 0.10422901402641416, 0.1027163418121099, 0.10123889693007745, 0.09971777014592566, 0.09819805891326747, 0.09662956292867687, 0.09512031518234683, 0.09368959561386819, 0.09217078888968294, 0.09065774732618173, 0.08908305061130398, 0.08759029665028341, 0.08609793227271356, 0.0846106374982758, 0.08312684497883296, 0.08164342947410086, 0.08016894819644003, 0.07875950316122264, 0.07728808509912256, 0.0758261456332186, 0.07432307386988227, 0.07288653063271142, 0.07146235032426078, 0.07003907109241236, 0.06862381238897639, 0.06724321682371034, 0.06584185951924247, 0.0644567642097379, 0.06307611166732226, 0.06170670383363314, 0.06031679021464834, 0.05897426723794762, 0.057669712854191264, 0.05634374691852998, 0.055030010985034725, 0.05376051582678154, 0.05246764902945557, 0.051123645649488146, 0.04986793020950953, 0.048622861040498254, 0.04736832312280981, 0.046148631914445015, 0.04494545966835158, 0.04374741473034952, 0.042561663867055954, 0.04141300146880851, 0.0402499959596266, 0.039075576207493794, 0.037945675920111284, 0.03682938343604525, 0.03572702857425215, 0.034638910423745506, 0.03363653343863748, 0.032568669252855204, 0.03151977738209139, 0.03040887890437607, 0.02940705640564638, 0.028454328572012876, 0.02747537062764782, 0.026512669036231184, 0.025592508227485107, 0.024659120790515236, 0.023749201867486136, 0.02285061602406754, 0.021969859969825683, 0.021118002785878835, 0.02027097282220454, 0.01942694007123855, 0.01861758695401992, 0.017824998965933356, 0.017109125789215935, 0.01634237964793668, 0.0155844232728277, 0.014858667308423557, 0.014151366416202649, 0.013432228030912615, 0.01276476816193857, 0.01210579009002382, 0.011471277717845677, 0.01085239754492114, 0.010327969109876458, 0.009730648062331357, 0.009114233734232497, 0.008561849408269338, 0.008026422368611312, 0.007586538981507634, 0.007074648364143455, 0.006568736810336945, 0.006099947149850491, 0.00564988408517471, 0.00519746293908405, 0.004786119439565043, 0.004391103306432685, 0.004012255126175654, 0.003649430208117785, 0.0033493601146775513, 0.0030122683798497088, 0.002727201833029623, 0.002421924231454708, 0.0021359033225204875, 0.0018553567955929772, 0.001607600752376282, 0.0014534533288789874, 0.001229124445328548, 0.00102518255179923, 0.0008913370958191437, 0.0007191643244801359, 0.0005190755807346665, 0.0003936849349147612, 0.00028445533328861093, 0.0002134842172399485, 0.00013259109919763924, 8.494593418053591e-05, 3.422837995630184e-05, 0.0, 5.301796329518446e-05, 4.13918759662853e-05, 2.46257688221978e-05, 5.364842872598481e-05, 0.0001213563528364713, 0.00017943041915521556, 0.0002540501803325861, 0.00037653645069697287, 0.0004786493374741604, 0.0006895157464817574, 0.0008132020328973329, 0.0009577991913744136, 0.0010733704934416883, 0.0012625126211435155, 0.0015172977228230492, 0.0017297102996917124, 0.001959275264853036, 0.0021753180147756125, 0.002441032378978627, 0.0028404236013160173, 0.003118197221141013, 0.0034160839394719884, 0.0037011406370904185, 0.004040203558889768, 0.004456651324410374, 0.004818517798190578, 0.005198606165393119, 0.005562390131885781, 0.005980953805159352, 0.006428829500688288, 0.006873929738785502, 0.007333838677558701, 0.007892683055574754, 0.008370908872038979, 0.008823149329067892, 0.00934430038598482, 0.009880505454409334, 0.010489688996683637, 0.011048142047500186, 0.011622614553436175, 0.012216566891914546, 0.012827346679208405, 0.013433993274749192, 0.014080083011491863, 0.014733522766222609, 0.015410266420223306, 0.016101482811512403, 0.01689164666280847, 0.017601512964158954, 0.018330978919923836, 0.019079516872201826, 0.019846690167817385, 0.020589028504395077, 0.021397930560343253, 0.022220317626452272, 0.023060361705490213, 0.023916039787702802, 0.024791316105682935, 0.025678436443326392, 0.026627044100656343, 0.027541662928348126, 0.028475691685667392, 0.02951144950210517, 0.03047343243983095, 0.03140287201995651, 0.03241865862307988, 0.033453711777236494, 0.03453613051896274, 0.035606141972292685, 0.03668955351642406, 0.0378021682993431, 0.03893503299366064, 0.0401181641869154, 0.041287843786072455, 0.042518999268955485, 0.04372780272887896, 0.044960743723404244, 0.046191248989897085, 0.04747487908376829, 0.04872794064419638, 0.05006215306060787, 0.05141558693615427, 0.052880687810421996, 0.0542626998163761, 0.055612674559762924, 0.05705396203461511, 0.05851769152382155, 0.06006985242300983, 0.06157130753883644, 0.06301941377591115, 0.06458542116840434, 0.0661739159226902, 0.06780425508345046, 0.06943715766727472, 0.07108222141236027, 0.07276772400377508, 0.07447851674157314, 0.07627130515642923, 0.07802695479983286, 0.07979178179857428, 0.08160959871213024, 0.08345602725639541, 0.08534814769297536, 0.0872503064312436, 0.08913769751943412, 0.09110609466616452, 0.09310242576808643, 0.09517406898874804, 0.09722185888713585, 0.09928668296929996, 0.10140049610656358, 0.10354565602320148, 0.10570365280302008, 0.1079145890444254, 0.11015279309226937, 0.11242663634384062, 0.11473206775386818, 0.1171125994209044, 0.11947692867805951, 0.12180516948848237, 0.12424879393323404, 0.1267235901107369, 0.12925454990800234, 0.13179042591126888, 0.13442429826795843, 0.13702092693500906, 0.13965595755193771, 0.14227665170511092, 0.14499442186356276, 0.1477207996853784, 0.1505118985880259, 0.15333697368165852, 0.1562452482032338, 0.1591335248915093, 0.16209171164525552, 0.16505202040238373, 0.1680521285653169, 0.17103179916023933, 0.174118380729768, 0.17725201289699521, 0.18040912300348788, 0.18360332453235384, 0.1868179390746364, 0.1900890177694944, 0.1934248874306977, 0.19676603484005944, 0.20014595831808082, 0.20356089880562533, 0.20701881802567493, 0.21048715154268757, 0.214025706416287, 0.21760123807038195, 0.2212345917517954, 0.22488210818333806, 0.22855707853584714, 0.23228337555134823, 0.23604764449351, 0.23982741673465552, 0.24367053045728845, 0.24757473711824088, 0.25148836101910516, 0.2554403227621752, 0.259501723558888, 0.26352094577764823, 0.26755020391529094, 0.2716565225710147, 0.2758015358492166, 0.2799342583268958, 0.28416195778344416, 0.2884450541375849, 0.2927397679265888, 0.2970705075523704, 0.3014183436926027, 0.30582293548743933, 0.3102918874856701, 0.31476133336346096, 0.3192666173588702, 0.32374735360726553, 0.3283306963846157, 0.3329940410266784, 0.33763381874669857, 0.3423076714262415, 0.34703014878974403, 0.35176890753751655, 0.35648310834125646, 0.3612957306072083, 0.3661374686893416, 0.3710007099524144, 0.3759012287501499, 0.3809011695263393, 0.3858488492494698, 0.3908282446216265, 0.3958103557499434, 0.4008541203059016, 0.4058898383817907, 0.4109926611076572, 0.4161198724354833, 0.42132363784915716, 0.4264919758876313, 0.431684669128727, 0.43690482872607644, 0.4421493778831282, 0.4473612471304889, 0.45265919661477727, 0.457945911658102, 0.46328480887150303, 0.4686400045382821, 0.47398315656919243, 0.47937375776147695, 0.48482130250145083, 0.4902339030117454, 0.4957053679335073, 0.5011432987421011, 0.5065979363685387, 0.5120381704659525, 0.5175266815656653, 0.5229706833959439, 0.5284889355599627, 0.5340140926161395, 0.5395213792435917, 0.5450621381818646, 0.5506295040363219, 0.5561752380367633, 0.5617254588577014, 0.5672531886116811, 0.5728134581114185, 0.5783875418063694, 0.5839469014899267, 0.5895063631064809, 0.5951156923047227, 0.6006663832607357, 0.6062211298087237, 0.6117706189809964, 0.6173179717148374, 0.6228356270672148, 0.6283781014063083, 0.6339130950184151, 0.6394395769000724, 0.644956510660713, 0.6504009944164596, 0.6559035254821869, 0.6614255173824983, 0.6668906779642532, 0.6723405063924037, 0.677682184833095, 0.6831100535612805, 0.6885726058721593, 0.6939460007242912, 0.699298585177016, 0.7045806878257396, 0.7098949909677471, 0.7152166212475322, 0.7204732220124561, 0.7257040249425367, 0.7308817872282396, 0.736061299045835, 0.7411805021811934, 0.746302343930423, 0.7513904889557486, 0.7564199110510411, 0.7614417164333822, 0.7664281977019178, 0.7713747569779175, 0.776282936900941, 0.7811201257689835, 0.7859532978987004, 0.7907364395223598, 0.7954848868381776, 0.8001891033183681, 0.8048484266458066, 0.8094621409757865, 0.8140069893594483, 0.8185300036720807, 0.8230037468866948, 0.8274425325315887, 0.8318137428598548, 0.8361081008117107, 0.8403804917645914, 0.8445989478418618, 0.8487608639347474, 0.8528694641676332, 0.8568767540875375, 0.8608776070452336, 0.8648180074609044, 0.8687855946799187, 0.8725924996711474, 0.8762748599074287, 0.8799748617503041, 0.8836114406378376, 0.8871914289690812, 0.890698198616454, 0.8941530417810419, 0.8975272888314858, 0.9008356922608075, 0.9039892808976618, 0.9071745560671398, 0.910337114206503, 0.9133692297854729, 0.9163305893900003, 0.919175571908643, 0.9219992138267733, 0.924725189434916, 0.9274010712242992, 0.9299999588850502, 0.9325217029341659, 0.9349661057613424, 0.9373460510094467, 0.9396333634130185, 0.9418432605114236, 0.943980938520136, 0.9460340076917411, 0.9479674461143222, 0.949868474460157, 0.9516878596333734, 0.9534742207049368, 0.9551237716116382, 0.9566602392811641, 0.9581547992848757, 0.9595670115124272, 0.9608910219572998, 0.9621385609541975, 0.9633308734525586, 0.9644079966549676, 0.9654030157493679, 0.966266805861361, 0.9671026572579852, 0.9678151283670167, 0.9684840548566045, 0.9690651991681819, 0.9696001906914518, 0.9700016789402744, 0.9703487338989055, 0.9705775228154558, 0.9707234762927953, 0.9707919568222829, 0.9707707936828536, 0.970591489202854, 0.970413323590215, 0.970147508440458, 0.9697758301121443, 0.9693386515282151, 0.9688405249939037, 0.968226251038947, 0.9675274367234856, 0.9667387908591767, 0.9658726073033586, 0.9649450712008714, 0.9639087421476886, 0.962790618700808, 0.9616059197990067, 0.9603230092435694, 0.9588886708450881, 0.9574545701812789, 0.955936705283685, 0.9543171807081574, 0.9526366770105416, 0.9509488022272194, 0.9490950334386455, 0.9471649298013329, 0.9451587470346171, 0.9430767915437552, 0.9408781773857282, 0.9386509999391033, 0.9363469333933745, 0.9339405498337615, 0.9314884691796349, 0.9289773413189772, 0.9263723174518721, 0.923694352496417, 0.9209424215261541, 0.9181213622154359, 0.9151923214853356, 0.9122358972710097, 0.9092086331479342, 0.9061941963782827, 0.9030183525844503, 0.8997029135890463, 0.8964117575261442, 0.8930545068659301, 0.8896773396142909, 0.8861857558978372, 0.8825928684828739, 0.8789871472179948, 0.8753206309458733, 0.8716113620278255, 0.8678246252721845, 0.8639534045749071, 0.8600585011102979, 0.8561076839819045, 0.852162198220962, 0.8480957301578673, 0.8439804468302193, 0.8398170853716551, 0.8356064342673201, 0.831264973810818, 0.8269729597887199, 0.822635304995357, 0.8182456706156841, 0.8138100729978478, 0.8093787582428649, 0.8048495573923017, 0.800264674247267, 0.7956610022364993, 0.7910196317216373, 0.7863192665123581, 0.7816089420502552, 0.7768988785483593, 0.7721147281883752, 0.7672999797577478, 0.7624388287827546, 0.757568237607519, 0.752697479344696, 0.7477680201178377, 0.7427675044473394, 0.7377966155003963, 0.7328009897603054, 0.7278195752356842, 0.7227740803678468, 0.7177008762993836, 0.712620979558986, 0.7075244100080013, 0.7023748712818122, 0.6972532857134852, 0.6920846527342185, 0.6869382432521276, 0.6817778422995685, 0.6765826482498306, 0.6714021253461266, 0.6662524858185186, 0.6610477361248553, 0.6558382770257375, 0.6505766058247655, 0.6453675810873747, 0.6401660163919969, 0.6349495740343185, 0.6297330710340309, 0.6245666147476007, 0.6193478930649565, 0.6141414564389194, 0.6089362108707634, 0.603739688445259, 0.598494629121122, 0.5933254733029623, 0.58819437930793, 0.5830389347906559, 0.577895927461636, 0.5727776394900479, 0.5676611785774961, 0.5624971244319888, 0.5574219193139366, 0.5523611061758058, 0.547310486245347, 0.5422833770741056, 0.5372725520229796, 0.5322832844465313, 0.5273145870400214, 0.5224538811760804, 0.51751894452212, 0.5125584801323633, 0.50768844290004, 0.5028449480807851, 0.49806824038590375, 0.49327547013064116, 0.4884278001112349, 0.483709098208099, 0.47901791803244514, 0.4743986104165204, 0.4697606575729965, 0.46515614228547686, 0.4605857527754808, 0.45605016274358917, 0.45155940409893996, 0.44709419044653786, 0.4426268692007127, 0.4382416882602764, 0.43389262780459337, 0.42958240415821286, 0.4253078253024995, 0.4210418642291046, 0.4168489911293256, 0.41269439109567324, 0.40862578684304074, 0.4045443190970167, 0.4004367832649754, 0.39645096921592216, 0.3925051531439986, 0.3886451730997736, 0.38477613368994407, 0.38096506141305214, 0.3771843282982867, 0.3734497116512988, 0.3697144864442724, 0.3660784432966901, 0.36254065855423656, 0.3589860397089343, 0.35547932707312385, 0.35198299724978055, 0.3485767497971916, 0.3452518487886853, 0.34193284609721747, 0.33866211430589294, 0.33538147600298845, 0.33221443966550046, 0.32912034317455824, 0.3260398011418519, 0.3230064126134858, 0.32001274519298756, 0.3170747857764374, 0.3141949341660123, 0.31134933127894837, 0.3085513068272114, 0.30582514139538375, 0.30311891146625447, 0.30044444580180063, 0.2978372908343406, 0.29527717629791156, 0.2927283091522162, 0.29026623820160935, 0.28781865136499346, 0.2854494006549882, 0.2831230428566889, 0.2808641686981176, 0.2786211077533314, 0.27640401588244423, 0.274252581090825, 0.27214443029882557, 0.27006073358477317, 0.2680412216686978, 0.26610854273111845, 0.264166966989318, 0.2622695801305068, 0.2603952329530059, 0.2585872430091526, 0.25678695180345645, 0.2550657419369856, 0.2533833201226139, 0.2517939074344436, 0.25018171088508745, 0.24857328251749428, 0.24704762054690782, 0.24555967830216655, 0.24411093281012142, 0.2426969735857924, 0.24133456509393925, 0.2399913318518314, 0.2386845032574978, 0.23737219638431434, 0.2361414632487987, 0.23497475811746435, 0.23380400292913198, 0.23266652734264204, 0.23155043394974617, 0.23047898681061627, 0.22939511469662133, 0.22838993130745272, 0.22741186922041856, 0.22649254882514386, 0.2255639042319478, 0.22468951455011854, 0.22381292363420546, 0.22296450893396283, 0.22207778565972106, 0.22129141445385797, 0.22055696514510575, 0.21981036816885124, 0.21908675125492869, 0.21839298626221182, 0.2177124923026903, 0.21704974259574886, 0.21641199718190024, 0.21579411170370905, 0.2152179021799012, 0.21463485461597528, 0.21408026232538852, 0.21353333282320677, 0.21300431133256406, 0.21242107159473278, 0.21193422340482804, 0.21151680334877726, 0.21104500089578448, 0.21058724815041693, 0.21009025882501348, 0.20966486606842397, 0.20930072703511957, 0.2088859079607117, 0.20848212108514738, 0.20805293810672176, 0.207673308460081, 0.20730597217168836, 0.20693851347717096, 0.20657710976079635, 0.2061799889459027, 0.2058343087987071, 0.2055076291878691, 0.20516386110055412, 0.20482269879342907, 0.20451183041851764, 0.20417101712371957, 0.20379368452612256, 0.20346284424776945, 0.2031312654181331, 0.20281922473084085, 0.202482509681834, 0.20213012541654066, 0.2017933973387769, 0.20145403562876543, 0.2011153631714506, 0.20076897571361205, 0.200394501635356, 0.20004329267445375, 0.19968606550844833, 0.19936379551998315, 0.1989885033476109, 0.19857866527991527, 0.19819741542920255, 0.19780679739200316, 0.19741045451615646, 0.19700582528534696, 0.19658883054362977, 0.19616711176279286, 0.19573028152555444, 0.19529000026446816, 0.19483931909837754, 0.19444921931147338, 0.1939679721115377, 0.1934326947999481, 0.19294221255228186, 0.19244035010814023, 0.1919717854114627, 0.19144055482115907, 0.1908883330369924, 0.19033840978253466, 0.18977691704188493, 0.18915094523271764, 0.18857172434115585, 0.18801433035904175, 0.1873991510926906, 0.18677061253866936, 0.1861059913155102, 0.18545291507183664, 0.1847995940956862, 0.1841141554188325, 0.1834143463471775, 0.1826644406430898, 0.18194007967352196, 0.18119531355593854, 0.18043833218428218, 0.1796648968652242, 0.17894644666771958, 0.178131693440178, 0.17729004691800743, 0.17645297800429383, 0.175602393568929, 0.17474560841153733, 0.1738665301611534, 0.17291767431423635, 0.17201848105811013, 0.1711023385854055, 0.1701921186863457, 0.1692403393104294, 0.16827393150523254, 0.16729302494629494, 0.16629775527400306, 0.16526764409548345, 0.16424668723624494, 0.16323502421557567, 0.1621811624458714, 0.16111423386441848, 0.16004184317128464, 0.15894816705444487, 0.15780284221788698, 0.15668966644204427, 0.15556219629748452, 0.1544846116744221, 0.15332180711859036, 0.15207457580051018, 0.1509022404030798, 0.14971605598891644, 0.14859345450556302, 0.1473715458403327, 0.14611173802611932, 0.14487767901992762, 0.14363382406641528, 0.14238601132739306, 0.14112251225548816, 0.13979023526466788, 0.13851694918317023, 0.1372319467351503, 0.1360203117710726, 0.1347033514955359, 0.13337396695913029, 0.1320480332112007, 0.13071666606942217, 0.12933309236576349, 0.12799709261761646, 0.12668152510253353, 0.1253271632544892, 0.12396780454040982, 0.12257000842747635, 0.121205838932785, 0.1198694601102151, 0.11848972615147804, 0.11710711910586842, 0.11564506781895804, 0.1142673033417151, 0.11292636315116497, 0.11153150466153518, 0.11013458539919217, 0.10876231339592302, 0.10735933482937371, 0.10596649917057249, 0.10456409697270577, 0.10316345121239272, 0.10169163349388571, 0.10030430679213205, 0.09899397271578712, 0.0975940442438669, 0.0961984017475533, 0.09478651707623525, 0.0934023626541891, 0.09201420979513462, 0.09063834935306905, 0.08926626335946175, 0.08792273293456848, 0.08655634424575474, 0.08516444842186964, 0.08381500920263357, 0.08247055941645817, 0.08108097660236566, 0.07975436002562056, 0.0784838012470202, 0.07715853656368218, 0.07584141960926406, 0.07451400753283852, 0.07321646325249401, 0.0718988001908606, 0.0706212589649152, 0.06935101519041376, 0.06815993642994271, 0.0668971373700852, 0.0655761688361255, 0.06434844021184113, 0.06312968560163928, 0.0620160847669644, 0.06080487915317508, 0.05958337760862175, 0.05840707969915603, 0.05724470749853504, 0.056017554105300266, 0.05489308704585879, 0.05377264830201405, 0.05266891814616327, 0.05157590526877344, 0.050518625756465985, 0.0494458481713556, 0.048441288486625704, 0.0473896395542165, 0.04635545951372436, 0.04526733097883872, 0.044276580761819034, 0.04337383998822414, 0.042400151077108685, 0.04144462878909852, 0.040428340740183664, 0.03951854120917812, 0.038674481712433005, 0.03778508030870045, 0.03691288389564785, 0.03605602413070284, 0.03521850095256742, 0.034424361539128166, 0.033617839981229775, 0.03283001347345295, 0.032004477380932, 0.03126067474884101, 0.030550729235087972, 0.02983513275873543, 0.029136367519039315, 0.028518296438327095, 0.02784550372883498, 0.027131598797450494, 0.02650769834879312, 0.025900273106002795, 0.025337608503746212, 0.02476005755449497, 0.0242009968032679, 0.02366030575757123, 0.023137873798756304, 0.022624225623664555, 0.022139196056415792, 0.021707227215711312, 0.02125257092413508, 0.020817328259887753, 0.020408686854650804, 0.02001042041621317, 0.01962176695467838, 0.019262362809608066, 0.018920856354996775, 0.018640193609786124, 0.01832853521632222, 0.01807420984778295, 0.017797007037487968, 0.017540824225430227, 0.017310589296924656, 0.017093724137444567, 0.016930069589148024, 0.01674733862384093, 0.01658495629254309, 0.016423481132466333, 0.01630215868282116, 0.01628450628831389, 0.016186830151712964, 0.016110808536303818, 0.016023619216093025, 0.0159921859174154, 0.016073687016506747, 0.016064436562503233, 0.016077146808910786, 0.01608262955847645, 0.016139739459824325, 0.016216279505022264, 0.01630777437762222, 0.016462880581012435, 0.01658156166523367, 0.016718905816526398, 0.016840507260273307, 0.017017538125929314, 0.017310819515672714, 0.017504933664315075, 0.017719445746996337, 0.017940299554013935, 0.018194581745294758, 0.01849605640629945, 0.01878043227996652, 0.01908273432925663, 0.019452952145606783, 0.019782919453243068, 0.02014327026310819, 0.020509279291273885, 0.02089354637208865, 0.021308497677958897, 0.021725630168117585, 0.02220493579045719, 0.022650201456234868, 0.023114163652730592, 0.023592315160395432