0.04084562571610219, 0.04037519051474397, 0.03999557499076458, 0.039548761372243134, 0.038992939640920675, 0.03859369110855824, 0.03819974810209518, 0.037898498348128314, 0.03750155754799452, 0.0370723518902452, 0.03669548112430719, 0.036322235989187206, 0.035878985549169164, 0.035520823737905126, 0.03528200781319009, 0.03490554215063368, 0.03453492604928034, 0.0341922513100843, 0.03382877771775056, 0.03346339720515637, 0.0331117246313773, 0.03276444725455843, 0.032292753022308614, 0.03196994946301433, 0.0316262311937718, 0.03130013531773928, 0.030971710882132148, 0.030740282821438276, 0.03039763863656569, 0.030023062348543555, 0.0296969305777675, 0.029374494231560237, 0.02907118910472983, 0.02875513481792706, 0.02838398094672746, 0.02808654829984214, 0.027791411300572853, 0.027473978936834502, 0.027188431636467093, 0.026943280019707767, 0.026658755162180296, 0.026380171029725535, 0.026150611394673336, 0.025879123871896347, 0.025518241188425984, 0.025276892923453975, 0.02503863594780245, 0.024864650102026938, 0.024626841916246547, 0.024462857045823228, 0.024233266231083333, 0.024015581815517984, 0.023721017241199325, 0.023536773962641238, 0.023400958590546746, 0.023222795013397704, 0.023053315551981025, 0.022809278187957575, 0.022667605750966064, 0.02261310605592293, 0.022469520904248932, 0.0223358614559413, 0.022189313908981826, 0.022078040788267923, 0.021889405651091865, 0.021805844947376165, 0.021726109721670273, 0.02179474516299586, 0.021706862132875822, 0.021625515423483104, 0.021566221507219756, 0.021519547216580635, 0.021419580627955362, 0.021405434894427876, 0.021459859003682306, 0.021454505997836215, 0.021461254656134812, 0.021374011852854015, 0.021417825562924018, 0.021467350276767924, 0.021523362254299117, 0.021586562782549504, 0.021637413084870626, 0.021719378924396588, 0.021884766118906218, 0.02197334801003812, 0.022075141011927778, 0.022079094259213134, 0.022221043849971714, 0.02242772120273397, 0.02257665180329368, 0.022737170179826165, 0.02288930606045261, 0.02307613675452731, 0.023296667392985474, 0.023502955293267822, 0.023722117050946828, 0.0238962262280567, 0.024148667818093526, 0.024441177834812047, 0.024709937411081555, 0.024991190426823236, 0.02539604712495859, 0.025688734364715145, 0.026003103396579384, 0.026333016402539437, 0.02668077741122483, 0.026924745378237764, 0.027321759725277128, 0.027748412287560215, 0.028162394807748528, 0.02858808653037661, 0.028957713413336358, 0.029416318847875295, 0.03002988645512065, 0.03048819879418943, 0.030964876324808533, 0.03143664218325634, 0.03195123977174124, 0.03241330310322414, 0.03296739072260402, 0.03353281170148189, 0.03415282157757963, 0.03473661387420855, 0.03526962243298687, 0.035891172421038335, 0.03652366194965441, 0.03722554341367338, 0.03787389285065563, 0.03846955378879836, 0.03915712027693114, 0.03985592046806303, 0.04062434336804425, 0.041339403324902796, 0.04210526535158487, 0.04284663210754889, 0.04360503094919546, 0.04440014472450831, 0.04518863651371189, 0.045830062751711746, 0.046672414102565674, 0.047521398792195205, 0.04843338001653685, 0.04929116659784729, 0.050256833100920106, 0.05112674304242419, 0.05201428216744815, 0.05285316635613666, 0.05378214367637325, 0.0547155235877664, 0.055669373284861844, 0.05663471180838894, 0.057583811814918104, 0.05857563946282867, 0.05955214508689915, 0.060567115227498, 0.06159085435469655, 0.06268416180845625, 0.06371857474772255, 0.06479355641342896, 0.06584975224173562, 0.06691960121134696, 0.06797983838299722, 0.069078187266725, 0.0701116687485759, 0.0712408521998866, 0.0723760033522012, 0.07351745423817985, 0.07466546441722448, 0.07585048552582949, 0.07700830993596208, 0.07826809476572656, 0.0794312417511501, 0.08060785294682411, 0.08180702743828641, 0.08300641362432318, 0.08408851250864034, 0.08532593148606141, 0.08656582338368646, 0.08791693414546459, 0.08914895608507685, 0.09030708204805554, 0.09156750422295679, 0.09283112912526506, 0.09414588849298919, 0.09540989162353283, 0.09667469712927043, 0.09795055745064493, 0.09923105529841246, 0.1005536155815074, 0.10183742269465275, 0.1030486565814287, 0.1043528544883185, 0.10565694463683092, 0.10696095819092577, 0.10826488252485497, 0.10959892294498043, 0.11089864876726759, 0.11219971948669813, 0.11345383091919152, 0.11476246396866512, 0.11608622335980913, 0.11738757198994361, 0.11868733162612558, 0.11994492338836703, 0.12124588044082776, 0.12267081583174347, 0.12394631157685425, 0.12522441939409681, 0.1263275308010058, 0.12762995136428906, 0.129007739886507, 0.13027913719490533, 0.13154595266776392, 0.13284312258254152, 0.13409520962817967, 0.13534358072394506, 0.1365875682424587, 0.1378265352492985, 0.13902457188090672, 0.14025615985710038, 0.14141847745063013, 0.14263995188531747, 0.14384874710949064, 0.14517365859177947, 0.14634136064626804, 0.14746364233984935, 0.14862526032800172, 0.14977754895289966, 0.15085186412301568, 0.15199243261712742, 0.15325690605683212, 0.15435042998944004, 0.15543699847041947, 0.15642467209874666, 0.1575054078597363, 0.15860618222495426, 0.15965176091344363, 0.16068370252463077, 0.16169143460730068, 0.16269593883574818, 0.16362684701145158, 0.16460713212644085, 0.16556786941475637, 0.16648397190193898, 0.16740913209319908, 0.16842954712056468, 0.16929876065461616, 0.17015405952256057, 0.17100466444633655, 0.17182832860350206, 0.17253285825721135, 0.17333732091003168, 0.17411875551669667, 0.17497315762008586, 0.17569690425084425, 0.1763000007101787, 0.17700154536077117, 0.17767860562963395, 0.1783288650636286, 0.17895783506409724, 0.17955506932853646, 0.18013672929691096, 0.18069390380177158, 0.18130733898656515, 0.18180547597514005, 0.1822257224776865, 0.1826907050173429, 0.18313120115650114, 0.1835899519062952, 0.18397567093212355, 0.1842733452462956, 0.1846218846927127, 0.1849433021531055, 0.18535620957081927, 0.18560867134941322, 0.18572236303061038, 0.18594835226920045, 0.18614565354960078, 0.1864304565759478, 0.18655628262068596, 0.1866175615546914, 0.18670461534084115, 0.18676601583176802, 0.18679136784899586, 0.1868018430107587, 0.18681300615319152, 0.1867657432885215, 0.1866927372273007, 0.18661131455213764, 0.18648366192492782, 0.18622198658476985, 0.186056498950909, 0.18585868462329477, 0.18564933686392265, 0.1853861166105432, 0.18509589610940652, 0.18477359488935466, 0.18442244928982462, 0.18404014869160382, 0.18363224805294007, 0.18316316416036113, 0.1827027859237932, 0.1822125221349015, 0.18173566327715998, 0.18118144256288332, 0.18066393605834108, 0.18004907103522985, 0.17941138129672224, 0.1787201066290166, 0.1780391649269063, 0.17726182091202253, 0.17653816248255857, 0.1757846865163241, 0.17512048670076735, 0.17429409812360236, 0.1734234737895282, 0.1725563846945998, 0.1716655980146214, 0.17076610982267046, 0.16982566806412458, 0.1688217858284117, 0.16784013979730805, 0.16683296362537903, 0.16576779478058595, 0.16471465873638225, 0.16361746845398378, 0.1625143517545732, 0.1613850030378323, 0.16030322971420016, 0.15911418420749346, 0.15789234130717864, 0.15666450095682694, 0.1554157907294273, 0.15409848212082553, 0.1528146549953064, 0.15151292728437743, 0.15018321181740107, 0.14883208111943358, 0.14752563811577105, 0.1461250038694062, 0.14470317648778747, 0.14327085460890257, 0.141822104935424, 0.1403444414291201, 0.1388648356780587, 0.137416487295161, 0.13589785828793205, 0.1343659584330263, 0.13288129154121672, 0.13131522666106443, 0.1296940510909508, 0.12811395432910186, 0.12652104896121621, 0.12495844817558681, 0.12333529207608802, 0.12174294476003525, 0.12009563695052411, 0.11844117108637864, 0.116895371683568, 0.11521153208669715, 0.11355457882501019, 0.11186470777022131, 0.11017408319581276, 0.10846940864016592, 0.10677698395826105, 0.10512693908193578, 0.10342265932880432, 0.10171783122484797, 0.09997942745269406, 0.09827703987554527, 0.09658200042771092, 0.09487324212143945, 0.09316313427295791, 0.09155042988527407, 0.08982649005844517, 0.08806021741313631, 0.08635325791160914, 0.0846715560738454, 0.08296726501083407, 0.08126768750268477, 0.07957567835327066, 0.07788627388158832, 0.07629368423981218, 0.07460536784656512, 0.07292919792415697, 0.07119945202570957, 0.06955549606611539, 0.06797786504991452, 0.0663439283943022, 0.06472297780286675, 0.06316065912493174, 0.061560788375637075, 0.059919432854018885, 0.058359990626218355, 0.056814047053351587, 0.05544369083572381, 0.05390649235286648, 0.0524116733199228, 0.05092114598819727, 0.04945539331228926, 0.04801907429130319, 0.04660123033074973, 0.04527076001498147, 0.043893593092701175, 0.04254435878170449, 0.04107900495096057, 0.03980297381431795, 0.038725277492212884, 0.037466447765477744, 0.03623937092078892, 0.034952970736869045, 0.0338001084368755, 0.03269356985498369, 0.03159125764800439, 0.030517827844154792, 0.02955208754997766, 0.028528480711016494, 0.027514903081641666, 0.026565029658635223, 0.025649184680521554, 0.024775352503850823, 0.023927907687554036, 0.023116289479402814, 0.022340959108672263, 0.021602408533204772, 0.020855768191709343, 0.02019808835156106, 0.019656938420466764, 0.019061672659689024, 0.018508605300557396, 0.018030729243580675, 0.01755860246175675, 0.017136334477364415, 0.01675327696855349, 0.016415532115885936, 0.016042565292601084, 0.015806160038222633, 0.015712009732231018, 0.015546582122467081, 0.01543004290636311, 0.015254006010010299, 0.015249125533865867, 0.015317588977342643, 0.015396117882149644, 0.015521486846679533, 0.015717073521587934, 0.015935275275677733, 0.016301891206421615, 0.016608225672529193, 0.016970980533774792, 0.0172838690619296, 0.017771795176474384, 0.01825131822559028, 0.018846472597814436, 0.019489346829503876, 0.020261724786320393, 0.020993028993110518, 0.021746809970472566, 0.022592953207374897, 0.023492882921059825, 0.024500005759083593, 0.025502148945448187, 0.02655728411967812, 0.027676078848342615, 0.02885254077030596, 0.030172436158096776, 0.03145351464238746, 0.03276696355292843, 0.03417650918411598, 0.035645847864461, 0.037111746377012055, 0.03870809672018928, 0.04034258685975639, 0.04205317113077555, 0.04381936190956738, 0.04568703801475563, 0.047560127914681914, 0.04948765426709843, 0.05148032386351363, 0.053532159244798525, 0.05570370417288037, 0.05786629794163432, 0.06002848272774651, 0.062323825480478566, 0.06467735453849544, 0.06703372232071966, 0.06951098942513405, 0.07206380498461333, 0.07464977413700144, 0.07729317261224805, 0.07995888597951249, 0.08272211873204192, 0.08568746747225167, 0.08854428608712402, 0.09146578496181795, 0.094380384541776, 0.09743732127548695, 0.10050437630734034, 0.1036832372463083, 0.1069170501980495, 0.11030936904709114, 0.11364047171077997, 0.11700240996485835, 0.12045869739489116, 0.12397277869249462, 0.12747609093450174, 0.13111293145914618, 0.13482754355420268, 0.13856639997237433, 0.14235934571318531, 0.1462061456643036, 0.15010653483122272, 0.1540602198283466, 0.1580668802674516, 0.16212617005020033, 0.1662654550681774, 0.1704253617294809, 0.17466853205623456, 0.1789299646530039, 0.18324478917382062, 0.18748604118062173, 0.1919209547107242, 0.1965181225862516, 0.20102575227663286, 0.20558409716723147, 0.21017204569599235, 0.21483158382352613, 0.21949258873361155, 0.22425087677643177, 0.2290520788526556, 0.23389838325895895, 0.23878404709617412, 0.24375197063280343, 0.2487158783157281, 0.2537229569694439, 0.2587017252167896, 0.2638014432613354, 0.2689957520371217, 0.2741610410637424, 0.27936553724657154, 0.28454027891793354, 0.2898291557740423, 0.2952112972610065, 0.3005576907091739, 0.3059395023373192, 0.31136839398037597, 0.3168166149814763, 0.32226787792765504, 0.3277854867853526, 0.33333263621579345, 0.33881526254326955, 0.3444309637594269, 0.3500988630379687, 0.35575454327193484, 0.3614336010443258, 0.36712794388874137, 0.37285306911608285, 0.37863216820904044, 0.38439490693501, 0.3901793662029808, 0.39602994014966864, 0.40184911455217576, 0.40762651492801333, 0.41349480460480886, 0.41937809556355815, 0.4252226357281923, 0.4311401911011651, 0.4371857940827477, 0.44310698110388125, 0.4490433635797057, 0.4549177427799419, 0.46088947627757587, 0.46677941289179364, 0.47277442608194353, 0.47876932957915075, 0.4848421463923044, 0.4908264026083929, 0.4968141729992625, 0.5028043748923724, 0.5087480117841177, 0.5147458654042718, 0.5207401854394099, 0.5267151296934951, 0.5327021062725211, 0.5387101540037168, 0.5446795689629476, 0.5506423774825623, 0.5566630981352096, 0.5626012731611529, 0.5684098167925407, 0.5743498633456592, 0.5802737696578097, 0.5861659202470006, 0.5920579261730234, 0.5979842228242732, 0.6038316508233661, 0.6096622002009191, 0.6153915488250866, 0.6211955236260671, 0.6270855595908158, 0.6328252983275418, 0.6385454214666081, 0.6441965405140654, 0.6498790981870355, 0.6555426182934063, 0.6611700565354769, 0.666769391049052, 0.6722891573253474, 0.6778355594505272, 0.6833781907394129, 0.6888520910629125, 0.6942923785886754, 0.6996174190079647, 0.704997838810677, 0.7102969217778606, 0.7156001492608072, 0.7208594238230288, 0.7260771309284109, 0.7312476689311199, 0.7364266390482145, 0.7415010098823678, 0.7465328969683964, 0.7514254949086144, 0.7563815635891946, 0.7612817645909873, 0.7661366090289788, 0.7709398306725423, 0.7756835235983095, 0.7803833571959149, 0.7850525984293368, 0.7896425145762803, 0.7941794095928806, 0.7986020048396394, 0.803038202475145, 0.8075366759074877, 0.8118397409188858, 0.8160901407623654, 0.8201805589461596, 0.8243348490647097, 0.8285147527377111, 0.8325322474881734, 0.8364912919116549, 0.840267179684481, 0.8441215409818014, 0.847975301272391, 0.8516836884768455, 0.8553271317303681, 0.858887286662546, 0.8624010017482444, 0.8658517743087385, 0.869228362040794, 0.872536205739571, 0.8757520470693413, 0.878923583191019, 0.8819704747146162, 0.8850049588435678, 0.8879640441160233, 0.8909133323369993, 0.8937134007564262, 0.8964215377414094, 0.8990800002286606, 0.9016643246028618, 0.9041866994650498, 0.9066199046265335, 0.9088901948050446, 0.9111847399411162, 0.9133987074731722, 0.915620614021999, 0.9176629969693004, 0.9195900208393288, 0.921486862204795, 0.9233052470556905, 0.9249642918197474, 0.9266353808055242, 0.9283489819601157, 0.9298374718311027, 0.9312503357629738, 0.9324356025032003, 0.9337143695205454, 0.9349349202511352, 0.936039009018885, 0.9370600773321051, 0.9380539352899343, 0.9389029171220601, 0.9396174069300334, 0.9403151446642332, 0.940930340702672, 0.9414078077841515, 0.941865764650924, 0.9423523163786143, 0.9426268489919472, 0.9428241435342988, 0.9428480119444672, 0.942901893997376, 0.9430033491726229, 0.9428741412092437, 0.9426698599020679, 0.9423571719809546, 0.9420053282946381, 0.941486954139945, 0.9409897038406559, 0.9404092526611346, 0.9397539578979187, 0.9390084810655549, 0.9382631628087694, 0.9373470384872216, 0.9363561184186704, 0.9352878081998102, 0.9341474643140404, 0.932901904762242, 0.9316156079806627, 0.9302529814086168, 0.9288523289605779, 0.9273337210101802, 0.9257020541421308, 0.9240433422583137, 0.9223101549216922, 0.9205157522704264, 0.9186339841175369, 0.9166047802669698, 0.9145895661466215, 0.9124994789691421, 0.9104265118442539, 0.9081788030398581, 0.9058370750936847, 0.9034606485903524, 0.9010171173122913, 0.8984264592889303, 0.8958609358672361, 0.8932460020202454, 0.8905401298664037, 0.8877684763991378, 0.8849018673182084, 0.8820056979642397, 0.8790628650979853, 0.876037085631783, 0.8729504333700792, 0.8697736672810051, 0.8665721266538289, 0.8633967425078676, 0.8600664264180327, 0.8566837331779295, 0.853178510631732, 0.8497013948282695, 0.8461215441083768, 0.8425420057785507, 0.8389072725930066, 0.8353197145634456, 0.8315663036292483, 0.8276970958440701, 0.8238627444533226, 0.8199803365816702, 0.816076283672368, 0.8120981411632777, 0.8080693164293375, 0.8040068291637558, 0.7999026792964088, 0.7958385720252692, 0.7916439509159864, 0.7873320502387406, 0.7830801910151549, 0.778790440372157, 0.7744665334087842, 0.7701043096598257, 0.7657155060498684, 0.7612851982304073, 0.7568234871425811, 0.752333984271871, 0.747812421387853, 0.7432124473550796, 0.7386423779172893, 0.7340436618287348, 0.7294253587693427, 0.7247728325588717, 0.7201418232944333, 0.7154371282207025, 0.7107137036386642, 0.7060228750067515, 0.7012583264373723, 0.6963091747278117, 0.6915405784648189, 0.6867503978000391, 0.681960866823739, 0.6771310362895947, 0.6722639061454713, 0.6674093128544368, 0.6625873199748681, 0.6577030496558659, 0.6528117314666951, 0.6478791863550827, 0.6429815831532524, 0.6381665160694684, 0.6332476786419647, 0.6283307427458854, 0.6233759199419243, 0.6184696031243843, 0.6135193441602874, 0.6086226666097359, 0.6037269035271603, 0.5988031619507049, 0.5939170974407261, 0.5891022758761598, 0.5842153965710962, 0.5793383673015499, 0.574466933695428, 0.5696126185441723, 0.5647198364852447, 0.5598966795727911, 0.5550843684046913, 0.5502715576451883, 0.5454862671146726, 0.5407248372623477, 0.535967042187341, 0.5312259776394263, 0.5265203329835411, 0.5218135799813494, 0.5171124347162503, 0.5124498686946022, 0.5078087815867978, 0.5032682419953688, 0.49866291169644233, 0.494073473944915, 0.4895269421776289, 0.4850086691580198, 0.4804787249152421, 0.47602334418550685, 0.4715196463848039, 0.4671293060522091, 0.4627636680424241, 0.4585199357006398, 0.4541956515421916, 0.4498246396040143, 0.44557882907551527, 0.4413631742169455, 0.43725435818155817, 0.4330924992855435, 0.4289427483266556, 0.42485897007272866, 0.4208116161952353, 0.4168163076612, 0.41284135676701694, 0.40884965501310255, 0.4049595035433325, 0.40110564806750826, 0.39728131763339064, 0.39350333595017906, 0.3897634442929218, 0.3860623419365556, 0.38240067543912754, 0.3788017356959983, 0.3752178181730552, 0.37158801563781113, 0.36810027699934617, 0.36465050920067427, 0.3613531440755864, 0.35796776229794725, 0.3545461036003959, 0.35126487621856217, 0.34802548290109053, 0.3448687684702822, 0.3417093875417908, 0.3385172729691732, 0.3354586569104763, 0.33244111367707024, 0.32958378612564737, 0.3266352177992406, 0.32362255740828727, 0.32078653281223546, 0.3179924619169442, 0.3153189693331805, 0.31260022560683814, 0.30983821334557676, 0.3072255881439108, 0.30465465709765893, 0.3021510356792459, 0.29966143149070584, 0.29718314000692647, 0.294785855396551, 0.29243077176502086, 0.2902088534395632, 0.28792720513485365, 0.28570585342303545, 0.28351728249675134, 0.28137573855299, 0.2792603244560257, 0.2772132564688814, 0.27514196305299216, 0.27319077452859364, 0.2712787550013032, 0.2694413347992439, 0.26760351726645554, 0.26581966771338184, 0.26406265410126145, 0.26234704997317565, 0.26059676125714487, 0.2589721929453484, 0.25743134917668953, 0.2558725123035945, 0.254352415480886, 0.2528984175507684, 0.251451143894364, 0.24990682247742413, 0.2485543403081484, 0.2472320414850345, 0.24609168272673956, 0.24481189640704326, 0.2435213869662121, 0.24232629557382762, 0.24116594759701868, 0.24009019090216047, 0.2389912031154981, 0.23783473455426024, 0.23681817138744266, 0.23583023190465865, 0.23486823092468478, 0.23393731004214813, 0.23298378570743417, 0.23211459515632898, 0.23126975778428177, 0.2304593791921513, 0.22966194393438835, 0.22900522058423167, 0.22824226678385748, 0.22750989284710704, 0.22671851296933468, 0.22605452927107134, 0.22536699632996066, 0.224752000533835, 0.2241554091335311, 0.22358213914901412, 0.22302126817980417, 0.2226272640046342, 0.2220834178167228, 0.22156524755070606, 0.2209021666838065, 0.2204518806951141, 0.2200711683222206, 0.2196367238499209, 0.21921705951605014, 0.2187762620499432, 0.21838877321509254, 0.2180929026188005, 0.21771671591404612, 0.21735523304707313, 0.21704267173487335, 0.21670293200355983, 0.21636668316996005, 0.21605413973436233, 0.215752214865659, 0.21542459579069853, 0.21514538646022163, 0.21490470582264629, 0.21463226132780672, 0.21436623072525596, 0.21407298858078008, 0.21382142828088715, 0.21363504656757584, 0.21337931522942716, 0.21312829163786234, 0.21284315478184948, 0.21260339280328103, 0.21236339401359533, 0.21212262748198313, 0.2118805696577114, 0.2116291395208029, 0.21138391265197146, 0.21109761778900665, 0.21085024548274153, 0.21059663049729296, 0.21035428840314954, 0.21008551380281856, 0.2097958440483535, 0.20951707208650194, 0.20923092089340742, 0.20891442589500406, 0.20861555204359122, 0.20825924608258475, 0.20794724139938098, 0.20762270782235495, 0.20726817385585067, 0.20692127696849674, 0.20666204367455018, 0.20627612595967212, 0.20588285285442462, 0.20538307251466068, 0.20498513027825202, 0.2046224462596051, 0.2041878992083501, 0.20373361853810565, 0.20327529204921652, 0.20280358381478486, 0.2023232154834831, 0.20182314400622386, 0.2013644901495806, 0.20082894344076252, 0.2002817648418961, 0.1996490587282549, 0.19908561335208444, 0.19861021850271343, 0.1979976853374478, 0.19737323926500483, 0.19676374052593779, 0.19610942769621678, 0.19528607322612973, 0.19462527027831966, 0.1939414081875577, 0.1933359568262743, 0.19259498227017882, 0.19179788714668328, 0.19103006656122223, 0.190243468032087, 0.18941542543296663, 0.18859422505889575, 0.18773037066892673, 0.18687233846028597, 0.18599349408591437, 0.18520263115303695, 0.1842695267819959, 0.18321932195567908, 0.18227125687811338, 0.18130256904628997, 0.18041199818949558, 0.17939080478337113, 0.17833545172107598, 0.17728836419732735, 0.1762252971303232, 0.1751788738059661, 0.17407928101223605, 0.17285679091701758, 0.17174166938964913, 0.17060547546253899, 0.16956238769844822, 0.1683717858020588, 0.16713316619137492, 0.1659212577274284, 0.16469405647554797, 0.16336340621120707, 0.16211709518007186, 0.16083326128883443, 0.15955032271700184, 0.15824822658707868, 0.15691778952673474, 0.15558129077755153, 0.1543057384144533, 0.15292571069144545, 0.1515343782238603, 0.150086407181955, 0.14867839404827737, 0.14727442971628643, 0.1458374866710462, 0.14438892287466626, 0.1429593226515144, 0.14148467399539483, 0.13998344159265322, 0.138493252432033, 0.13699336297718367, 0.13545381841684906, 0.13393927540197823, 0.1324697514801034, 0.13092786765431755, 0.12937978474598477, 0.12783064350381854, 0.12626985836841337, 0.12461027240294724, 0.12305043963479192, 0.12148023546266593, 0.11995107406769424, 0.11835663961126854, 0.11682046821953801, 0.11520892027932833, 0.11359695050080669, 0.11191386350293084, 0.11030976255021227, 0.1087617057226891, 0.1071416648211588, 0.10552183720382029, 0.10386200702479301, 0.10224813382479755, 0.10067054011959929, 0.09904936681891893, 0.09742989969650784, 0.0957518685044086, 0.09414423116929299, 0.09250546661705521, 0.0909007258014795, 0.08929499559265086, 0.08781532537491682, 0.08619453582666832, 0.08460022084214495, 0.08299463463677069, 0.08139851492189415, 0.07977887581302252, 0.07820529502626006, 0.07652296669723173, 0.0749788076705174, 0.07343595259086355, 0.07190321696605227, 0.07036566820315385, 0.06894678222114596, 0.06740619895242346, 0.06587895442006579, 0.06426659188131496, 0.06277816062149409, 0.061307446274448965, 0.05983382817949857, 0.05837000253587473, 0.0569292118718465, 0.05548524390069119, 0.05401826813535733, 0.05260377714330521, 0.051200435289301294, 0.04989212904754159, 0.04850254583974232, 0.04706762902747335, 0.04572129350726027, 0.044388908233232285, 0.04305328332752495, 0.0417523841858208, 0.0405615620830473, 0.03927759418070596, 0.038014275754126275, 0.03680154506234373, 0.035574803688638267, 0.03423851497778792, 0.03307109827841263, 0.031917178984255924, 0.030858244496543067, 0.029723444617239726, 0.028545821100650456, 0.027459370330180893, 0.02638952254921505, 0.02535947444140593, 0.024321428122556183, 0.023249685199710244, 0.02225703899836371, 0.021281053572119853, 0.02035510316515763, 0.01941001384115623, 0.01847493280998389, 0.01757145854156149, 0.016687797495381053, 0.015909878944999734, 0.015055574980911124, 0.014170944446314218, 0.01337338622620079, 0.012596805031276182, 0.012002585760086807, 0.01124757997381855, 0.010504977415655613, 0.009811014637269936, 0.009143680518404172, 0.008466819172798694, 0.00785475000318848, 0.007262557595014853, 0.006695325367139263, 0.0061498343325204026, 0.005661204095271646, 0.0051542161353714385, 0.00477386763965078, 0.004299931729804424, 0.003854321698058929, 0.003428346395088542, 0.0030371070609966954, 0.0026279356004804185, 0.0022912987648631526, 0.0019759138482152673, 0.0018026463615328594, 0.0015139922432911414, 0.0012680936980823162, 0.001031712703659527, 0.0008218092212687162, 0.0006349302760830729, 0.0004756284077415977, 0.0003175271119741383, 0.0002082966818012904, 0.00012059566743133709, 4.408573487190084e-05, 0.0, 0.0001476910537468503, 0.00012248298526943335, 0.0001270781500195951, 0.00020543353725346032, 0.00025978441714239874, 0.00030740863757235684, 0.0004220535867506544, 0.0005608262363146987, 0.0006952774738884206, 0.0008837731081395728, 0.0010955070699979251, 0.0013248881898869276, 0.0015847925323452799, 0.001853592261502029, 0.002143062288079096, 0.0025135082837263343, 0.0028360657350132096, 0.003272914871368737, 0.003630407479927064, 0.004015342319184722, 0.0044542474223453025, 0.004887084749184114, 0.005401202994857724, 0.005877614992730651, 0.0063810269895562275, 0.00694047652992535, 0.007490562771823286, 0.007945119892991263, 0.008560482274720425, 0.009192633276430018, 0.009902298427272511, 0.010560995316396484, 0.011311079972121474, 0.01200211513200247, 0.012717333317402138, 0.013360133956305562, 0.014133588073757102, 0.014979276600616423, 0.015779510722517518, 0.016600139450690964, 0.017375385790561814, 0.018244472797837114, 0.01923057913266206, 0.02011963170766768, 0.021031259033747408, 0.021954880592716136, 0.022911512933712228, 0.02399727967695948, 0.0249813825294269, 0.02599183464694866, 0.026931774796766367, 0.028004043207422103, 0.029134889159756566, 0.030238618372353723, 0.031363037496762135, 0.032591131402066424, 0.03374577807892042, 0.03492523220706362, 0.03612871313605489, 0.03735555295198982, 0.03852449715008408, 0.039806647289221946, 0.04110871180477432, 0.042425654839248594, 0.04376076818955006, 0.045111804822944836, 0.0464843890168318, 0.047991778986975014, 0.049387593249315055, 0.05080924472434846, 0.05219048075785425, 0.053670119902099946, 0.05519787835383408, 0.056714895976136104, 0.05825410417168374, 0.05979272821890249, 0.06137897954501981, 0.06298096664494733, 0.06460961239738777, 0.06625915569124113, 0.06794497115334673, 0.06963513071299417, 0.07132002862221602, 0.07305875996346428, 0.07481865229712727, 0.07671353445845566, 0.07850246963382564, 0.08034518312770075, 0.08218745987008517, 0.08405862195005548, 0.08593789007621389, 0.08786765898483151, 0.08976567708576855, 0.09175511229203567, 0.09376728730858533, 0.09577488788387997, 0.09783730395610991, 0.09998265000812176, 0.10208285338087576, 0.10421005007220673, 0.10630881822284925, 0.10849719659175917, 0.1108130707995427, 0.11303717969631738, 0.11529231506181101, 0.11744199015842584, 0.11977548923529803, 0.12220725172394874, 0.12457738942550967, 0.1269762393218085, 0.1293863496528728, 0.13184545817701251, 0.13427490827165364, 0.1367983778320397, 0.13934762719728205, 0.14195370901681387, 0.14455300594347636, 0.1472323899717271, 0.14988498435492026, 0.1525707624694592, 0.15522155547632524, 0.15798207523237623, 0.16074152640274994, 0.16356479457682926, 0.1664165963440605, 0.16932284659616822, 0.17223055917036323, 0.17520794473596293, 0.1781748878634333, 0.18117640196315474, 0.18420488172779698, 0.18727638857293405, 0.19036431764179335, 0.1935062666877345, 0.19668143229327448, 0.19985472795388187, 0.20310141806414742, 0.20647071606991968, 0.20977005290114784, 0.21310718224404232, 0.21647921812600182, 0.2198912089545956, 0.2233020827076941, 0.22679205932675456, 0.23031623774124402, 0.2338596481897658, 0.23745460813310507, 0.24106318890660744, 0.24472852823692537, 0.2484269874111448, 0.2521362248398339, 0.2559048036696657, 0.25983222773280573, 0.26365081664943335, 0.2675100128253164, 0.2713738004081442, 0.27531660641412276, 0.2793036801359808, 0.2833187108409385, 0.28737043704278975, 0.2914157407928057, 0.29554553986432874, 0.29970388381032653, 0.30390163718343166, 0.30813294464101815, 0.3123374078246756, 0.31664379228669154, 0.3210335347981968, 0.32539454121174555, 0.3297898427849012, 0.33415378484497166, 0.3386256543307235, 0.34324629151495406, 0.3477640542358403, 0.35231936413082016, 0.35680556313602235, 0.36144713696263586, 0.36612826523481173, 0.3708277164398094, 0.3755575577545121, 0.38027743417962023, 0.38507306886609166, 0.38992689449917134, 0.3947747307040756, 0.39965243680904694, 0.40464550149609985, 0.4095713418391035, 0.4145385858520358, 0.4195301072649358, 0.4245538650906389, 0.42957355950856946, 0.4346633070054028, 0.4398132371661204, 0.44495306477430996, 0.4501209702829878, 0.45527828207693577, 0.46050460685455563, 0.46565860473193177, 0.47094355247907105, 0.4762456482524571, 0.4815701913564947, 0.4869065983152261, 0.4923188608277916, 0.4976835533088852, 0.5030690693247402, 0.5084620702239274, 0.5138886213422574, 0.5192599343433099, 0.5247308347019382, 0.5302141585143858, 0.53567447811723, 0.5411866370291857, 0.5467136244657322, 0.5522446131386248, 0.5577853557341204, 0.563358196892579, 0.5689144484440399, 0.5744400954793634, 0.5800201687922891, 0.5855910332203592, 0.5911843512539849, 0.5967816514437186, 0.6024000601102187, 0.6080014467314306, 0.6136236701948214, 0.619228332198895, 0.6248354039894041, 0.6303832944122931, 0.6359996003932634, 0.6416772214860079, 0.6472761335335445, 0.6528731792398237, 0.6584015280217871, 0.6639993261861689, 0.6695045870870776, 0.6750935363556945, 0.6806670035717775, 0.6862500508994027, 0.6917887787720851, 0.6974008603716783, 0.7028979291487812, 0.7083835776419255, 0.7137856637040514, 0.7192528121889673, 0.7246546720878441, 0.7300868798628078, 0.7354948441871296, 0.7408956238264879, 0.7462510158645195, 0.751601324567514, 0.7569027110427363, 0.7621780478575347, 0.7673404273052736, 0.7725709651392036, 0.7778074315229232, 0.7829635299479473, 0.7880863731486744, 0.7931119242699732, 0.7981731989337709, 0.803176946193934, 0.8081601282693552, 0.8131012207408383, 0.8180778082287998, 0.8229230125381626, 0.827695757047578, 0.8324643211075745, 0.837188540724086, 0.8418294798500007, 0.8464664420484772, 0.8510333976443536, 0.8555724099681749, 0.8600587533984566, 0.8644488191793049, 0.8688329651784267, 0.8732907830882709, 0.8775429327792341, 0.8817438693212839, 0.885821274236302, 0.8899236370511824, 0.8940062408482071, 0.8979823606720752, 0.9018987611905238, 0.9056255720275083, 0.9094350078491334, 0.913294826249943, 0.9169475272485365, 0.9205360093435426, 0.9240463799427823, 0.9275042103468324, 0.9307950605028659, 0.9341269919029478, 0.9373826930338071, 0.9406628208697678, 0.943752629754421, 0.9466273315076383, 0.9495913485168672, 0.952473571216158, 0.955271538400582, 0.9579905773395305, 0.9606048948927828, 0.9631625768413502, 0.9656365508076825, 0.9680620076872742, 0.9703637017540021, 0.9726688683697721, 0.9747946308058398, 0.9768417880423668, 0.9787460279029967, 0.9806402067669833, 0.9824890158862497, 0.9842061427238672, 0.9858387824116449, 0.9873936733268314, 0.9888539582983532, 0.9901950837345261, 0.9914860227104936, 0.9926873370158456, 0.9937280667039322, 0.994758001874407, 0.9957135020881938, 0.9965519384570559, 0.9972973810170122, 0.9980481792320602, 0.9985952192706108, 0.9989211386161374, 0.9993093014834208, 0.9996009554265713, 0.9999150574735434, 1.0, 0.9998576008743335, 0.999782125859379, 0.9996090309230024, 0.9994675663341063, 0.9990848747400704, 0.9985707069266039, 0.9980156806477265, 0.9973686648931049, 0.996599392920636, 0.9957722360958964, 0.994821222090718, 0.9938110397794689, 0.9927062603088702, 0.9915932185911656, 0.990290197534865, 0.9888335888545027, 0.9873626681138955, 0.985799855254263, 0.9841910849319769, 0.9824403965209356, 0.9805263758510749, 0.9786100782206932, 0.9766023056085641, 0.9745745767676186, 0.9723776528512883, 0.9700555519549315, 0.9676943507098817, 0.9652466865452394, 0.962778844715859, 0.9601521575419878, 0.9573944754013893, 0.9546132754011625, 0.9517492436184021, 0.9487653609842824, 0.9457428779213498, 0.9425950452625184, 0.9394141810192022, 0.9361507438945361, 0.9329272457134818, 0.9294877470723133, 0.9259540628977084, 0.9223748187504858, 0.9187236353449373, 0.9149028950889874, 0.9111224813760309, 0.9072568397312629, 0.9033290759891578, 0.8993288664676451, 0.8953158420947769, 0.8911682663203815, 0.8868629653610169, 0.8825993602732409, 0.8782681824724204, 0.8738636993601318, 0.8694037579380074, 0.8649920584612711, 0.8603943888211333, 0.8557436019727058, 0.8510252835110764, 0.8462723891567456, 0.8413670184127645, 0.8365246753900007, 0.831627160321072, 0.826694045192631, 0.8216896538322515, 0.8166139641771412, 0.8115168381592468, 0.8063730177665032, 0.8012094551074329, 0.7959742266404513, 0.7906937645766531, 0.7853802142564537, 0.7800290305880363, 0.7747173158327108, 0.7692856681654258, 0.763719087604728, 0.7582436072891676, 0.7527349021157239, 0.7471973229546489, 0.7416272927052521, 0.7360169303115652, 0.7303947331305697, 0.7247474507031036, 0.7190717733406414, 0.7133801214772749, 0.7076959320308283, 0.7019619005091874, 0.6962124708315985, 0.6905347668150089, 0.6847478829904269, 0.6789495564942525, 0.6731512227803702, 0.6673325888235911, 0.6615267445272134, 0.6557167839742376, 0.6499038725757804, 0.6440892129563733, 0.6382009168624699, 0.6323957395344347, 0.6265884952030718, 0.6208466374850142, 0.6150325982516077, 0.6092357772549462, 0.6034359384990884, 0.5976462406951528, 0.5917342116144446, 0.5859852167343115, 0.5802852943620469, 0.574545592480364, 0.5688189791763575, 0.5630819606296021, 0.557389816094908, 0.5518025853650984, 0.546134362121784, 0.5404911933737209, 0.5348134697410951, 0.5292308062414344, 0.5237356299467932, 0.5181953534641354, 0.5126859340275727, 0.507183018841957, 0.5017411103035714, 0.4963590294756662, 0.4909789168213736, 0.4856346789156146, 0.48018850264586127, 0.4749361681109148, 0.46974986602034363, 0.4645565408305978, 0.45939981175262723, 0.45424584279084046, 0.4491710839501232, 0.4442460460977899, 0.43923633549689395, 0.43427457840623285, 0.42921497133086045, 0.42436896778525585, 0.419687666528922, 0.41491002357329027, 0.41018370057124043, 0.4054133195388145, 0.4008030797091995, 0.39623004586363264, 0.3917169010646586, 0.38725286166175305, 0.3828113304028069, 0.3784523368904516, 0.37418187071800313, 0.36992061850572666, 0.36571432262237663, 0.36156612506276653, 0.35747123876625325, 0.35339535488169666, 0.3494193713533433, 0.3454989961034917, 0.34176353073723736, 0.3379401593331627, 0.3341411821680848, 0.33045186648436203, 0.3268240546299612, 0.3232702940784849, 0.319763731988243, 0.3162637733097819, 0.3128882542789519, 0.30957147030106436, 0.3063541212109483, 0.3031507299061603, 0.29987311394162075, 0.29681071441442713, 0.2938024178249479, 0.29090217264771484, 0.28799823839298727, 0.28521447793299776, 0.28242239345291065, 0.2796936784312516, 0.27694471509972746, 0.27435204589782375, 0.27177653848656014, 0.2693042675230011, 0.2668877298473074, 0.2645601608746522, 0.2622522041970756, 0.2601112947700202, 0.257906767418122, 0.25576668140563036, 0.253679873317878, 0.25166677733681164, 0.2496035642403121, 0.2477253277554419, 0.2459000756628267, 0.24423131700000694, 0.24249925926395782, 0.24074290906999113, 0.2391382626570956, 0.2375860119654488, 0.23614142079662184, 0.23468626352343502, 0.2332807782611573, 0.2319348749328724, 0.23064178610579472, 0.22933771876438366, 0.2281559627076095, 0.2269833939200183, 0.2259001874786147, 0.22486129783061223, 0.22391203635405768, 0.22295572109921188, 0.2220356833382871, 0.22117267168554092, 0.22035403413073076, 0.2195564093137101, 0.21882735300905073, 0.21811912658537358, 0.21747404898027076, 0.21686764229047922, 0.21643051961965926, 0.2158833036474732, 0.21534260930652083, 0.2148871446283327, 0.21447055096231746, 0.21411679513226312, 0.2137710450454904, 0.21345941400256166, 0.21318590549216906, 0.21294622948123978, 0.2127517506371103, 0.21257445527789323, 0.21231209305280066, 0.21221006485659477, 0.21213000453633768, 0.21210445614851106, 0.21206339648699113, 0.2119897197608187, 0.2120006559958707, 0.21202984541769132, 0.2122332797552971, 0.21227810748990483, 0.21219489908985895, 0.21230891309611916, 0.21243654635435208, 0.21267070806860333, 0.21281255431967583, 0.21297189136128974, 0.21314739186982135, 0.2133377714992115, 0.21344344729546524, 0.21367232132491318, 0.2140002239054392, 0.21422841637556245, 0.21446680540277996, 0.21458556336358361, 0.21485694930882704, 0.21520337875057885, 0.2154639082386863, 0.21572780608866002, 0.2160118425214687, 0.21627760381170658, 0.21659803378136155, 0.21685951501814132, 0.21712366763705943, 0.21735378828087518, 0.21762361323490462, 0.21779684066008198, 0.21807094216613016, 0.21833469795908161, 0.21857537915275535, 0.2188196007457826, 0.21912531885842823, 0.2193368282255262, 0.2195403268048668, 0.21981306490733554, 0.21998793749017775, 0.22000774953098917, 0.2201873811566655, 0.22034954182374095, 0.22060258275974562, 0.2207158126821357, 0.2207290102121194, 0.220828733389175, 0.220909581864255, 0.22107971611820504, 0.22110828670551647, 0.22104502972088097, 0.22105495446585435, 0.22104451078520346, 0.22098808370573125, 0.22093889233980127, 0.22093732442798222, 0.22083306095753807, 0.22070938520479566, 0.22055542106364004, 0.2203918843863658, 0.22015069868017284, 0.21994927968898562, 0.21979716674968114, 0.2195334827019047, 0.21924763837654052, 0.2189465300163751, 0.21861346633564285, 0.21825432362114922, 0.21787390960940692, 0.21746874684301162, 0.21693503289544205, 0.21649222813529845, 0.2160959155972931, 0.21558042331912297, 0.21503866748242798, 0.21444774996676444, 0.21385575091559103, 0.2132205563833042, 0.2125743972209578, 0.2118994452316151, 0.2112311896202722, 0.21049474364775914, 0.20979506146911964, 0.20899798122934257, 0.20817796444848274, 0.20720333424800635, 0.20635243759430955, 0.20557321989046684, 0.20464659822082437, 0.20369551942760655, 0.20257354657161974, 0.2015915311362691, 0.2006445283339855, 0.19958891439299542, 0.1985062429464414, 0.1974347446300691, 0.19629438950169, 0.19507229885105637, 0.19389187211785086, 0.19268463897915944, 0.19143103657903907, 0.1901745403730964, 0.18889437437169915, 0.18758587560762022, 0.18625268762554809, 0.18494837128629035, 0.18356091352188983, 0.18215349644424172, 0.18072624132519927, 0.17927930838202413, 0.17785323855562293, 0.1763624749062763, 0.17487264174381628, 0.1733461781674247, 0.1718039982518109, 0.1702132860960025, 0.16864378496543714, 0.1669837173707167, 0.16538901167299483, 0.16377365616016606, 0.16213367911782825, 0.16048082311706224, 0.15892356395623597, 0.15722159174179587, 0.15551001727977018, 0.15368039593139662, 0.15196334432015635, 0.15023834035568184, 0.14849036707437674, 0.1467293894753427, 0.1448958062152156, 0.14311918252201597, 0.1414246245034179, 0.13960969707755097, 0.13778893904482203, 0.13588961153354953, 0.13406761901344408, 0.13235543696729757, 0.13050211011363402, 0.12864878195903579, 0.12684083931914164, 0.12498184708481554, 0.12302980851281341, 0.12118831776463455, 0.11934401375994318, 0.11750779241540964, 0.11565900341004055, 0.11385322395363963, 0.111999995288037, 0.11015069912748454, 0.10830820184367575, 0.10646752737099709, 0.10459677851731365, 0.10277145394998237, 0.10095027206261886, 0.09912139931501837, 0.09731240618462515, 0.095544433710753, 0.09374325513882786, 0.09195142983362783, 0.09012407789212104, 0.0883582318048015, 0.08653771221233697, 0.08479746780248984, 0.0830638177146688, 0.08136331145165919, 0.0796435684639651, 0.0779582490546699, 0.07625996201873027, 0.07457635985307745, 0.07295846149385138, 0.07129960172587857, 0.06967762110305817, 0.06805511962277296, 0.0664531380074531, 0.06471287929694466, 0.0631722384732963, 0.0616762811313524, 0.06015675517729216, 0.05865374650045899, 0.057173239147403125, 0.05570537584339149, 0.05432499861406452, 0.052888034079868695, 0.051475634627018776, 0.050075241528322295, 0.04871373698318101, 0.04731831208629512, 0.04601250248444237, 0.04472794374925656, 0.04346279961019677, 0.042223059802636284, 0.04106179064893909, 0.039861579684712795, 0.038688526940936926, 0.037613245359833555, 0.036485631458139725, 0.03537156613906494, 0.03430806659744143, 0.03327382468626057, 0.03225348908672855, 0.03127905377925741, 0.030382920853012647, 0.02945787379140223, 0.028563583333057894, 0.027588744633210694, 0.026768976886328538, 0.025970310228949533, 0.02519879426961558, 0.024452062618275504, 0.023854237097457126, 0.023143093539255654, 0.022492921671662662, 0.021844137801590797, 0.02122901017553251, 0.020614068595264476, 0.020068409575111405, 0.019562822816741335, 0.019075657257589453, 0.018618660840332805, 0.018184028993359358, 0.017787633517867652, 0.01741529438478798, 0.017077622332485366, 0.016768547581065607, 0.0165333956417795, 0.016275589758328147, 0.016114292799156014, 0.015909659100701128, 0.01573881584138838, 0.015505052625628261, 0.015411317845011952, 0.015401579660704464, 0.015352642547067532, 0.015333182577256212, 0.015436093027721776, 0.015462614330893867, 0.015547940396621456, 0.01563737608146339, 0.01575977285053705, 0.015861108081336752, 0.016053020253494157, 0.016289681592089676, 0.016533212615772112, 0.016804163438395744, 0.01726094394227983, 0.017565350783818663, 0.01782164827698798, 0.0182051427972056, 0.01861598016111276, 0.019179609443545204, 0.019627374727397447, 0.02009020244879881, 0.020604143093680107, 0.021147006368597024, 0.021722806169006913, 0.02231990250549782, 0.022938399172601744, 0.023588249977815723, 0.024262803287922845, 0.025029563637678047, 0.025743244166577237, 0.026458670444618696, 0.027228487506901183, 0.02802200857696064, 0.028952127304665374, 0.02977704558725817, 0.030590133181295318, 0.03147584124386803, 0.03246848212401848, 0.033390386369332385, 0.03433930248033376, 0.035339194445354535, 0.03633533707537884, 0.03735404787775055, 0.03839962057495277, 0.03946813118755203, 0.04060415652981527, 0.04171047068658119, 0.04289306957665575, 0.04403843779093411, 0.04520838733168519, 0.046295882381897614, 0.047525125230456315, 0.048845655404105064, 0.05009671133528133, 0.0513678319356735, 0.05263326953753627, 0.053946174740643185, 0.0553217063128165, 0.05666319494012855, 0.05802417533167486, 0.0593537305070736, 0.06075866741147548, 0.06221175135368769, 0.06364335165606336, 0.0650922941436592, 0.0665734961686693, 0.06805459790928711, 0.06960627252107765, 0.07111564910666683, 0.07264510337811023, 0.07417130130041077, 0.07574193578934185, 0.07733471980646786, 0.07893868108047722, 0.08055956824715477, 0.08221732795963213, 0.08386887272114137, 0.08556310794540128, 0.08724611570170801, 0.08894745808078701, 0.09062132904269228, 0.09236388266656193, 0.09420435233144425, 0.09596591011115209, 0.09774706735775766, 0.09947414335495555, 0.10130215584699859, 0.1031921411556431, 0.10504248127220395, 0.10691007531504808, 0.10887293894186995, 0.11076474459451437, 0.11260220728836624, 0.11454550832320091, 0.11650462750339098, 0.11848726826204832, 0.12047749601844006, 0.12252224017830915, 0.12454118425281184, 0.12657918242887056, 0.1286461586187404, 0.13072055494296914, 0.13280667001394583, 0.13492048605597654, 0.13705300250061936, 0.13917653189988818, 0.14135013446029832, 0.14354364032823694, 0.14575204456928623, 0.14797868088966382, 0.15023396225664218, 0.15249676669818987, 0.15474656555127653, 0.15705330295027312, 0.1593784644568294, 0.16169483373447083, 0.16406188459168639, 0.16656579788411685, 0.16895524171592238, 0.17137098794215117, 0.17384292720020686, 0.17630643195306056, 0.17863569596217152, 0.18117348502264025, 0.18372866322736855, 0.1864157760121841, 0.18899453253144632, 0.19156220239564742