0.05850505510657827, 0.058073094959987186, 0.05757734047244914, 0.057087919894686014, 0.05653092790564905, 0.056060781868931896, 0.05569664311726133, 0.055212735677595166, 0.054734615436045894, 0.05423932368672792, 0.053773170683704366, 0.053322650389620786, 0.052859192597599365, 0.05239820337086393, 0.05189289263452066, 0.05144175403508645, 0.05092327646143368, 0.05047875986177326, 0.050029925080573, 0.04967039148333065, 0.049203261954441885, 0.04871685897729485, 0.04825799248888567, 0.047800318616423025, 0.047281928543262255, 0.04683455054724356, 0.046413737282972246, 0.04595888390700426, 0.0455044765288425, 0.04501089905125143, 0.04456299202286216, 0.04423106384132048, 0.04376629586831714, 0.043307730280326036, 0.042733131936408916, 0.04230068232370883, 0.04195012714424019, 0.04150332907770398, 0.041060210621767804, 0.040549780154977996, 0.04012236532952394, 0.039716225299789305, 0.03928475976098775, 0.038854509947832364, 0.038405730124047424, 0.037980893944984634, 0.03767160461498571, 0.03723355392507647, 0.036802996949105056, 0.036281895672635615, 0.03587657601201169, 0.03555766552161305, 0.03514203886478065, 0.034731986498323875, 0.03426734418421062, 0.033874722708590314, 0.033553951265560586, 0.03315472128045818, 0.03276092222237525, 0.032316861541856874, 0.031939788575346025, 0.03156845001892194, 0.031193645683346687, 0.03082080062509283, 0.030487663087045414, 0.030114413681820756, 0.029765559422146395, 0.029398594414679884, 0.029036917333670257, 0.0287797900185323, 0.028415329933470873, 0.028078753351771287, 0.027731485279849987, 0.02733170406129602, 0.027010269876522136, 0.02669323198690514, 0.026404820167928153, 0.026093234266388193, 0.02587790680945485, 0.025565803120848225, 0.02526402453430774, 0.0249252952006205, 0.024647691652887237, 0.024400035521170264, 0.02413048649623009, 0.023867761179425902, 0.023635979246825995, 0.023383250999940264, 0.02324663280015997, 0.022995407142045433, 0.02275755995304653, 0.022503339879041316, 0.0222930538243203, 0.02210306117323328, 0.021909506370769116, 0.021725213617746566, 0.021594151795961507, 0.021422059102928527, 0.0212611238806344, 0.021110923846416045, 0.02097113215988223, 0.02088132052162302, 0.02075665884347453, 0.020772417341758186, 0.020655431383019205, 0.020557137519259146, 0.02038119933213433, 0.020328838603009127, 0.02035529952058272, 0.020314847798572587, 0.020288688475074066, 0.02031624210139921, 0.020312554547984647, 0.020348836955855255, 0.020372908094585016, 0.02041320633530771, 0.020469298118600602, 0.02054085892574219, 0.020607753411521008, 0.020712168957713856, 0.020830494663753613, 0.020996063952308252, 0.02113851635541558, 0.021277402232106644, 0.021455033496329178, 0.021647903784388876, 0.021873950037245127, 0.022095807016834324, 0.022385553154418706, 0.022635159745779114, 0.02290496701686092, 0.023245643252052747, 0.02354887520755478, 0.02382166784141378, 0.024176480255539822, 0.02455021151995671, 0.024951900144346405, 0.025362948767151228, 0.025893593660896944, 0.026332365061817048, 0.02679717943952217, 0.02726756090336943, 0.02778538880190788, 0.028331198555211167, 0.02889548941663416, 0.0294834620102349, 0.03009731750410167, 0.030732394958312217, 0.031360432687912054, 0.032047391039904796, 0.03275679968264033, 0.033599684222877534, 0.034341300300024545, 0.03503544123491862, 0.03584625945027894, 0.03668184220729434, 0.037555813470419176, 0.038440311374429326, 0.03931821486440033, 0.040260334876806296, 0.041227709436012096, 0.04222752612769363, 0.043246202916701164, 0.044351814133142424, 0.04541779838550263, 0.04651519834519103, 0.04769481415358478, 0.04884844085034648, 0.049972111611662096, 0.05120187254970443, 0.05246159838737079, 0.05376488091983941, 0.05508382266091889, 0.056432230672584134, 0.057815026939532645, 0.05922982694740226, 0.060685737733962485, 0.06216421130437473, 0.06365386210482792, 0.0652019275209757, 0.06678246431875226, 0.0685263749174266, 0.07015654180081159, 0.07180112095615783, 0.07351586464114623, 0.07526881303458377, 0.07698229709382828, 0.07882075253400667, 0.08066596173870567, 0.08257491527057316, 0.08451674253596518, 0.08654301847864977, 0.0885462104445885, 0.0906711279058349, 0.09273918088986059, 0.09484991522532468, 0.096883368713231, 0.09909309625898215, 0.10143039690905374, 0.10369840261320203, 0.10600759253044893, 0.10827152306262797, 0.11067349256747987, 0.11320650199032815, 0.11566893090999764, 0.11817382509153779, 0.12063688584080656, 0.12323664319593912, 0.12592441289462245, 0.12859256436522565, 0.131301753722805, 0.13400999123611626, 0.13680668304134327, 0.13961784305555885, 0.14249559088045446, 0.1454114929634129, 0.14849212248826307, 0.1514698169823082, 0.15440115002749866, 0.1574829802757173, 0.16060484019506854, 0.16385762554472394, 0.1670486722645525, 0.17018583746815602, 0.17348016935959631, 0.1768134190535895, 0.18024562242771303, 0.18365005231097783, 0.18703783219927053, 0.19053565405376383, 0.19407261300151532, 0.19763344169630345, 0.20125123473702816, 0.2049188697831372, 0.20861304261144925, 0.21234699253851033, 0.2161981597434948, 0.22000191401743707, 0.223836493272718, 0.22772942735309856, 0.23166438177444376, 0.23568731760636716, 0.23969900012324083, 0.24373622459411584, 0.24783582584738284, 0.2519761485039079, 0.25607703228735856, 0.2603073004061752, 0.26463645804609515, 0.26892829273571145, 0.27325878668414066, 0.27767394494862324, 0.2820745621791721, 0.28645984720461876, 0.2909465966460019, 0.29546867954825895, 0.30003248219836975, 0.3046236285276935, 0.3092695906903336, 0.3139276860832575, 0.31862109497071667, 0.32332274355328, 0.3280885514611711, 0.33295297234989335, 0.33777460611147997, 0.34263160388908287, 0.3474567333349274, 0.3523902669671113, 0.35730649155349026, 0.3623039535388896, 0.36732745931704736, 0.37236823475651476, 0.37744508681694383, 0.38254525997685457, 0.3876733798272816, 0.3929129453478123, 0.3980803251690213, 0.4032772729719036, 0.4083988212872246, 0.41366505804397763, 0.41903836509481385, 0.42433522554428516, 0.42965748907730694, 0.43492902221801727, 0.44030883243095154, 0.44570266883786586, 0.45111966359291594, 0.4565542476984285, 0.46199942595399845, 0.4674688922892744, 0.4729808740601626, 0.4784784676825558, 0.48399254987787876, 0.48950465558159223, 0.4950516281870576, 0.5006427113690041, 0.5062113898720781, 0.5117935881491524, 0.5174082434207311, 0.5230120625054365, 0.5285590627111275, 0.5341939418784739, 0.539834529220737, 0.5454604068930379, 0.5511133466341981, 0.5567382370751776, 0.5624004427147755, 0.5680628034864481, 0.5737714266861723, 0.5794271203883434, 0.5851152921281404, 0.5907691694743753, 0.5964244387378965, 0.6019803741766688, 0.6076474644149656, 0.6133710029579933, 0.6190142644462414, 0.6246526979431236, 0.6302388591373832, 0.6358705244991609, 0.6415404291111386, 0.6471444730294243, 0.6527395315451108, 0.6583245024610322, 0.6638982955981074, 0.6694310775555744, 0.6749829252662165, 0.6805187769492866, 0.6860311800002765, 0.6915334083979401, 0.6969061665958866, 0.7023838114013978, 0.7078347217404655, 0.7133120177024911, 0.7187027250437623, 0.7239853638557665, 0.729337932427781, 0.7346602632565872, 0.7400384914651109, 0.7452889410443432, 0.7504513494282332, 0.7556562890689966, 0.7608294031101639, 0.7659169941909749, 0.7710312799396624, 0.7760866526300865, 0.7811298205836863, 0.7861342123901611, 0.7911990487985969, 0.7961122696031673, 0.8008583830603326, 0.8057182420011663, 0.8105335882250367, 0.8152909368670294, 0.8200181975266726, 0.8246970667765391, 0.8293318815779533, 0.8339195802469973, 0.8384441817850975, 0.8429380499878676, 0.8474729483178813, 0.8518554992967441, 0.8561923564482627, 0.8603958907220215, 0.8646482228682605, 0.8688261684860221, 0.8729715331954758, 0.8770602084671143, 0.8811713799080475, 0.8851352313602044, 0.8889635539204962, 0.8928291659094886, 0.8966341266983608, 0.9003536504628807, 0.9040389833846707, 0.9076387109243345, 0.9111995142945777, 0.9146948377296696, 0.9182328044450998, 0.92158263131877, 0.9248057702927894, 0.9280420541295907, 0.9312118160976107, 0.93431446394583, 0.9373494051282824, 0.9402718111703959, 0.9431751645194788, 0.9460065703638932, 0.9488211082023592, 0.9515009387993987, 0.9540337559208043, 0.9565834292579265, 0.9590576935159075, 0.9615162103181826, 0.9638318829211225, 0.9661017370718483, 0.9682686793464349, 0.970363480007747, 0.9722924409896403, 0.9742523672361956, 0.9761946473917068, 0.9779876980958999, 0.9797048285699991, 0.9813013355436133, 0.9828708528300355, 0.9844314413262307, 0.9858325691556659, 0.9871579015111178, 0.988351522989512, 0.9895304636694893, 0.9906686469376071, 0.991681411228628, 0.9926158358191569, 0.9934605365130075, 0.9942387462405022, 0.9948331814124812, 0.9954647834272602, 0.9960105169867753, 0.9964335405310693, 0.9968144918453613, 0.9972223180088216, 0.9974179897342978, 0.9975356626415682, 0.9974866288083108, 0.9974588362343308, 0.997367414291861, 0.9971706319660804, 0.9968925797713158, 0.9966043841822034, 0.996155863811549, 0.9955071713206858, 0.994921438622197, 0.9942519899033085, 0.9934952608160361, 0.9926614512956679, 0.9918367530921448, 0.9908290462357668, 0.9897462495870889, 0.9885042183115218, 0.9872816482663942, 0.9860632141449641, 0.984670931299036, 0.9832049083988479, 0.9815965846671691, 0.9799918352839655, 0.9783517244419939, 0.9765876158517627, 0.9747499191669088, 0.9728412058812115, 0.9708571634684325, 0.9688317955256394, 0.9666996869072584, 0.9644979215511454, 0.962186930518008, 0.9598516807411298, 0.9574498737536882, 0.9549728346415777, 0.9524265353071658, 0.9497873589420199, 0.9471077715218742, 0.9443575303932797, 0.9415422903227499, 0.9386603764585972, 0.9356685012494398, 0.9326616755731465, 0.9296570896223039, 0.9265102228419941, 0.923303401613513, 0.9200549690226729, 0.9167279783885149, 0.9132069297745642, 0.9097840360436907, 0.9062977674899968, 0.9027543348553282, 0.8991460195935236, 0.8955526459594271, 0.891820486499505, 0.8880372807870373, 0.8841064829839778, 0.880235844680961, 0.8764194790607187, 0.8724285408136786, 0.8683042701064466, 0.8642354123008056, 0.8601179940714313, 0.855946789231734, 0.8517372700885054, 0.8475780211959831, 0.843268131114768, 0.8389213736400566, 0.834427655005316, 0.8300227143978235, 0.8255940887333667, 0.8211057208524339, 0.8165800468796032, 0.8119984745345611, 0.807404619514463, 0.8028049532145682, 0.7981397254384026, 0.7934442946967116, 0.7886887820636659, 0.7839401204279204, 0.7791627723438315, 0.7743580674632848, 0.7695273036103435, 0.7646673264603244, 0.7597887871426117, 0.7549009474345069, 0.749976824088159, 0.7450333267244705, 0.7400604850272029, 0.735082901160845, 0.7300642469820185, 0.7250574272424936, 0.7200348220251773, 0.7150906666733452, 0.7100287165104352, 0.7048649876897339, 0.6998022213752797, 0.6947285014297123, 0.6896850247371537, 0.6845884705589583, 0.6794164443462544, 0.6743204053546111, 0.6692176076787575, 0.6641317018450059, 0.6590171194373224, 0.65394123798822, 0.6488205696861459, 0.643703343968464, 0.6386301766978965, 0.6335172240876888, 0.6283018066899825, 0.6232196220773035, 0.618140460023527, 0.61314988002556, 0.6080705869786542, 0.6029790172220836, 0.5979275438967708, 0.5928880581573917, 0.5877950873485293, 0.5827906161970741, 0.5777882032645091, 0.572808067686287, 0.5678410799381014, 0.5629018493672335, 0.5579634232282613, 0.553031639806686, 0.5481310540056343, 0.5432495835958101, 0.538419241891377, 0.5335751807329424, 0.5287925793398138, 0.5239921477951688, 0.5192190160453274, 0.5143629440420804, 0.5096594897987939, 0.5050026110775242, 0.5003418930339535, 0.49570734019533147, 0.49111317645619357, 0.48653208096144507, 0.4819916585172347, 0.47746909123606307, 0.47297812837611874, 0.4685657747806531, 0.4641337987954741, 0.45967351203730605, 0.4553214544559946, 0.45100194319636566, 0.4467931106761186, 0.4425310124697418, 0.4382481160843633, 0.4340713968748117, 0.42993025731780227, 0.4257832160442548, 0.421720156742188, 0.41776486621263814, 0.413762936199098, 0.40980142485568055, 0.4057742539126811, 0.40190729794249513, 0.3981724487493497, 0.3943637399266869, 0.3905971497447785, 0.3867687344914091, 0.3830995858543881, 0.37943362805747427, 0.3758422970492201, 0.37228714360197684, 0.3687912494879003, 0.3653084271470834, 0.36184124371256426, 0.35844190350305305, 0.3550820336440976, 0.3517754398082218, 0.3484943553516305, 0.34537208595266555, 0.34215955670489784, 0.3389955607291279, 0.335819553086106, 0.33275778097716485, 0.32968364670946915, 0.3267146019833718, 0.3237851150695902, 0.32097069031689773, 0.31811164952129994, 0.315244024297241, 0.3124802251212903, 0.30975703048609327, 0.30705896296779367, 0.3044189202715481, 0.3018716213904196, 0.2993042231896009, 0.2967795004975894, 0.29432131723846366, 0.2918774860504781, 0.28946970964785573, 0.28711148142112575, 0.28479437231102545, 0.28253336767368353, 0.2802950656336459, 0.27798893257476776, 0.2758448666892201, 0.27373415458041866, 0.2717168671549037, 0.269666272390644, 0.26760008867228063, 0.26563082451399234, 0.2636953201397566, 0.26188208636189964, 0.2600029587933321, 0.25806737151512793, 0.2562767282640601, 0.2545177504670294, 0.25288333522226686, 0.25117587295833593, 0.249401142755869, 0.24777928746692324, 0.24618649530307468, 0.24466258247995595, 0.2431228216183283, 0.24155665950756486, 0.24008588372164286, 0.23864197297337808, 0.23723371377114852, 0.23584216462210542, 0.2345373216724632, 0.2331918786806504, 0.23187610673197626, 0.23065328268054194, 0.22938616645134505, 0.2280480519979821, 0.2268539921082706, 0.22568244404240628, 0.2245021154724735, 0.22337849709091198, 0.22231882058049382, 0.22122885336835058, 0.22016069176460645, 0.21906726408164745, 0.21804672122598592, 0.21713420031560024, 0.21613661328772588, 0.21516091252244088, 0.21418613107928694, 0.21325359515038222, 0.21232332552489044, 0.2114274974900027, 0.21054707418147015, 0.20970801596634087, 0.20885330223419363, 0.207934117115632, 0.20711899863386304, 0.206313024824107, 0.20560458154149452, 0.20480538618469016, 0.20391591420132674, 0.20315627962799707, 0.20240264548548498, 0.20171250220185075, 0.2009634786583832, 0.20020575066437477, 0.19947629680503395, 0.19878894611878742, 0.1980679628838573, 0.1973547128741241, 0.19660639674215186, 0.1959116397053122, 0.19524878843136073, 0.19455635467964869, 0.19386798400868194, 0.19319634542701267, 0.192512633971378, 0.19174128907130947, 0.191074494820317, 0.19040437875052327, 0.1897974243362099, 0.18911258920755647, 0.1883509309466788, 0.1876764883844525, 0.1869971504989494, 0.18635281149544394, 0.18565883093763622, 0.1849666853763904, 0.18426657293951504, 0.18356333032434802, 0.1827990195907307, 0.18209550896155463, 0.1815038190018562, 0.180770020578702, 0.18003537090443233, 0.17928560670741403, 0.17854803999968366, 0.17774199954488976, 0.17700323049300695, 0.1762552741735467, 0.17545385227799845, 0.17469297331162273, 0.17401093331282697, 0.17321515422706063, 0.1724130873988478, 0.17152674621936118, 0.17072022837186052, 0.16995237865515972, 0.169115201234204, 0.16826900159210062, 0.16736924317874638, 0.16650971731745268, 0.16564669994311162, 0.16476149430884407, 0.16386465466481548, 0.16295617937511422, 0.1620360569388321, 0.16112417524282305, 0.16017817839520723, 0.1592215790447496, 0.1582785173106276, 0.1572970837731553, 0.1562063629570092, 0.155217679599731, 0.15421303792461308, 0.15326376742122205, 0.1522198429057443, 0.15112558155390118, 0.15006545584917572, 0.14899222030555329, 0.14793923576485113, 0.14683611729557156, 0.14575985665888075, 0.14463037236699966, 0.1434920336332132, 0.14223386963960125, 0.14109073679865988, 0.1400377599851292, 0.13884985175567094, 0.13765318036768065, 0.136347915445791, 0.1351454726840688, 0.13400316131434548, 0.1327617218284518, 0.13151068961695309, 0.1303053094281738, 0.1290279731790086, 0.12767329962848437, 0.12639138846074216, 0.12509820633772814, 0.12376088517734093, 0.1224502823651787, 0.12122921134952783, 0.11988187875854613, 0.11852913700123777, 0.11706228448920722, 0.11571154508777763, 0.1144304110920063, 0.1130456077271904, 0.11165461575345767, 0.11030166776270446, 0.10889272849263192, 0.10745363867130872, 0.1060405862849571, 0.10462200323121155, 0.1032444396681983, 0.10180925743577247, 0.10028971101368754, 0.09885964719553862, 0.0974221749435412, 0.0961106192070439, 0.09464335999095658, 0.0930850047426498, 0.09163257691337952, 0.09017580937932246, 0.08872620274808983, 0.08726068022417142, 0.08582814998288582, 0.0843537058220297, 0.08287955723811312, 0.08148983827592776, 0.08000594216643031, 0.0785517588102942, 0.07707507145311654, 0.07560428832221575, 0.07416770692269956, 0.07270384182768101, 0.07124867303568101, 0.06979712359039986, 0.06835154779500359, 0.06686752855744542, 0.0654390467846353, 0.06407571419389303, 0.06264625368375144, 0.061224343247529595, 0.05981657479085322, 0.058408868359578724, 0.05702907397383737, 0.05563496065427628, 0.05425022674802859, 0.05290588571918253, 0.05153619941960592, 0.05017352949934189, 0.04882724808343804, 0.04749216185722954, 0.046228129764454444, 0.04490834823147642, 0.043729754170496314, 0.04242404553942883, 0.04114020586270713, 0.03983516802137071, 0.038597455779873745, 0.037460759297238154, 0.03624618060000227, 0.03505304913184186, 0.03379886988095902, 0.0326571761079195, 0.03154852988325225, 0.030435734693403577, 0.029340176285176135, 0.028293162582865062, 0.027229222745852696, 0.02621856250222328, 0.025190813373866354, 0.024185444839854336, 0.023284307941502613, 0.022313456116431266, 0.021345481808660624, 0.020431660883838985, 0.019542885862243897, 0.018679130149883365, 0.01784044226120572, 0.01706232647909535, 0.016269698269029003, 0.015504628402364827, 0.014804696176941811, 0.014089990873100502, 0.013453750930616362, 0.012792361910453319, 0.012163314686742352, 0.011566237454964202, 0.011000871344131021, 0.01050023572596749, 0.009993707677627337, 0.009520528658873161, 0.009049538768356014, 0.00864648436820317, 0.00831674986642599, 0.007971266692008103, 0.007660060089352494, 0.007361024992422773, 0.007121271572894075, 0.006850626841840441, 0.006685843241791868, 0.006551434486591082, 0.006552256869684616, 0.006468090886769503, 0.006340825765712002, 0.006344397113391803, 0.0063819902129548176, 0.006578146070418477, 0.006670109356612097, 0.006804962552185362, 0.006982281120158666, 0.007201733504237048, 0.007447587665787889, 0.007752592453199702, 0.008018699233546691, 0.008415303042144304, 0.008857191249017005, 0.009326324033078993, 0.009833883437834822, 0.01043134025645549, 0.011011073782321978, 0.011580682235323205, 0.012253128485581199, 0.012965734810432327, 0.013732314309494113, 0.014525148535510317, 0.015424542362219813, 0.01629442098315415, 0.017210947026251148, 0.01821813353382346, 0.019221734907362314, 0.020273931662491276, 0.021374273147458295, 0.022522386694529953, 0.023717969249784393, 0.024960779685891287, 0.026188698575193042, 0.02753328436350635, 0.028921201351884748, 0.030381642332381404, 0.03185387048120216, 0.03332803138573558, 0.03489831512162814, 0.0365125313759711, 0.03822424591980996, 0.03992101193571923, 0.04162839887131199, 0.04342629543058141, 0.04527018201045577, 0.047200136759425596, 0.04913173628731261, 0.0511122781278913, 0.05314163488434585, 0.05521969771332069, 0.057333102224946995, 0.05950998942330921, 0.061727960712965824, 0.06400117324748673, 0.06632182042486763, 0.06876519385548717, 0.07117144984816028, 0.07362958280986048, 0.07613903643508803, 0.07869931713693522, 0.0813188346434082, 0.08397838661270352, 0.08660403857104959, 0.08937414301772165, 0.09218896604450716, 0.09514399315481473, 0.09803729723173528, 0.10093075210361804, 0.10393199968173078, 0.10698039379570026, 0.11010244696851343, 0.11324167714388168, 0.1163763357869915, 0.11961902983121189, 0.12290672152199943, 0.1262617075303612, 0.12963708771598825, 0.13307680819228226, 0.13654311987305687, 0.1400568137771824, 0.14364635491319105, 0.14725031381289153, 0.15088914214638574, 0.154590550685745, 0.15833836487209738, 0.16205924394115032, 0.16590806206048195, 0.1697959557989934, 0.17372788599280695, 0.17770142408952155, 0.18177864347255784, 0.1858279262594159, 0.18994465333771166, 0.19408126320073393, 0.19826340027736222, 0.20246605575223864, 0.20674032206140006, 0.2110590213441769, 0.21541705342889098, 0.21981663453238276, 0.22432591281958525, 0.22879865911046798, 0.2332005169621615, 0.23777508707210576, 0.24238543857993833, 0.24713117357950984, 0.2518006394077765, 0.25645176505723405, 0.2612106333298632, 0.26600575921095554, 0.27085450018196294, 0.27571886975747134, 0.28056190515261187, 0.28550535543980715, 0.2904806708016224, 0.29562490752659876, 0.30064631080898047, 0.30569801121464646, 0.31079747566240634, 0.31593298579235607, 0.32100832737352747, 0.3262247101060741, 0.3313956841806638, 0.33667629522676984, 0.3419800053969655, 0.3473779142794177, 0.35271971324968593, 0.3580538094260417, 0.3634548870667762, 0.36888050603416833, 0.37433034492175676, 0.37980403126089723, 0.3852834507607538, 0.39080576928407135, 0.3963495605684042, 0.40198078760206385, 0.407557903219351, 0.4130925328372385, 0.41872471718816434, 0.42437495152385485, 0.4300869993375769, 0.4357662745205263, 0.44140702598838216, 0.44713059704899705, 0.4528680452391883, 0.45865429958386905, 0.4644135959151691, 0.4702115642696974, 0.47599559144355835, 0.4817935751777904, 0.4875071217928309, 0.493342137106276, 0.4992931008533467, 0.5051246179082556, 0.5109671714344574, 0.5168106517805051, 0.5226726563969339, 0.5284243168452163, 0.534313848841868, 0.5402015771467695, 0.5460984813632208, 0.5519808662804345, 0.5578460602376977, 0.563726551108249, 0.5696035309394099, 0.575474358464461, 0.5813432421472614, 0.5871760457044399, 0.5930380281139832, 0.5988919304485872, 0.6047970391412629, 0.610625855904068, 0.6164041987729791, 0.6222250329167156, 0.6280349501954264, 0.6338840951769683, 0.6396635249526347, 0.6453308594929649, 0.65110122805916, 0.6568531061416627, 0.6626502792678158, 0.668355910095616, 0.6740364996490297, 0.6797097778349306, 0.6853642071105579, 0.6908815624620847, 0.6965101323399209, 0.7021125027713149, 0.7076839197812009, 0.7132268334797016, 0.7187276859683909, 0.7242143213952367, 0.7297634885306766, 0.735177221547314, 0.7405648833380007, 0.7457791789671158, 0.7511292600145326, 0.7565850191961548, 0.7618406913533499, 0.7670661397503179, 0.7721095393182444, 0.7772893597047208, 0.7825126798882446, 0.7875960010793736, 0.7926411631914263, 0.7976560521081956, 0.8026208931889379, 0.807454503071762, 0.812348697380318, 0.8171952201021215, 0.8219606228179577, 0.8267151105435255, 0.8314101854899081, 0.8360644534797004, 0.8406671581891508, 0.8452202135665333, 0.8497185430642734, 0.8542550112701012, 0.8586362630403377, 0.8628827175039318, 0.8671764797342464, 0.8714142642839515, 0.8756110275834749, 0.8797332827984047, 0.8837235423629293, 0.887740980778208, 0.891695915878095, 0.895650133783503, 0.8994717155217208, 0.9031584079884226, 0.9068692852770892, 0.9105145825249457, 0.9141272647064187, 0.9176365059698616, 0.9210414011750541, 0.9244259743216644, 0.9277424995145563, 0.9310415248067793, 0.9342145061790667, 0.9372902407937593, 0.940333743753194, 0.94330759090669, 0.946155957855059, 0.948995901086156, 0.9517791932700159, 0.9544681232837121, 0.957083482376409, 0.9596271623870049, 0.9620941206091911, 0.9644578639692633, 0.966779154446606, 0.9690235997950626, 0.971228642918227, 0.9733141377132333, 0.9753177051673112, 0.9772529252921642, 0.9791114445279339, 0.9809547670811354, 0.9826507854641929, 0.9841706000283906, 0.9857296991849172, 0.9872069718944999, 0.98866666777073, 0.9899724607573909, 0.9912290094999832, 0.9923746819343919, 0.9934430428498862, 0.9944069247403959, 0.9953222163568552, 0.9960928988072817, 0.9968551624408412, 0.9975329739659576, 0.9981709391820911, 0.9986753223349192, 0.9990257486476743, 0.999377355463779, 0.999643771595599, 0.9998211297031624, 0.9999193430026428, 1.0, 0.9999224588391721, 0.9997656167565683, 0.9994497087749783, 0.9991439638667116, 0.9988050348455776, 0.9983253646709346, 0.9977656940231617, 0.9971394287274655, 0.996418502769192, 0.9956254213816219, 0.9947461639164594, 0.9937887016841414, 0.9926580273390121, 0.9915565320735326, 0.9904006750159171, 0.989130290269433, 0.987780299708147, 0.9863977866077019, 0.9848845946933439, 0.9832918327126623, 0.9816291273461627, 0.9798915066527348, 0.9780947869735216, 0.9762064093626127, 0.9741897825938565, 0.9721627947471974, 0.9700603994283378, 0.9679387263300118, 0.9656810060074805, 0.9633644951806657, 0.9609660279811206, 0.9584990831745955, 0.9558268804073731, 0.953241444592485, 0.9505788511811855, 0.9478454124856421, 0.9450400278047005, 0.9422305033409084, 0.939277108892629, 0.9361976887036686, 0.9331246536697207, 0.9299854931541087, 0.926880984231237, 0.9236006672646162, 0.9201329027336689, 0.9167555159777628, 0.9133145722930043, 0.9098447550648733, 0.9062769473858998, 0.9026230031823668, 0.8989451195410193, 0.8952103302632233, 0.8914597071685803, 0.8876098087064613, 0.8837133300318833, 0.8797617060905648, 0.8757610271543194, 0.8717320406714817, 0.8676332774064682, 0.8635333993583664, 0.8593390808080043, 0.8551034188612868, 0.8507140715896476, 0.846411458274228, 0.8420561574084143, 0.8376638658681824, 0.8332282699127185, 0.828755332388052, 0.8242371362704849, 0.8196781470267483, 0.8150844393943721, 0.8104547385887245, 0.8058102835313274, 0.8011100492099217, 0.7964474291544977, 0.7916777202714625, 0.7868831160661148, 0.7820420567262282, 0.7772022078212333, 0.7723137778843913, 0.76742943817618, 0.7625213807058422, 0.7575598273673416, 0.7526118158660948, 0.7476596115004218, 0.7426670255765153, 0.737656391521905, 0.7326554893211502, 0.7276091064905545, 0.7225122502762984, 0.717445879612277, 0.7123665470386906, 0.7072114458510392, 0.7021182912187384, 0.6970368520630055, 0.6919171788644023, 0.686789749728918, 0.6816161847239188, 0.6764825353666665, 0.671438179026538, 0.6662824983508969, 0.661129525790966, 0.6559844114184611, 0.6508385088538311, 0.6455828219099872, 0.6404627122917627, 0.6353429735945946, 0.6303049925064408, 0.6251811096532448, 0.6200560103495011, 0.6149540739003905, 0.609863092421255, 0.6047464301908099, 0.5996850068709877, 0.5946087678783566, 0.5895754054624114, 0.5845547377467094, 0.5795525672419838, 0.5745608011658285, 0.5695571710117563, 0.5646039861783817, 0.5596683611434811, 0.5547604506532735, 0.5498626801125477, 0.5449490869748885, 0.5401006784471687, 0.5352739923396057, 0.5305875256546049, 0.5257931875008396, 0.5210329460648024, 0.5163022183257696, 0.5116038009621074, 0.5069423350212982, 0.5023086810608405, 0.4976199063290399, 0.49306446355321576, 0.4885380770890653, 0.4840130878982811, 0.47955167561062834, 0.47512523789706373, 0.4707255238326879, 0.46636990199721684, 0.462035824982761, 0.4577372787139157, 0.45353032137848326, 0.4492980850702082, 0.44502480084541285, 0.4408846934748679, 0.4367811990954511, 0.4327926253192623, 0.4287551746475008, 0.42465498597058793, 0.42071790485422145, 0.4168184804327943, 0.41296432325210397, 0.4091422074854506, 0.4053497220636797, 0.40161105553145204, 0.3979137365622079, 0.3943579373618129, 0.3907325740223903, 0.3871647118913394, 0.3836351933939826, 0.3801541859784662, 0.3767213659257186, 0.3733364557762884, 0.36993286159294436, 0.3666514847391987, 0.36341368184338835, 0.3602419578422157, 0.3570896189759029, 0.3539300347903035, 0.3508761679789776, 0.3478653052864643, 0.34486031798123745, 0.3419415684233916, 0.3391357093018195, 0.33629281122791455, 0.3334970645445581, 0.330706276973217, 0.3280096398971574, 0.32535948428228995, 0.3227512528321986, 0.3201876561783941, 0.3177151738514096, 0.31523502139816784, 0.3128352563703825, 0.3104448674384381, 0.30810264372760077, 0.3057171954461549, 0.3034807037849131, 0.3012919368834107, 0.2991369208573916, 0.2970235760646512, 0.29491647365335066, 0.2928907828326521, 0.2909177936673411, 0.2889693987715911, 0.28706133238011455, 0.2851691298786561, 0.2833443471621785, 0.2815557731326914, 0.2798080393798882, 0.27809839651466556, 0.2765439028510496, 0.2748950501376188, 0.27323047576177306, 0.27167591368948046, 0.2701595580243574, 0.2686188429727593, 0.2671848350643188, 0.2658832017980901, 0.26450215868118376, 0.26315922221221466, 0.26175602385119073, 0.2604985191263773, 0.2593569285611061, 0.25814768612516087, 0.25697261067827143, 0.2558595139989978, 0.2547463433861887, 0.25364853141414145, 0.2526026264677244, 0.25158667755034625, 0.2505799426182877, 0.24962394319189948, 0.24860587492857006, 0.24771326802240523, 0.24684088351415912, 0.24599987732612164, 0.24516673662195282, 0.24443187718787127, 0.2436304348121105, 0.2428536585170269, 0.2420120984886325, 0.24129294958380842, 0.24062605888775057, 0.23993599226178314, 0.23926435689295592, 0.23865259193588187, 0.23801072790159908, 0.2373436063643099, 0.23674432688609828, 0.23615963671098741, 0.23556686180449932, 0.23501246341965812, 0.2344276692513413, 0.2339014192465701, 0.2333835551719837, 0.23289383142433032, 0.23238969558453967, 0.23195855142938585, 0.23146350230017948, 0.23097987912155857, 0.23048892308549904, 0.2300272418492748, 0.2295463877758092, 0.22910200301135994, 0.2286619174656173, 0.22830078419204797, 0.2278581245661414, 0.2273891249401406, 0.22696315797647496, 0.22653987997219147, 0.22602340281657907, 0.22561522472500817, 0.2252419591443811, 0.22481900565812846, 0.22439343538619264, 0.2239316732672649, 0.22350385619549984, 0.2230858016616977, 0.22264440906404792, 0.22219776846598888, 0.22174770960917325, 0.22128912946180246, 0.22087952731262087, 0.2204008740757641, 0.21991811317065021, 0.21945025428355694, 0.21895412224911945, 0.2184767949412244, 0.21796562681147147, 0.21744854653022408, 0.21678964759848296, 0.21627493794464955, 0.21584356429695573, 0.21528419047236594, 0.21471476807521503, 0.21413688855224697, 0.21354526905908142, 0.2128778391513224, 0.2122704755181172, 0.21164683474102466, 0.21098264604171274, 0.21032967397701346, 0.2096569312148694, 0.2089692884836626, 0.20826425116293742, 0.20763039352117416, 0.20687963875780851, 0.20606577046917998, 0.20529625889432798, 0.20451029880465318, 0.20375637687135315, 0.20293084744819104, 0.20205570216562588, 0.2012056488978656, 0.20033834543169912, 0.19941603506926028, 0.19851853502288677, 0.19764327589884811, 0.19670107868879205, 0.19574180370236924, 0.1946856259897002, 0.1937016971005557, 0.19275763508001578, 0.19172225516701147, 0.19066925043943966, 0.18962285615725333, 0.1885312554965204, 0.18737007328368147, 0.18625195062827826, 0.1851139090877764, 0.18398054183902346, 0.18280035529592675, 0.1816023515166421, 0.1803865520038139, 0.17915299259052886, 0.17789729947095848, 0.17662894348873864, 0.17533392333471473, 0.17403117952484473, 0.17271038480216497, 0.17132530493285422, 0.16997492811333234, 0.1686377198497323, 0.16724372028758597, 0.16583271322457682, 0.1644314847594233, 0.1629838363931103, 0.1615280358875571, 0.1600500051072227, 0.15855765258447935, 0.15706649716347298, 0.15554368269890487, 0.15400540545383667, 0.15245637091125638, 0.15082986201619344, 0.14926237835181624, 0.1476781967703807, 0.14618416587933625, 0.14455516143920047, 0.1428487775673068, 0.14121054890590665, 0.13955919699882063, 0.1379084256638111, 0.13623044474864623, 0.13452368238654613, 0.13282608755303232, 0.1311170684630097, 0.1294059601437094, 0.12767442911426174, 0.12602631200610692, 0.12426446189141244, 0.1224991408511517, 0.12071231451129841, 0.11894136833325074, 0.11714531530993141, 0.11536655358622351, 0.11358166266431398, 0.11183963327721701, 0.11003734199507015, 0.10827252177303422, 0.10646051155995753, 0.10464846008521284, 0.1029003170071254, 0.10107957909397884, 0.0992067838170437, 0.097399055545, 0.09559066969218223, 0.093879178244272, 0.0920579068738518, 0.0901604267877026, 0.08836034171749156, 0.08656057627449075, 0.08489432291778258, 0.08307987477073063, 0.08127469207239375, 0.07947824160056247, 0.07769013453959306, 0.07587029680554572, 0.07410324513180924, 0.07246129558962973, 0.0706908281112721, 0.0689334966300323, 0.06710694135639075, 0.06538481796589676, 0.06377185196973321, 0.06205221780870471, 0.0603467921737951, 0.05861330287986071, 0.05694098369526434, 0.0553088600861587, 0.053656182733128326, 0.052017387053388896, 0.05049002669805259, 0.04886743360261877, 0.04726724046684386, 0.045684331404380586, 0.04412104028310537, 0.04264354017415052, 0.04111064833779289, 0.039634027242742224, 0.0381426859829113, 0.036675557909297295, 0.03524546693891523, 0.03382388497805286, 0.03241083937854595, 0.031039073063868085, 0.029690203628825292, 0.0283400472966058, 0.027040556525635688, 0.02585391875112663, 0.024587809852787686, 0.023350008545351648, 0.02216466523669478, 0.020979961299390355, 0.019851219094058587, 0.018721885146109535, 0.01762332658429322, 0.01647354796300589, 0.015446516822082187, 0.01453616296549374, 0.0135503978514795, 0.012597199228194701, 0.01161019578915409, 0.010730546525969907, 0.00991528678459097, 0.009089862737300449, 0.008296805476606864, 0.00760726949533572, 0.006871131816978833, 0.006150373679354449, 0.005491866033220815, 0.004869363651996284, 0.004283022180099508, 0.0037330330088613762, 0.0032240416747877595, 0.0027468885321754975, 0.0023070734076417656, 0.0018982107681276873, 0.0015346793183875751, 0.0012155506654891836, 0.000927062326398385, 0.0006774113999710808, 0.0004646829689743677, 0.00029388277861549286, 0.00022905767499577516, 0.0001294293246734316, 7.379207078827677e-05, 0.0, 3.959902638908669e-05, 0.0001634915194990666, 0.0002780583031402334, 0.000436043611202955, 0.0006773173495785799, 0.0009172989643512955, 0.0011434534909561607, 0.0014825764047597131, 0.0018639012221974389, 0.0023209921135427967, 0.00278366590720522, 0.0033379597735422547, 0.003885170231714435, 0.0044803132608139265, 0.005054547545281538, 0.005753465540729929, 0.006480333742995536, 0.007268508320921156, 0.00810008175601094, 0.009010942967311317, 0.00992629308536985, 0.010968028644547056, 0.011966921717794262, 0.013017235367738548, 0.014078613987422677, 0.01523525706029892, 0.016490563161126556, 0.017736342752493677, 0.01903276224292946, 0.02029759064989285, 0.02170452549413235, 0.023132178060255172, 0.02463271333473628, 0.026177744205998332, 0.027763388854730734, 0.02939953496109883, 0.03109907033229685, 0.03282477437505683, 0.03459792659526769, 0.036487258506398314, 0.038347098437711405, 0.04018786209800455, 0.04215959453944911, 0.044178173648066546, 0.04638313838242337, 0.048478326206409704, 0.050617589711005335, 0.05282341995418356, 0.05508182392567124, 0.057265997857250985, 0.059643390701633645, 0.06208423581270143, 0.06454669715667867, 0.06705473866686974, 0.0696970320664575, 0.0722855935711999, 0.07485880982942018, 0.07755715281205028, 0.08030157436249677, 0.083081018999425, 0.08591898387069287, 0.08879349972971833, 0.09172340401446284, 0.09469822539872665, 0.09777108183424221, 0.10082908598244031, 0.10390622118422889, 0.10706313504438537, 0.11026534944559646, 0.11359890559289446, 0.11688013507858885, 0.12023956038553289, 0.12361508879790473, 0.12703985269577525, 0.130380103399512, 0.1339171017553386, 0.13751736914780163, 0.14112943621670213, 0.1447822733648204, 0.14853775044771844, 0.15226407159104594, 0.15605867444015348, 0.15986915930490833, 0.16372366975502348, 0.1675462051033214, 0.17149593518256884, 0.17546773812751207, 0.17949447479809721, 0.18357321251301323, 0.18767100553716384, 0.19180608946023456, 0.19596273350680454, 0.2001735846283807, 0.2045217752407597, 0.20879074043445525, 0.21310055702356043, 0.21743021896634165, 0.22182102665365364, 0.2262595286565149, 0.23072145248307152, 0.235219149864361, 0.23968989680285832, 0.24426463125600498, 0.24883399251512686, 0.2534730265794123, 0.25813963156837516, 0.2629156427379002, 0.2676269564483035, 0.2723768483742566, 0.27715035029770846, 0.28195447886991026, 0.28671095804721886, 0.29158357646280847, 0.29646449314526685, 0.3013864667972329, 0.3063309625990588, 0.31135754671260096, 0.31633900563516343, 0.32138992145613426, 0.3264154116178986, 0.33146698722317924, 0.33649704945156084, 0.34160327396542683, 0.34667438348410884, 0.35182732878230144, 0.3569960722376192, 0.3621560727384621, 0.36735879354360557, 0.37262821393272444, 0.37785125951948434, 0.3830904426232565, 0.38834721804184263, 0.39361611838946714, 0.39887244641434966, 0.40417184976708037, 0.40948214312828685, 0.41481379937067625, 0.42014268539459043, 0.4255232634616642, 0.4308654130998236, 0.4362180673806838, 0.44148721442110817, 0.4468693202366321, 0.4523662832528708, 0.4577379523060692, 0.46311738498232163, 0.4684413372724407, 0.47384025190647244, 0.47924632254093413, 0.4846447804176668, 0.49004279419600677, 0.49541085914718364, 0.5008093598949945, 0.5061371657522462, 0.511534832688069, 0.5169233051003924, 0.5222604717943544, 0.527635516236346, 0.5330758867978153, 0.5384169518463491, 0.5437501373461717, 0.5490192990179118, 0.5543411625394621, 0.5596538868605577, 0.5649476271331837, 0.570227113401006, 0.5754740570481843, 0.5807254463634365, 0.5859021664778988, 0.5911259333685962, 0.5963281157641515, 0.6015527470072495, 0.6067054578549004, 0.6117541247273576, 0.6168766617914673, 0.6219728321232245, 0.627102172199959, 0.6321374039055047, 0.6371023273276598, 0.6420947821378682, 0.6470588956851173, 0.6519365813425966, 0.6568494997693071, 0.6618218681975709, 0.666655890618289, 0.6714610846838678, 0.6762340702761109, 0.6809784049657551, 0.6856505351280135, 0.6903340385626304, 0.6949807674220737, 0.6995944190092337, 0.704164838820527, 0.7086235004603622, 0.7131248024599917, 0.7175816039442442, 0.7219715443095862, 0.7263413400856156, 0.7306334821211655, 0.7349135511661617, 0.739144585377801, 0.7433883590386349, 0.7475129284814885, 0.7516199632636767, 0.7556474282236789, 0.7596284397862141, 0.7635176458650302, 0.7674080361760616, 0.7711445035378252, 0.7749427479351634, 0.7786817745154391, 0.7824501931645996, 0.7860598904717012, 0.7896109984083965, 0.7931120553124015, 0.7965569744979265, 0.7999847646242362, 0.8033099688676366, 0.8064129946564859, 0.8096455102442508, 0.8128103000263305, 0.8160138790575159, 0.8190307066210313, 0.8219731842514427, 0.8248687055588663, 0.8277007730738516, 0.830384661785576, 0.8330984399857049, 0.8358172638542501, 0.8383812519706151, 0.8408793034226117, 0.8432819629108946, 0.8456496961298441, 0.8479478414079261, 0.8501759938882588, 0.8523337417323044, 0.8544118213096343, 0.8564286286709701, 0.8583799195157886, 0.8602512400257019, 0.8620500895121337, 0.863692012922522, 0.8653553451876017, 0.8670442607780756, 0.8685379944103023, 0.8699597079713647, 0.871162741173507, 0.8724568946103511, 0.8737043405602906, 0.8748304579105779, 0.8758776271696856, 0.8768283054931216, 0.8777202266330932, 0.8785303198271296, 0.8792634642252388, 0.8799171746206488, 0.880564553627806, 0.8810504634650337, 0.8814214563334325, 0.8817616336348395, 0.8820234073135207, 0.8822110682375353, 0.8823150870159597, 0.8823649154231147, 0.8823086829001584, 0.8821750486447048, 0.8819924780916057, 0.8816995818396294, 0.8812394744117398, 0.8808046050942449, 0.8802874054276082, 0.8796861303293626, 0.8790059183031739, 0.8782755284717843, 0.8774295164112814, 0.8765048856664235, 0.8755349335574362, 0.8744492458155017, 0.873207586110206, 0.871979187558958, 0.8706698460357148, 0.8693156018398376, 0.8678418165384654, 0.8662798705687698, 0.8646535621184083, 0.8629501097310464, 0.8611035588737908, 0.8592554210093695, 0.857407268223203, 0.8553907325134296, 0.8532500048890322, 0.8510934748702137, 0.8488612281883436, 0.8466092530184567, 0.8442206369455837, 0.8417061356190156, 0.8391835413983265, 0.8365877157209791, 0.8338928591246351, 0.8311561435303941, 0.8284176819326725, 0.8255278909409731, 0.8225713691504104, 0.8194555182968418, 0.8163782333559387, 0.8132455338036232, 0.8100256802898902, 0.8067381150005107, 0.8034169783757868, 0.799992656336937, 0.7965628112134632, 0.793005787909946, 0.7893902495119753, 0.7856588995655347, 0.7819343176947764, 0.7781886708470025, 0.7743381857081986, 0.7704308369944032, 0.7664273869571635, 0.7624131186635817, 0.7582619833768681, 0.7541443252779299, 0.7499669942977654, 0.7458223295557763, 0.7415190592363164, 0.737070812265896, 0.7326805400605472, 0.7282365031169525, 0.7237822576924976, 0.7192299020458875, 0.714654870220167, 0.7100064393548016, 0.7053143932913228, 0.7005706976812708, 0.6957950027719294, 0.6909777042183198, 0.6861197524196898, 0.6812221086803324, 0.6762702616861674, 0.6712981178969919, 0.6661976718587348, 0.6611628909330498, 0.6560876505229714, 0.6510689042666516, 0.6459061508786463, 0.6406493823249987, 0.6354358198238415, 0.6301904555779024, 0.6249943052831131, 0.6196793910671148, 0.614219533662334, 0.6088740601977592, 0.6034997947179949, 0.5981382621110561, 0.5927064312766958, 0.5872219775086601, 0.5817519238735966, 0.5762608070106567, 0.5707301088724485, 0.5652035042245944, 0.5597428069445562, 0.554170712815756, 0.5485879933430301, 0.542906825581414, 0.5373160423639981, 0.5318378266838705, 0.526205560469813, 0.5205697607207829, 0.5148555810077167, 0.5092233762953343, 0.5036156887096824, 0.49796784813918304, 0.4923176354593615, 0.4865907423543402, 0.4809479978591901, 0.47526379079038, 0.4696196198201767, 0.4639724918299112, 0.4583307575976849, 0.4526819284875803, 0.4470442357358044, 0.44140027113329244, 0.4357618389351895, 0.43014563429008423, 0.4245199004200771, 0.4189881261058931, 0.41337254576996224, 0.40777350347953123, 0.4020430574418091, 0.39649666190870914, 0.39098377919212035, 0.38545429896279343, 0.379938520967362, 0.37449740605154813, 0.36900514110950583, 0.36350693273553875, 0.358059817740451, 0.3526330165196486, 0.3472583289624314, 0.34187072295010984, 0.3365054061698864, 0.33116761723652016, 0.32585529120549334, 0.32050044073179923, 0.31524946231145373, 0.3100550430986634, 0.304847781642923, 0.2996679975142555, 0.2944346066640237, 0.28932236893416563, 0.2842816622389813, 0.2792150583592607, 0.2741787280427147, 0.2692353777047288, 0.26425404394814406, 0.2593152980778069, 0.25440519349489743, 0.24953177052322587, 0.24464210902027653, 0.2398492854355707, 0.23510843586113742, 0.23038259725460225, 0.2256933236299661, 0.22095480293108238, 0.21635090646707344, 0.21186630722023742, 0.20731866966357415, 0.20281100370710795, 0.19830813033652522, 0.19388551653383676, 0.1894970980445006, 0.18515277448496437, 0.180847768231661, 0.17665552462556328, 0.17242124389058952, 0.16809890816274659, 0.16397048141228762, 0.15987881869257514, 0.1559243535676382, 0.15189622672555592, 0.14794381357093075, 0.1440010826913352, 0.14010449164696817, 0.13614305224160275, 0.1323515890491803, 0.12860122049402964, 0.124887857412603, 0.12121464869196112, 0.11763954428286083, 0.11404062849163812, 0.11045304369863443, 0.10694713550332915, 0.1034834672242021, 0.10000902206343588, 0.09663672013215768, 0.09334581831291006, 0.090047357352634, 0.08679136265515061, 0.08353572499025326, 0.08036970199615416, 0.07730318539880619, 0.07420936677329558, 0.07115899245552655, 0.0681051981272196, 0.06514634897945405, 0.06226029225947657, 0.05937645246398113, 0.05653399840052491, 0.053743616765939174, 0.05098141429429958, 0.04828442082487404, 0.0456004262745401, 0.0429577382857726, 0.040331371172870806, 0.03777243678813225, 0.035286951884325, 0.03279927793960032, 0.03035087778065961, 0.027912318630260623, 0.025544096804929767, 0.023200526030447484, 0.020904754355434006, 0.018643324733151813, 0.01636948824393218