0.046581007803338584, 0.04621380684431776, 0.04585388673416486, 0.045516554297624155, 0.045166141899589916, 0.044812471407832344, 0.04447326579735767, 0.044137512832152836, 0.043799232173658276, 0.043469560501865845, 0.0431700113823894, 0.04284006888106143, 0.042513024646788515, 0.04220591957156971, 0.04188135209497099, 0.04147685729499476, 0.04116819830343641, 0.040857151344695725, 0.04063896361023851, 0.04031244118403814, 0.039892001452802826, 0.03958578702226052, 0.039277473040405436, 0.038978462270900946, 0.03866604306575223, 0.03835788116386961, 0.038045001840373675, 0.037732829923891306, 0.03750439842028472, 0.03718379148857486, 0.036816822851202954, 0.03651422299766491, 0.036213706382213474, 0.0359033399976604, 0.03560867173860837, 0.035360266514118194, 0.0350632762357027, 0.0347706867713835, 0.034455035977488356, 0.0341740727264434, 0.03388889074014195, 0.03361349047387122, 0.03335549145200889, 0.033082598004008895, 0.032812989425133395, 0.032506352553163455, 0.03224844136168385, 0.032027558024916684, 0.031767584903815566, 0.0315113658923565, 0.03117062850798673, 0.03093307484379539, 0.030782600304286232, 0.03053223115690133, 0.030286992845976038, 0.030039115141455863, 0.029804697676629313, 0.029541925196841096, 0.02932029210355338, 0.029101122457280193, 0.02883018389015825, 0.028623568453264428, 0.02846608566773123, 0.028254080869922458, 0.028046094144345644, 0.027861830403939726, 0.027659658491769146, 0.027427974083935273, 0.02724083581850519, 0.027056925240419836, 0.02694074931902949, 0.026755778617069313, 0.02646924016994492, 0.02631249443226613, 0.026156354618450946, 0.02608315228737194, 0.025919624391071854, 0.025787956265658753, 0.02563460843545266, 0.025489010214546384, 0.025354048339039557, 0.02522244047621139, 0.0250879617150279, 0.024971200757979994, 0.024860334832281117, 0.02473237154043421, 0.02463589002642704, 0.024564471425812615, 0.02447422957272377, 0.024389785988617883, 0.024258798002715815, 0.024192474881885435, 0.02414094111507004, 0.024079133311970292, 0.02402161181858741, 0.023907601428419953, 0.023867096392765103, 0.023817239141673788, 0.023781879426186495, 0.023748728682230165, 0.02382083725035833, 0.02378092171325789, 0.023669949469482185, 0.02365898596375531, 0.023652303580551103, 0.02363497190548588, 0.02363971701505476, 0.023725026207714224, 0.02372902698556893, 0.023742218321602553, 0.023757699460817353, 0.023789051718131202, 0.0237378084767241, 0.02379610222507736, 0.023856794600939882, 0.023929173568912613, 0.023995199404891695, 0.024157153668099916, 0.02422069162549489, 0.024294324926338737, 0.024376451459127316, 0.024468932660015492, 0.024509049761728366, 0.024626220218036832, 0.0247479689539968, 0.024858168095914485, 0.024991766791375714, 0.025148124910801168, 0.025288121480903394, 0.025433899139507853, 0.025622561255939782, 0.02577536074791071, 0.025971013677589732, 0.026135089107657074, 0.02630857479345261, 0.02643647876132108, 0.026634217062562984, 0.02678901130830459, 0.027002909783506335, 0.027219285821741945, 0.027427690342485038, 0.027651684723155986, 0.02793756265496339, 0.02816056462490954, 0.028390596991363946, 0.028592582279615, 0.028840480469156687, 0.029076526809588096, 0.029335590319163454, 0.029598425293348267, 0.029896827052449046, 0.030163750467675523, 0.030430150880047465, 0.030709769480743557, 0.030994715879167564, 0.03125110605334733, 0.03155066998112611, 0.03186969632401685, 0.03217358660802621, 0.032481795432230794, 0.03277902665002053, 0.03309766893743063, 0.033457756698144006, 0.03377823260514293, 0.03410422288939397, 0.03450843394918916, 0.034835321126207644, 0.03508377593731951, 0.03543833709523389, 0.03579515374770949, 0.03613899195664954, 0.0365022990303276, 0.036964010563710854, 0.03731798866743395, 0.03767899715401968, 0.0380408535431232, 0.03841448426920084, 0.03870894237898936, 0.03910216730568884, 0.0394944881200413, 0.039935217976148345, 0.04032030902157225, 0.04069704199024458, 0.04108834461439696, 0.041481099142199836, 0.04186863608680376, 0.042264727859235976, 0.0426876644984628, 0.0430817517898929, 0.0434778308743536, 0.04385489214371689, 0.04425667853519488, 0.0447140140639391, 0.045108632214648364, 0.045506163078353055, 0.04589298387414241, 0.04629640530341559, 0.04661224177575245, 0.04702788397603897, 0.047438662487839754, 0.0478580967810168, 0.04825875097074135, 0.04874139573576731, 0.04912542730943206, 0.049511466237574776, 0.049805178735477004, 0.05020528573721052, 0.050598263833475404, 0.05098902580259886, 0.0513752169140238, 0.0517581166430575, 0.05213554966079946, 0.05259281370197039, 0.052951530972078165, 0.05331094859163005, 0.05360172718259086, 0.05396922595341578, 0.054327322088720806, 0.054685306627695746, 0.05503802087482122, 0.0554039982150717, 0.05574382770917529, 0.05613168476175242, 0.056456132075144654, 0.05677881900506197, 0.05700213188024317, 0.05733173412201575, 0.05775593356995651, 0.05805488887893074, 0.05835126750316237, 0.05859865991884986, 0.05889380847444813, 0.059116673175175743, 0.05940617405096765, 0.05968487080770349, 0.0599553460802286, 0.06021330044641356, 0.06056184137302086, 0.060787981844552134, 0.061010435416318134, 0.06112716306056185, 0.06135303991524193, 0.06166463165685967, 0.061855994334492584, 0.0619723163058642, 0.06216131371168278, 0.062339975206116324, 0.06249529732167389, 0.06265513515485734, 0.06279642134800835, 0.06293548650610709, 0.06306338841593931, 0.06327613661032237, 0.0633698920733935, 0.06340035495175805, 0.06348959703728774, 0.06356864852164325, 0.0636962173902105, 0.06374703703871767, 0.06378184825180629, 0.06381859012421118, 0.06384641703855067, 0.06378536885957513, 0.06380423999500733, 0.0638860011340816, 0.06386647414706212, 0.06383745627935468, 0.06382582763593567, 0.06377333243523846, 0.06371298926890936, 0.06364200637463241, 0.06356125490205232, 0.06341587301154625, 0.06332139684566952, 0.0631967617598086, 0.0630769188626388, 0.06294271027355998, 0.06279551148542191, 0.0626332583220919, 0.06258605279269754, 0.06238064652672923, 0.06216927137136393, 0.06194559298399848, 0.061720423350754644, 0.06146267130157481, 0.06122277839588229, 0.06097193241889205, 0.06079275502668988, 0.06050897450411796, 0.06012468886265546, 0.05983842475757202, 0.05953870789718203, 0.05934452577459829, 0.059003498694428544, 0.05857892054709887, 0.058234558171329755, 0.05787827093542658, 0.057583152926568515, 0.05719404487811273, 0.05684207995373442, 0.05643178812787696, 0.05601562746623666, 0.055600564852461544, 0.055169830770133085, 0.054728729447330836, 0.05428379498612496, 0.05383083271935553, 0.05342410720071235, 0.05294760075465127, 0.05256155151260934, 0.05206156343049743, 0.05156066721251998, 0.0510229393504679, 0.05052165883438959, 0.05003448961861054, 0.04951943105835248, 0.04899948305283842, 0.0485375796615001, 0.04799914183186995, 0.047518754516220556, 0.046968439425764126, 0.046418673986662294, 0.045894844819804194, 0.04534073234589124, 0.044821676388432416, 0.04426298318307536, 0.04370549052822985, 0.04309524631506267, 0.042545387952109034, 0.04202954240456179, 0.04146918824992383, 0.04090845501969706, 0.04032996507065552, 0.03977092535558375, 0.03934059047741531, 0.038763595935232806, 0.03819371662851234, 0.03761946104347045, 0.03706355948010497, 0.03654115148561767, 0.03599188951529162, 0.03544927712299635, 0.03485650294076446, 0.034334023158401034, 0.03390968340577213, 0.03338246737331109, 0.03286509111034686, 0.03229202010778306, 0.03180224334090625, 0.03135335582460808, 0.030871855642228493, 0.030399637355797458, 0.0299370811969422, 0.029484604065810507, 0.029125475039477766, 0.028684058163146512, 0.028258793480471164, 0.02789639479220131, 0.027497174718501403, 0.027134027173673983, 0.0267696238569296, 0.0264244495408113, 0.026104873712296063, 0.025796935117538448, 0.025420138173206784, 0.025162258062093754, 0.024919072071772182, 0.02470351168262076, 0.024491008581739748, 0.024318432602111934, 0.02414022008044351, 0.023982917557962436, 0.023919036611808837, 0.023796238879061134, 0.0236565994177788, 0.02359285075594215, 0.023553565662023542, 0.023533835547817142, 0.023545805234235176, 0.023651169381960137, 0.02370688858187795, 0.023793497957177036, 0.023855518473573395, 0.024011298518887666, 0.02421278110202983, 0.024423621785421262, 0.024665164583647897, 0.024976128224867073, 0.025275996080104376, 0.02556142929538365, 0.025936999892339118, 0.02634505445681612, 0.02690296415551282, 0.027363534304008803, 0.027822891582541726, 0.028371194780462808, 0.028958072476709697, 0.029616536771673415, 0.030277428283747146, 0.030985248664487628, 0.031728570554899235, 0.03251405409910427, 0.03324820505435329, 0.03413058125456138, 0.03515419728128888, 0.03610001932162873, 0.03709151752842757, 0.03813429680751134, 0.039216977339795143, 0.04024272737838574, 0.04143193139599387, 0.042662446148157514, 0.043948494319959196, 0.045263338283140164, 0.04667356931570452, 0.04807342166057663, 0.04952295579210865, 0.051030133755956573, 0.05257907720150618, 0.05419005336979613, 0.05584018189697775, 0.05754265229828878, 0.059202879937965754, 0.061022706055029095, 0.06290443376398813, 0.06481896249961884, 0.06678398178261825, 0.06883619543063096, 0.07089981603623587, 0.07295806112829044, 0.0751386663510483, 0.07737102780391815, 0.07965588843851538, 0.08199391880165363, 0.08441078680303564, 0.08685373773861696, 0.08935289714190416, 0.091873625347306, 0.09449028353916968, 0.09721303816664506, 0.09993342342296549, 0.10271239837229791, 0.10558367382732467, 0.10847534793178307, 0.11137063979529123, 0.11438971379991453, 0.1175153869565582, 0.12064125035666606, 0.123826737596306, 0.12704432677221425, 0.13035169293906698, 0.1336706112974985, 0.13709840201148457, 0.140580919545714, 0.1441272128122044, 0.147719012727466, 0.15138209651860726, 0.15508411001149533, 0.15884314086562762, 0.16267650941220593, 0.16654700232938974, 0.17047290105974433, 0.1744585215241652, 0.17850096509671678, 0.18253671893231246, 0.18669986897440866, 0.19096547551176657, 0.19522711862385397, 0.19954417881308192, 0.2038389145633072, 0.20827546863281515, 0.21272816546920423, 0.21726905077987038, 0.22185829382089314, 0.2265528663590498, 0.23123246402266676, 0.23591842034164612, 0.2407076023530449, 0.24554539768119388, 0.2503967868954795, 0.25533570271045875, 0.26034786466485216, 0.26537527429234553, 0.2704499910494978, 0.275598798952726, 0.2807632583191571, 0.28594887984864564, 0.29121046533020184, 0.29651626306484896, 0.3018841751829916, 0.30727414845867396, 0.31270739732655717, 0.3181830486731853, 0.32370021904900065, 0.3292187840965752, 0.3348212615751774, 0.34037207563882693, 0.3460583154345444, 0.35177493824067174, 0.35760803765705673, 0.3633744231653378, 0.36911571979890595, 0.3749583320754161, 0.38083032489458424, 0.3867725210322387, 0.3926962062636069, 0.398541743570762, 0.4045374279980372, 0.4105545529895489, 0.41664733410425636, 0.4226995179581682, 0.42868350283181356, 0.4347929059846914, 0.4409184107620839, 0.44704003929067615, 0.4531990203482753, 0.4594391316834807, 0.46561617330806065, 0.4718094071741989, 0.4780328140913645, 0.48425265795541933, 0.49040393887762573, 0.496659003898656, 0.5029197563143345, 0.5092420769172011, 0.5155046036092337, 0.5217243748840853, 0.5280042144197852, 0.5342846780974324, 0.5405320149106848, 0.5468146360449785, 0.553117795336292, 0.5593872705413099, 0.5656517098333907, 0.5719076814002098, 0.5781585395977252, 0.5843873256020617, 0.5906205383258576, 0.5968413847131753, 0.6030028540151355, 0.6092010013456782, 0.6153335479378997, 0.6214991869205077, 0.6276414907240985, 0.6337368793851977, 0.6398332219615354, 0.6459734082020405, 0.6520060408656398, 0.6580140178707253, 0.6638999247543473, 0.6698661622610218, 0.6758239614705295, 0.6817169618800268, 0.6875752532549657, 0.6934369355521021, 0.6992174104164948, 0.7048485207343823, 0.7105696959726066, 0.7162453566101985, 0.7219522395828799, 0.7275250830312264, 0.7329630197188359, 0.7384591737190226, 0.7439037771743552, 0.7493875951191259, 0.7547151235992909, 0.7599021499092097, 0.7651416036546685, 0.7703235529755195, 0.775522280528189, 0.7805769303297263, 0.7855492559318414, 0.7904932154595067, 0.7953762655993375, 0.8001360159853388, 0.8049008809950113, 0.8096660090984108, 0.8142845788552693, 0.81883689877603, 0.8232517569019271, 0.8276760262013817, 0.8320541675084838, 0.8363251302398884, 0.8405215826119516, 0.844626083256615, 0.8486722996422416, 0.8525689825789597, 0.8564658076584906, 0.8602780567317878, 0.8640957903123212, 0.8677262161619439, 0.8711842361236771, 0.8746632001979405, 0.878053603916375, 0.8813451641508887, 0.8845582120613159, 0.8876631481957562, 0.8906965279657529, 0.8936371739342172, 0.8964889958725631, 0.8992422335468787, 0.9018960672400674, 0.9044614946907409, 0.9069314665960125, 0.9094056652146937, 0.9116703157973507, 0.9137867171465515, 0.9158739649074281, 0.917863746387663, 0.91976838776774, 0.9215593639693719, 0.9232220313506844, 0.9248181993631303, 0.9263123631118074, 0.927650696292027, 0.9289463303483673, 0.9301324519577239, 0.9312160610316851, 0.9321933053272656, 0.9331655432586613, 0.9339172568165401, 0.9345671729171681, 0.9351167500786927, 0.9355639335657456, 0.9358012585127149, 0.9360552275534159, 0.9362415361482008, 0.9362702275520443, 0.9361919384388729, 0.936056801566312, 0.9357582442549114, 0.9353381502223945, 0.9348332529532535, 0.9342226619716385, 0.9334191338954527, 0.9326080322443868, 0.9316960967783361, 0.9306632426308243, 0.9295217932414326, 0.9283453698534256, 0.9269793028685664, 0.9254058899237053, 0.923847561059117, 0.9221806402846386, 0.9204779910336903, 0.9185875690771047, 0.9166149006631443, 0.914518524029291, 0.9123219318386325, 0.909928321647591, 0.9075441786302637, 0.9051575548929046, 0.9025517741708711, 0.8997401038645455, 0.896954517772143, 0.8940664680771799, 0.8911349766495263, 0.8880384505686683, 0.8847842605069339, 0.8815051818500126, 0.8781284837615186, 0.8746902939039426, 0.8711176859560392, 0.8674073306941991, 0.86365745592118, 0.8598148596915562, 0.8558830330243143, 0.8518586288271992, 0.8477302363719494, 0.8435315334657592, 0.8392457061319663, 0.8349721764750926, 0.8305037191777358, 0.8258617347562924, 0.8212506619167977, 0.8165577081554037, 0.8117745340612597, 0.8069234474192499, 0.8020302517693689, 0.7970199875831266, 0.7919366761498603, 0.7867477292135144, 0.7815262028248494, 0.776309677034618, 0.7709374881204389, 0.765501380737935, 0.7599150936369106, 0.7543649987658907, 0.7488024565259472, 0.7431157414488216, 0.7373697901863613, 0.7316029906800893, 0.7257379243953295, 0.719815446147788, 0.7138459540221205, 0.7078254858402461, 0.7017640454612292, 0.6956444298256252, 0.6893944182569891, 0.6831937909751828, 0.6769447157788583, 0.6707125100764819, 0.6643648388758786, 0.6579860991705304, 0.651561550129289, 0.645101722277921, 0.6385971936102885, 0.6320726442148467, 0.6254426209660134, 0.6188663472706668, 0.6122578537104597, 0.6056303045421555, 0.598962728768251, 0.5922374632319621, 0.5855260264130708, 0.5787917197553021, 0.5721260917398471, 0.5653412518186202, 0.5585024390876092, 0.5517013227456368, 0.5448889809856816, 0.5381074495734439, 0.5312726956367636, 0.5243894181399265, 0.5175539893633055, 0.5107149693686702, 0.5038545259026901, 0.49701613260845334, 0.49019141369192903, 0.4833544448950736, 0.47652253625727264, 0.4697246375712789, 0.46290450437618436, 0.45610692020863297, 0.44931014504780137, 0.44252850874002975, 0.43573286210585194, 0.42898946909589325, 0.4222015255098557, 0.41550276568291594, 0.40882136225691923, 0.40224877891198796, 0.39559702133701047, 0.38897697554892735, 0.3823828453914795, 0.37581967615360645, 0.36922652519386334, 0.36273666851802033, 0.3563225378679061, 0.3498908439797654, 0.3434960885832185, 0.33715042584875354, 0.3308319374110972, 0.32449155503502725, 0.31826483630828223, 0.3120781966259505, 0.30595618791485096, 0.2998517498323958, 0.29381854992088247, 0.28780459077835385, 0.28184078052346545, 0.27588238632004874, 0.2700277645790153, 0.26422054553736574, 0.25846906417958837, 0.25277078147549426, 0.24711501026871685, 0.24152848654424489, 0.23603746036359766, 0.2305597527743665, 0.22514294082619377, 0.2197671335864919, 0.2144771603346416, 0.20918611805663556, 0.20402934610603915, 0.19893300140931183, 0.19397255874335914, 0.18899171816659882, 0.1840923702017692, 0.17924721067357371, 0.17447220211195988, 0.16973503894643935, 0.16510563056425845, 0.16052064552894368, 0.15603403581323907, 0.1516167803323821, 0.14726748430135292, 0.1429915073137995, 0.1388065559271092, 0.13467155186705163, 0.13061027088070748, 0.1265936612331147, 0.12268463179293461, 0.1188792152130853, 0.11511305083203195, 0.11142268748237959, 0.10775489413751382, 0.10422336211194669, 0.1008566080708718, 0.09746051309447698, 0.0941437830498282, 0.0909049788489164, 0.087746094154894, 0.08456419150737464, 0.08157449875988454, 0.07865690117462122, 0.07581413263877654, 0.07304201556749808, 0.07034131407674854, 0.0677169269215852, 0.06516646438447492, 0.06270749605208616, 0.0603030105106682, 0.05795074264025367, 0.05569915522499318, 0.05352094711308178, 0.05142801346713623, 0.049394714135123745, 0.04748950718618561, 0.045596177768173166, 0.043778773173804804, 0.04203534535286509, 0.04036737580611098, 0.03879019478332474, 0.03726593328292034, 0.0358144287229486, 0.034375921724961796, 0.033074654340821324, 0.031860871284948654, 0.03069016116747331, 0.02958657876542861, 0.028566919115690162, 0.02759344409138673, 0.026665384940102795, 0.025825926534956783, 0.025049737938846753, 0.024365558576231676, 0.023710112819863106, 0.02307060189374585, 0.02254567334090832, 0.02207892491529019, 0.02172205610668366, 0.02136318574254642, 0.020995912919024518, 0.02076275528139808, 0.020582677485638592, 0.020438752641991582, 0.020365102277041212, 0.020433244773551403, 0.02044792360252495, 0.020516721868976913, 0.020630554408171447, 0.02080422629021057, 0.021014260759408827, 0.02128717989642081, 0.021586640317535398, 0.021953212692423268, 0.022362563735975116, 0.022789742017983252, 0.023284732104107926, 0.023815991194353736, 0.024387318424290715, 0.02499526245112162, 0.025620406029003957, 0.026301216854249587, 0.02709220225603003, 0.027828000840284715, 0.028599230491956912, 0.02940544178884851, 0.030242820988637877, 0.03111228908476345, 0.03201009833814799, 0.03293614073340735, 0.033840003257056356, 0.03482461742414422, 0.03578926333293472, 0.03682109639872097, 0.03787021900415832, 0.03900902511795581, 0.04008157689667243, 0.041130979624582835, 0.0422462337571379, 0.04337573662884852, 0.04454030776967645, 0.04569260967562275, 0.046884653242488854, 0.0480573137386645, 0.04924162770581908, 0.050410054368683226, 0.05161686085041072, 0.05284833420116285, 0.05406401575054836, 0.055284754594939346, 0.056460312082526394, 0.057693790995363425, 0.05892823058272938, 0.06015826454961055, 0.061385712142429806, 0.06265118548198848, 0.0638658138341989, 0.06499273921463768, 0.06621153665786349, 0.06742055010576639, 0.0686280733202624, 0.06981508918874253, 0.07108182907958352, 0.0722353221629935, 0.07338186529543739, 0.07443504618537262, 0.07557427185297803, 0.07680127852948443, 0.07789540075864224, 0.07897851320938376, 0.07995440526885164, 0.08102336241245166, 0.08216901958508947, 0.08318474000593654, 0.08418479126412735, 0.08516903756977257, 0.08613401613515531, 0.08697641877837128, 0.08791537420429964, 0.08882751044877929, 0.0897095032288473, 0.090568201669266, 0.09147696739828726, 0.09227112142511282, 0.09304197402948597, 0.0937124071422235, 0.09444384700979222, 0.09515625132148327, 0.09582637626309369, 0.09646700640962513, 0.09717273347191208, 0.09774172920716287, 0.09822811971810659, 0.09875372090963955, 0.09924932632761858, 0.0997200288568432, 0.10015390868066566, 0.10061267484624191, 0.10097781407587941, 0.101314744252731, 0.10157479209180562, 0.10185927438436071, 0.10207496023348349, 0.10229820738831874, 0.10248639415877626, 0.10273018000009634, 0.10283742402890296, 0.10286077701121411, 0.10291554043055796, 0.10293679936446369, 0.10288208596931615, 0.10284182051396595, 0.10278106243544073, 0.10266778822180792, 0.10252043027434851, 0.10242423361941157, 0.10219869293402849, 0.10184103986840749, 0.10157097135822858, 0.1012657054049055, 0.10092797602445415, 0.10055367324602252, 0.10019491179533392, 0.09974787465956735, 0.09927099698473633, 0.09879918838190675, 0.09825837370538325, 0.09772150819375389, 0.09712126128654558, 0.09649494353952837, 0.09585538007095994, 0.09517460220278263, 0.0944658160334445, 0.09373354834352693, 0.09297519666576373, 0.09219736739240579, 0.0913862916586801, 0.09049323058515896, 0.08963888037203788, 0.08875648457838511, 0.0878620616751596, 0.08692392227901422, 0.08597828760408965, 0.08498869508186777, 0.08397638611874893, 0.08307371026776879, 0.08200079486466365, 0.08086943162388019, 0.07977413099709686, 0.07866171110785096, 0.07761514291485082, 0.07645854450718685, 0.07527926080983202, 0.07410016613808912, 0.07290821625828864, 0.07178301954456504, 0.07055557628848184, 0.06927771404542139, 0.06803950336163504, 0.06679053597857103, 0.06562485911954148, 0.06434359803618962, 0.06300357418966619, 0.061720442551241816, 0.06042970948815856, 0.05923977092972322, 0.0579217933243778, 0.0565364245148988, 0.05522714898256033, 0.0539140320969631, 0.052728483164095535, 0.0513931219718313, 0.05008948073349168, 0.04876166880310513, 0.04744050149424424, 0.0461552239245176, 0.0448432472595315, 0.04353294277169866, 0.04223821487473991, 0.040951469183509503, 0.03963487580623579, 0.03836994970028387, 0.03713496902806603, 0.035882150686437395, 0.03463946354202907, 0.03352534383792246, 0.03229031061555279, 0.031000256172040414, 0.029812652605854705, 0.028639906352019785, 0.02758084953613876, 0.026427718025187546, 0.02525045265880827, 0.024148748603601153, 0.023067360766774837, 0.022050525455215447, 0.021006241080773348, 0.02008376680805509, 0.019077270223975158, 0.018101916422665645, 0.01716617496080947, 0.016251406711332142, 0.015394104504103572, 0.014538728669363133, 0.013716392288335705, 0.012931525172327572, 0.012175039214928142, 0.01146217416558948, 0.010772400838316081, 0.010117720524473883, 0.009424421195646541, 0.00885053334630898, 0.008322015893789735, 0.0078122170207360194, 0.007350798678167678, 0.006910934967193827, 0.006509050215356428, 0.0062135414645482995, 0.005881561828127331, 0.005602540211110353, 0.005358195592655944, 0.005159148290429534, 0.0050351083314313675, 0.004923844656576239, 0.0048572587551281125, 0.004842476946784922, 0.004875866011945323, 0.0049141455385013745, 0.0050503548548817764, 0.005252943649827815, 0.005480960422571429, 0.005758339385512624, 0.006076921005398267, 0.006455799173247875, 0.006997459006939572, 0.007463837219609673, 0.007988267187144078, 0.008563890652369765, 0.009204386325378998, 0.009826688610401991, 0.010590673214911538, 0.01140746231790838, 0.012383455746847292, 0.013294540772375137, 0.014266349970673234, 0.015298633033904432, 0.016391214911401063, 0.017522191482002413, 0.018737855842816595, 0.019953585044547736, 0.021294725023014254, 0.02269191357292612, 0.024136051897095587, 0.0256486512312689, 0.027306987995486733, 0.028924000271238925, 0.030604653149271393, 0.032274664649151026, 0.034091468373232486, 0.03596732644621346, 0.037902754844640826, 0.03989821857786035, 0.042031506289471804, 0.04413846388111907, 0.04633053257089306, 0.048565669027466236, 0.05086677645881856, 0.053174591981943256, 0.055613879496346996, 0.05817683875567594, 0.060731568010832376, 0.06335167674680035, 0.06594525468320811, 0.06870661542380996, 0.07154027941066697, 0.07441889296389154, 0.07735830288827523, 0.08032929752425721, 0.08339460574973896, 0.08654243457025694, 0.08972443170339257, 0.09296789996830779, 0.0963447543572453, 0.09970201069723368, 0.10308432276556116, 0.10657674018997836, 0.11013093379685936, 0.11373462871508168, 0.11741301821778802, 0.12109713348210675, 0.12490261777744559, 0.12876479421424966, 0.13269691301463593, 0.1366712648119374, 0.14075456009973472, 0.1448377469625238, 0.14898120766260758, 0.15313635396700162, 0.15740451804607894, 0.16170004681392597, 0.16608296462752203, 0.17051949923081924, 0.1750259190699748, 0.1795673230769853, 0.18412905829588652, 0.18878257301422988, 0.1934874973900631, 0.19821095876584616, 0.20302223193164937, 0.20797607362408319, 0.21287310896224687, 0.21782399466821178, 0.2227743373013754, 0.227836714096344, 0.23287947085790994, 0.23804578366205, 0.24325522478040082, 0.24850777568318794, 0.25380332071464984, 0.25914165592211125, 0.2645224971638375, 0.26994548754622744, 0.27549411450605255, 0.2809894665652013, 0.2864430575023524, 0.2920390101945501, 0.2976730113219039, 0.3033184250009257, 0.30903032877156966, 0.31475650252436477, 0.3205405527322637, 0.3263575057391698, 0.3322004401258538, 0.33808280097452165, 0.3440377397113128, 0.349976664799137, 0.35594794919666006, 0.3618928513198865, 0.36793319242695244, 0.37406614524978393, 0.38014981318919916, 0.3862621997112018, 0.39230403091233146, 0.39848267882180527, 0.40470714765633503, 0.41092145596560253, 0.41715607892157625, 0.4233950189634701, 0.4296699326978911, 0.43601862067561775, 0.4423198481869126, 0.44863984356412306, 0.4549675190666992, 0.46132246962264306, 0.4675894188671541, 0.47398504248950174, 0.4803870618818008, 0.48677881643679133, 0.49319465263784934, 0.49968339309025067, 0.5060986011526245, 0.5125209275811137, 0.5188467699782776, 0.5252927825809204, 0.531768261433202, 0.5382056582463668, 0.544641895107652, 0.5510086124913363, 0.5574486344990981, 0.5638996966754647, 0.5703220167661049, 0.5767370109448241, 0.5831581136821444, 0.5895544049807518, 0.5959014656424799, 0.6022840194639049, 0.6086533406415281, 0.6150773372268648, 0.6214092142301161, 0.6276072461102491, 0.6339295053957832, 0.6402302245145975, 0.6465841667317692, 0.6528309141551886, 0.6590489649979724, 0.6652578801072493, 0.6714447738221149, 0.6775245351273556, 0.6836743911254438, 0.6898701927055567, 0.6959492047598452, 0.7020010278349331, 0.7079164853097004, 0.7139237067824783, 0.7199766657945644, 0.7258988629929246, 0.7317877568117054, 0.7375266034283726, 0.7433598097864649, 0.7491768041702194, 0.7549193776435005, 0.7606193644616125, 0.7663098509818819, 0.7719182504302414, 0.7773998015489832, 0.7829318194795741, 0.7884139581604358, 0.7938839145890392, 0.7992600577956231, 0.8046184948288245, 0.8098910553958238, 0.815114124466281, 0.8202036272211443, 0.8253344425932716, 0.8304706234435545, 0.8354772429360422, 0.8404284578950002, 0.8452729917920808, 0.8501163070165506, 0.8548326245330525, 0.8595602850232075, 0.8642441237798328, 0.8688352475305939, 0.8733603994243475, 0.8777906649994244, 0.8821856663580907, 0.8865646292478142, 0.8908135366763263, 0.8949950077041335, 0.8991069492966907, 0.9031506881116896, 0.9070912665253493, 0.9109972495506009, 0.9148290384690971, 0.9185859735038202, 0.9222673787406409, 0.925826796750825, 0.9293608554519749, 0.9328147269436535, 0.9362392907574368, 0.9395252511208207, 0.9426488426143217, 0.9457876264862336, 0.9488415292540289, 0.9518899553064109, 0.9547635377527719, 0.9574950670921542, 0.9602133689983635, 0.9628453780775821, 0.9654550212260313, 0.9679051905594483, 0.9702224742224762, 0.9725102141239177, 0.9747095397976692, 0.9768091208189482, 0.9788316978609721, 0.9808184426107646, 0.9826531564684694, 0.9843999351984896, 0.9859479380638042, 0.9875304882617385, 0.9890832353166636, 0.9904650932557151, 0.9917548771195864, 0.9929587428321529, 0.9940624246266249, 0.9950645954025323, 0.9959834208267986, 0.9968082472391598, 0.9974897900330953, 0.9981320987316747, 0.998641012779565, 0.9990932072604845, 0.9994463317873011, 0.9997030070020068, 0.9998589842899186, 1.0, 0.9999502230658479, 0.9998078436202132, 0.9995015877425908, 0.9991816995534074, 0.9988381981874463, 0.9983138164719748, 0.9976964750382245, 0.9969782278007857, 0.9961750431119589, 0.9951741837820732, 0.9941957183817689, 0.9931171971515397, 0.9920124847851706, 0.9907271160446494, 0.9893601594123197, 0.9878862331524841, 0.9863196562283792, 0.9846299974061236, 0.9828822672390053, 0.9809871558463787, 0.9790586666685295, 0.9770341208988769, 0.9749819891304047, 0.9727594663551574, 0.970352474098182, 0.9679628728966775, 0.9654788488531373, 0.9629287505176931, 0.9602556965024382, 0.9575452148172876, 0.9546868212507494, 0.9517431111179914, 0.948662092012834, 0.9455553599794441, 0.9423244236817184, 0.939048954240044, 0.9356860129560728, 0.932283628570122, 0.9287432898481938, 0.9251117012136837, 0.9214104131564173, 0.9176285473785871, 0.9137375042562045, 0.9098006881846739, 0.9058528123430287, 0.9017489959306617, 0.8975715209787893, 0.893240281031114, 0.8889273507869265, 0.8846262923451048, 0.8801507659834437, 0.8756064853163693, 0.8709014189925196, 0.8662331992338229, 0.8615562205766539, 0.8567376123614415, 0.8518536112747547, 0.8468920928537362, 0.8418818518330455, 0.8368051755250183, 0.8316701729842023, 0.8264741520936649, 0.8212183294137027, 0.8159039342507353, 0.8105169522034912, 0.8050910795338521, 0.7996095416016474, 0.7940072658173345, 0.7884270035795812, 0.7828253229952208, 0.7771323176917547, 0.7713897992555206, 0.7656428891474905, 0.759800409931704, 0.7538249577934587, 0.7479099994134957, 0.7419497397151401, 0.7359352036884981, 0.7298914238032626, 0.723822573578233, 0.71769805320747, 0.7115376913271273, 0.7054302832001292, 0.6991920360106264, 0.6928382503331295, 0.6865597853274125, 0.6802518812639924, 0.6739859753353151, 0.6676154249640888, 0.6611960074644608, 0.6547890216133708, 0.6483620594379199, 0.6418783491587777, 0.6354203756066451, 0.628957502564492, 0.6224636295330582, 0.6159558977672465, 0.6093922625875292, 0.602866948072265, 0.5963342885589435, 0.5897868780991053, 0.5832316817845532, 0.5766889525989148, 0.5701209851779906, 0.563592749905257, 0.5570176620592765, 0.55044615216604, 0.543861902007195, 0.5373031373276677, 0.530683942604767, 0.5241470135491411, 0.5176150869301508, 0.5111826743961805, 0.5046546274988533, 0.4980670522903275, 0.49158080141574745, 0.4851079592384673, 0.47871010672512876, 0.47226139716742416, 0.46573946422733414, 0.459346955029843, 0.4529728241120976, 0.4466527068232794, 0.44031654465655357, 0.43399836477255593, 0.4277157575478483, 0.4214610452369745, 0.41523015824155407, 0.40903603022973906, 0.40290731707863175, 0.39677351618653306, 0.3906758769298524, 0.3846164869877856, 0.3785940315313768, 0.3726086247706001, 0.36666589822908124, 0.36076427161965763, 0.35489386044062426, 0.34907884472802814, 0.3433302227158143, 0.3376004117842589, 0.33191753411900327, 0.3262998813075292, 0.3207112354061059, 0.3151872406347997, 0.3096984892370313, 0.3041763746587754, 0.2988045868696413, 0.2934819660527412, 0.28828287887400433, 0.2830533485077913, 0.27787765830525557, 0.27276331903580076, 0.2677070353630627, 0.2626560150683894, 0.2577244108017841, 0.2528006438686118, 0.24799002150256885, 0.24323552339523868, 0.23863762401995603, 0.2339866576735831, 0.22931382573183864, 0.22480473457363326, 0.22035653117898327, 0.21595709361128496, 0.2116351060113483, 0.20746962614623723, 0.2032622106014834, 0.19912445135891838, 0.1950116099315365, 0.19101866235235346, 0.18713962213102253, 0.18327521487864995, 0.17948119191399167, 0.17567466458070521, 0.17203169435957807, 0.16854148337429725, 0.16501928869061416, 0.16156876750537233, 0.15808182614008115, 0.1547876848533492, 0.15165884690905126, 0.14848282966416396, 0.14537879888184474, 0.1422919767082274, 0.13933795032618274, 0.13650323826922772, 0.13367910955330556, 0.1309262632830249, 0.12817898713285253, 0.12557599534312835, 0.12302548160400109, 0.12055777763243385, 0.11815627053560655, 0.11582877926432078, 0.11355920036260692, 0.11134461646096433, 0.10921044133241764, 0.10714237126974781, 0.10514686402305055, 0.10320987742731166, 0.10130734846775966, 0.09950618215631264, 0.09776867014769444, 0.09610558891462304, 0.0944935771312385, 0.09294962934812308, 0.0914640797921302, 0.09004164383033132, 0.0886959740012087, 0.08739639911916179, 0.08621249225712822, 0.08502998797192324, 0.08391129999706867, 0.08278442197946582, 0.08179884417781122, 0.0808882317009614, 0.08001269564314589, 0.079193604763005, 0.0785206795499564, 0.07780084003827384, 0.07707380795326814, 0.07647942755916258, 0.07593765375289681, 0.07550867649126262, 0.07506188525857714, 0.07459776115176381, 0.07426557522637442, 0.07398026350326359, 0.07380979516349383, 0.07360746753250258, 0.07337853206874961, 0.0732815579605763, 0.07322634685522596, 0.07324604379982208, 0.07326813490703243, 0.07334057013861904, 0.07344378709601816, 0.07358707184296993, 0.07375407465874555, 0.07397615213039765, 0.07427450488380416, 0.07456244425498534, 0.07488669138584075, 0.07514242669484092, 0.07554852700070598, 0.07604453611233229, 0.07649567267734626, 0.07697621887006516, 0.07742301591670146, 0.07796710043142206, 0.07862005586055676, 0.07919826323589785, 0.07980290932343004, 0.08044897138292462, 0.08110035584663176, 0.08171624383447684, 0.08242036212235929, 0.08314175896685665, 0.08389048102983318, 0.08464248200685916, 0.08536725492117946, 0.08615417385772847, 0.08695197616837487, 0.08774691895649601, 0.08856609848067491, 0.08945759467025378, 0.09028400855880382, 0.09112064904290203, 0.09192482794469133, 0.09278335462319648, 0.09371469571970946, 0.09457200750666524, 0.09543560692986984, 0.09628880435918971, 0.0971626680067986, 0.09798444080059181, 0.0988665245457659, 0.09974466186851766, 0.10065634160025533, 0.10151978305221904, 0.1023281753596527, 0.10318940930647498, 0.10404191989119638, 0.10489604238285057, 0.105728013273913, 0.106584976023923, 0.10739205527517956, 0.10818976060034, 0.10901631114578711, 0.10978730790692828, 0.11054492973660644, 0.11129490028308146, 0.1120321950533485, 0.11275792624761687, 0.11346644923764215, 0.11406893599479388, 0.1147567948172799, 0.11542218849288603, 0.11605738441586055, 0.11667845098082257, 0.117299057606867, 0.11787037246578473, 0.11841925018497235, 0.11893981749602967, 0.11944323123479166, 0.1199988981231773, 0.12044422178476201, 0.1208690194670958, 0.12120690254223185, 0.12159598066556497, 0.12195154038946107, 0.12228722419921706, 0.12259503643540745, 0.12289220167966856, 0.1231414275987448, 0.12338817885787036, 0.12357879993538255, 0.12374259174584858, 0.12390627743819523, 0.12401145008338524, 0.12409970209849155, 0.12414956763901117, 0.12417210052734313, 0.12416347005292583, 0.12413013387047063, 0.12396099949146956, 0.12388281124450759, 0.12376898051477295, 0.12369312747140093, 0.12350053998826782, 0.12325407507715512, 0.12300456698677692, 0.12272354989081806, 0.12241875945143728, 0.12207408677668811, 0.12164527293310748, 0.1212459269083957, 0.12081298126170746, 0.12037202255035631, 0.11987023832916928, 0.11935406665800526, 0.1187889717358948, 0.1181945089099898, 0.11760891645526604, 0.11695120884093867, 0.11619797621141847, 0.1154950604372343, 0.11476118682272776, 0.11407642499700672, 0.11327211528694352, 0.11241993336632715, 0.11156837727082401, 0.11075567513826311, 0.10984294630435762, 0.1089077048722291, 0.10794965389297799, 0.10696859494705149, 0.1059088428341223, 0.10488855190044269, 0.10384204789238027, 0.10278188146144132, 0.1016831328328855, 0.10055510540371035, 0.0994098719483148, 0.09824149343442232, 0.0971714961799457, 0.09594323909244296, 0.09464477474533935, 0.09339390650418378, 0.09212466383069376, 0.09092563228821361, 0.08960948083494487, 0.08821453231129371, 0.08688188577906605, 0.08553280267864259, 0.08419940389041794, 0.08281504240887068, 0.08144273929826595, 0.08002955653738515, 0.07860554915704589, 0.07728867350340327, 0.07582899924922995, 0.07431597344000022, 0.07285569778132028, 0.07138856742443207, 0.0699464124344283, 0.06846234408821303, 0.06706130069779054, 0.06555810085295723, 0.06405612970660109, 0.06251691641330394, 0.061021393282873225, 0.05963013034730773, 0.05811875410352722, 0.056612741956518546, 0.05505620711434198, 0.05356718165015634, 0.05217365564128706, 0.050676913596979976, 0.04918840916611157, 0.04776473201124413, 0.0462854431683183, 0.04475997687325051, 0.043310977489161524, 0.04187012311594459, 0.040525167482079745, 0.03909136234661751, 0.03768774196444985, 0.036281889450152795, 0.034891993500788865, 0.03354869894969053, 0.03218736382128858, 0.030788831600851663, 0.029471457927287104, 0.02816979716209579, 0.02698927756393409, 0.025708276660969958, 0.02438706515867922, 0.02316238465819336, 0.021958337602051674, 0.020861763242117685, 0.019690368814166036, 0.01860559437576897, 0.017482415999086627, 0.016390625420948983, 0.015277727331967113, 0.01425489301385721, 0.013276668904256307, 0.012308874052143681, 0.011371452261654407, 0.01054010694854997, 0.009655497669766233, 0.008789691651591363, 0.007979771621321376, 0.007205221497719641, 0.0065295736047738225, 0.005818809829413569, 0.005064194713218752, 0.004444120728166896, 0.003859418249726535, 0.003399173673694856, 0.002876495035615384, 0.002347521370292706, 0.00191659998002305, 0.0015258827338467621, 0.001207571545453427, 0.0008950700912518608, 0.0006993692681648684, 0.0004655639987225899, 0.00028037646479768123, 8.041856146772353e-05, 0.0, 5.590379814997682e-05, 5.404596342548465e-05, 0.00010324009699193862, 0.00021747684259859317, 0.00036654060840177893, 0.0005791545886508395, 0.0008297627714571487, 0.0011325445697275111, 0.0015005450639483662, 0.0019059893438123977, 0.0022663522010534314, 0.0027902165471774655, 0.003361681990336529, 0.004081918530683454, 0.004738591026832041, 0.005358426346112929, 0.0061383277444897345, 0.006968740725718292, 0.007862421394522815, 0.00879459079931876, 0.0098792473139144, 0.010906028384221018, 0.011992676601227775, 0.013078896761233933, 0.014291844622929957, 0.015534252069469292, 0.016862028058403162, 0.018244521606328615, 0.019755215566537053, 0.02123927955955486, 0.022744209837648018, 0.02435318713542257, 0.02601961363205712, 0.027766514511397795, 0.029545354524859353, 0.03138113019289705, 0.03327839170447195, 0.0352344858146833, 0.03729948838500326, 0.039366754762853354, 0.04143012955091418, 0.04362819380995263, 0.04588321835060516, 0.04824330976682114, 0.0506066361751199, 0.052952626854462795, 0.055445493185147084, 0.05799344484163519, 0.060601185912135126, 0.06325972900253195, 0.06597336181264105, 0.0687445344799272, 0.0715720446005553, 0.07448209763075118, 0.07741908937149125, 0.08039648394483845, 0.08345108297141583, 0.08656198533349863, 0.08980205396292952, 0.09301585707732206, 0.09624921746533412, 0.09958706626165124, 0.10298096614370672, 0.10637495394922357, 0.10988682369678168, 0.11345809268234669, 0.11707259616230699, 0.12073935212184628, 0.12444407539228641, 0.12821672924328356, 0.1320534369399051, 0.1359262677427156, 0.13985051419920236, 0.14386399629677704, 0.14788526120271722, 0.15195467987667763, 0.15608081718444644, 0.16025783025800122, 0.16450578502340596, 0.16878002189263347, 0.17302920826600462, 0.17741244829600328, 0.18184005945322132, 0.18627594182122734, 0.19079636928758087, 0.19542504082190795, 0.20002059508745756, 0.20466155347446136, 0.20930581008941299, 0.2140407249773564, 0.21882861838763823, 0.22364363501764192, 0.228499542067216, 0.23341868020113254, 0.2383518190486909, 0.24328729026211457, 0.24830540419197325, 0.2533602669958927, 0.2584928088295659, 0.26361445822830987, 0.26874094532241727, 0.2739408781612417, 0.27910386723708297, 0.28437991406819546, 0.2896846113115503, 0.29498953154075575, 0.30035473977886934, 0.30575409300042444, 0.3111712586739562, 0.3166150506984977, 0.3221374225191404, 0.3276267214061539, 0.33307239444858766, 0.3386264174502186, 0.3442027748000983, 0.3498370450821789, 0.355452305666508, 0.36104697774195377, 0.36671289076102864, 0.3723976214222486, 0.3780984517411355, 0.3838194230659732, 0.3895366107641974, 0.39529337442198276, 0.4010645192993852, 0.40690722171811516, 0.4126980335570842, 0.4185002159375337, 0.4243218517373765, 0.43015662060397575, 0.43587373177009764, 0.44174784156463587, 0.4476931642057219, 0.4535636795262214, 0.4594404236953238, 0.4652811771370615, 0.4711731591142777, 0.4770294872384965, 0.4829283986848202, 0.4888254680856968, 0.4947606497576257, 0.5006477539245132, 0.5064413069650301, 0.5123373575708531, 0.5182254281570868, 0.5241151136778724, 0.5299852384696212, 0.5358121123714578, 0.5416693064165541, 0.5475149342944481, 0.5533376710814949, 0.5591601747242367, 0.5650539661525041, 0.5708377258153278, 0.5766113273813681, 0.5822981893393006, 0.5880568434872339, 0.5937556291277045, 0.5994819021380963, 0.6051859426476518, 0.6108454950297714, 0.6165063641597108, 0.6221334472046866, 0.6277447835788982, 0.6333294881011446, 0.6388673716078112, 0.6443995022394444, 0.649948839334227, 0.6554151418281497, 0.6608531588100768, 0.6662770481859873, 0.6716532663437852, 0.6769300978813312, 0.6822523050393754, 0.687537492235783, 0.6927403401353698, 0.6979551647370951, 0.7031382001084684, 0.7082681725357785, 0.7133561827564963, 0.7183710717542655, 0.7233770247758384, 0.7284047792106745, 0.7333101273105382, 0.7381723664181599, 0.7429957454034322, 0.7477674970314504, 0.7523915566724745, 0.7570822427646625, 0.7617185440418717, 0.7663578906188789, 0.7708770624563189, 0.7752610648452218, 0.7796850097607702, 0.7840499605579966, 0.7883893731056284, 0.7926310095771884, 0.796772939019148, 0.8009024168895562, 0.8049696545562026, 0.8090428056553717, 0.8129753302264434, 0.8168271130807088, 0.820640994741018, 0.824391338388766, 0.8280586673111606, 0.831681436233105, 0.8352618758475525, 0.8387459259346454, 0.8421624589974297, 0.8454342224671529, 0.8487224791875415, 0.8519415483112484, 0.8550795583507264, 0.8581426143283106, 0.86115862098272, 0.8640668662716503, 0.8668611327905003, 0.869624097264921, 0.8723086301170907, 0.874912139303575, 0.8774388178556254, 0.8799215842937357, 0.8822835011602064, 0.8845666096712391, 0.8867232627169703, 0.8888523399896207, 0.8908333955525947, 0.8928028114292778, 0.8946841958681586, 0.8965071107231098, 0.8982090499144902, 0.8997910170675918, 0.9013245420654425, 0.9027693477981489, 0.9041504240735686, 0.9054143522948416, 0.906575354295978, 0.9076654753488326, 0.9086662748800272, 0.9095927333866691, 0.9104121213036978, 0.9111596202924924, 0.9117977314020301, 0.9123466650990276, 0.9127524910321024, 0.91312825638144, 0.9134604784539109, 0.913642559936204, 0.9137337565597434, 0.9136791385389711, 0.9135941644738942, 0.9133900579441179, 0.9131179044933206, 0.9127494390573472, 0.9123612069781655, 0.9117912280676774, 0.9111582431349553, 0.910401566667786, 0.9095543258838349, 0.9084950081992444, 0.9074803592331794, 0.9064552082160668, 0.9052325030637957, 0.9039172188854598, 0.9024285498257872, 0.9009378561558504, 0.8993802158454132, 0.8976913645519017, 0.8959079654119434, 0.8940717303846478, 0.8920949082528471, 0.8899199843679991, 0.8877740348939953, 0.8855308025557093, 0.8832053931865634, 0.8807685598317514, 0.8783174307308834, 0.8756835102738503, 0.8729615129249599, 0.8701383437358964, 0.867241856522403, 0.8641913101647566, 0.8611260107722757, 0.857968948587865, 0.8546948459510597, 0.8513601658770901, 0.8479304468848019, 0.8444159758036401, 0.8408125752686365, 0.837211672235386, 0.8334218795886377, 0.8294584492731983, 0.8255185194406574, 0.8214927954483989, 0.8174836797498044, 0.8132766952222086, 0.8089022467926785, 0.8045528406336523, 0.8001217758772409, 0.7956962097960212, 0.7910941312481665, 0.7863115932068514, 0.7815760292540245, 0.7767659291832859, 0.7718733786197397, 0.7669048496329431, 0.7618735797385425, 0.7567553067241599, 0.751535992198823, 0.7462793001438157, 0.7409515341534265, 0.7356510180486789, 0.7301728267932995, 0.7245326878819779, 0.7189442841622331, 0.7132896341704736, 0.7075930825401787, 0.701807397826349, 0.695989382341829, 0.6900799894736146, 0.6841139333537478, 0.6781183555664442, 0.6720386658861652, 0.6658948641628921, 0.6597133212636154, 0.6534807994237151