0.03913150609074159, 0.03862002082946377, 0.038141573655855965, 0.037681302871144386, 0.0372566586670309, 0.036838528014699716, 0.036452653123113486, 0.03608043939318959, 0.035679197741621246, 0.035333445517550154, 0.03505796285326949, 0.03471521939563547, 0.03438049717302329, 0.03398510912020748, 0.033672043915476305, 0.03336066786061996, 0.033051040855523836, 0.03274330004461631, 0.03247823000956343, 0.032169792327697844, 0.03193053513639844, 0.03162383698657561, 0.03132576636192043, 0.03099198535125755, 0.030715720904252508, 0.03038394929047468, 0.03012639255741174, 0.029871373549294644, 0.02966706027735785, 0.029413554521174164, 0.02905936476499472, 0.028834929480410484, 0.028612598420518474, 0.02838004389680188, 0.028167124735253284, 0.027989276564404843, 0.02778279257974774, 0.027584584678613792, 0.027435821577739845, 0.02725074500054765, 0.02706769234864216, 0.02690836252441477, 0.0267608862859625, 0.026574748926069324, 0.026458025273255477, 0.026479436110446983, 0.026366314054344427, 0.026271176634031137, 0.026179961223868786, 0.026120982284050086, 0.025935831325174474, 0.02592634654644947, 0.02592441358107492, 0.025934453915163597, 0.025950214554870808, 0.025983305311271673, 0.026020081078270137, 0.026069207380337207, 0.02627327184198323, 0.026330741794875236, 0.02634917027034675, 0.026457279555953207, 0.02658247122072465, 0.026734866998886764, 0.026892898900622922, 0.02707536168876293, 0.027267850068831825, 0.027478373438487008, 0.027639282130854186, 0.027894423814632776, 0.028187540166309585, 0.02846891779846132, 0.028767135387608313, 0.029065639925174178, 0.029400733808952965, 0.029779812468471514, 0.030145810219691416, 0.030531161464263747, 0.030892103534894216, 0.03132233183055516, 0.03175316230851434, 0.03222112580607707, 0.032706761833157336, 0.03325128911504142, 0.033769000293338444, 0.034291521236147864, 0.034854986977987876, 0.03543958477640129, 0.03597123756358457, 0.03660846395043103, 0.037310924850261794, 0.037978827402643155, 0.0386689617527339, 0.03937152645355348, 0.04010841777275049, 0.04087132268528457, 0.041653416590940164, 0.04245903929499647, 0.04334259023518433, 0.04418928096052958, 0.04498557272820151, 0.04589667145719216, 0.04683044150410281, 0.04786179180414311, 0.048832977510229324, 0.049758003701662314, 0.050794865909527205, 0.05185540826981488, 0.05287245470631168, 0.053990249051607944, 0.05518329504114381, 0.05633741859954949, 0.05751739352956192, 0.058676133855659465, 0.059914548515036366, 0.06120728929542745, 0.062490195366511396, 0.06379975117612285, 0.06514290416800564, 0.06650542878721477, 0.06795971141917521, 0.06936917420484526, 0.07080984609543102, 0.07223051441497551, 0.07373861638828189, 0.07520614173347513, 0.0767769810245136, 0.07837120093386124, 0.08007054790500902, 0.08170293349395931, 0.08338167844916432, 0.08507053789732698, 0.086789240475011, 0.08851034635558691, 0.09029103365247049, 0.09201443896018273, 0.09386026355265495, 0.09572844024975904, 0.09767704777245005, 0.0995843310351405, 0.10161000122181348, 0.10355977088000554, 0.10554148578093038, 0.10739532111471362, 0.10945846993403403, 0.11167075311330717, 0.1137595183434498, 0.11587725185988863, 0.1179658522558454, 0.12014700507442651, 0.1223048495845597, 0.12454003156025903, 0.12679650129862535, 0.12904411555609877, 0.13134781669726142, 0.1337495483352545, 0.1360842488238148, 0.13844415237184715, 0.14076117011905187, 0.1431786817215387, 0.14567037069284017, 0.14812128241558137, 0.15059544590861826, 0.15301124403157357, 0.15554081460503072, 0.15814521357306932, 0.1607023863267813, 0.16328043448486146, 0.16581806207557284, 0.1684442782565404, 0.17114752547761608, 0.17379839533376348, 0.17646883874606448, 0.1791954679487071, 0.18189859385209417, 0.18457427980270014, 0.1873223244200795, 0.1900858975287229, 0.19280708156431156, 0.19560768522603528, 0.1984564627012596, 0.20127429775817046, 0.20410509844563804, 0.2069382716419526, 0.2097949215085943, 0.21265579657174447, 0.21553485207281184, 0.2184743625641166, 0.22136603351346332, 0.22426939875665397, 0.227095640913218, 0.2300308698857609, 0.23305142945797397, 0.23598461563445608, 0.23892622759320323, 0.24181787614930494, 0.24478093907774234, 0.24773304897932416, 0.2507025986867602, 0.2536731780490663, 0.2566748819319258, 0.2596425996132744, 0.26266938360821507, 0.2656322667813399, 0.2685985163863631, 0.27157709226531496, 0.2745452887911529, 0.27739227390870413, 0.28037581254987987, 0.28335085981754876, 0.28633765658411664, 0.2892929225689644, 0.29218971800051463, 0.29513547355456404, 0.29806972060082515, 0.30110395032107545, 0.3040006564338419, 0.30684758016212466, 0.30973697378133225, 0.312615663147035, 0.31554373685625864, 0.3183909654852454, 0.32113385611916284, 0.3239724873283747, 0.32679366337714005, 0.32954625501845175, 0.33233768491167454, 0.335188641751462, 0.3379264190925173, 0.3406468002157733, 0.3433928243787874, 0.3460700949790103, 0.34872970650840557, 0.3513704238674083, 0.3539910691025634, 0.3566006622256705, 0.359176551931526, 0.3615741372546452, 0.3641231417889355, 0.366638571280018, 0.36916803431537154, 0.3716109986061729, 0.3740606942493567, 0.37643758274121425, 0.37878518422666557, 0.3811601873619373, 0.3834395467124665, 0.3856194463371443, 0.3878496666485961, 0.3900450542327879, 0.3922490361812721, 0.3943675749539759, 0.39640475236161377, 0.3984603212579171, 0.4004774035950442, 0.40254345330248864, 0.4044710077812472, 0.4062113622167476, 0.40808690551180893, 0.4099165323347153, 0.4117173078308093, 0.4134533462538375, 0.41522580303601725, 0.4168618793647136, 0.4184573068888815, 0.4199232188128603, 0.42144569934155524, 0.42288610689901096, 0.4243162612126119, 0.4256960295294379, 0.4271404850568045, 0.4284051456176209, 0.42951772719477227, 0.43070733513940535, 0.43184504703828075, 0.43311347007558726, 0.434124215024961, 0.4349409570145856, 0.4358857010152121, 0.43677703132631723, 0.4375844241790765, 0.4383724902727628, 0.4392065614390065, 0.43987099752399406, 0.44048583146153275, 0.4410164488453517, 0.44153403692144794, 0.4419235424784628, 0.44234284617805764, 0.4427036600812146, 0.4431551012659826, 0.4433810172495225, 0.44346290192764404, 0.44360109609516785, 0.44368272149519755, 0.4437990558649778, 0.4437559061699107, 0.44355300950898924, 0.4434197363834371, 0.4432274590962152, 0.4429223761299416, 0.4426198312605587, 0.44242519159886773, 0.4419795734821901, 0.4414835521746334, 0.44080443129293545, 0.44022198387291434, 0.4396168606835157, 0.43891053722707724, 0.4381475442297578, 0.43734837795764725, 0.4364701030892191, 0.4355808998074056, 0.4345873485177134, 0.4335415370391503, 0.4324804397307385, 0.4313247989934023, 0.4299629549711492, 0.42872538316215525, 0.4274278892446631, 0.42617641765459524, 0.4247490699741256, 0.4232335864995097, 0.421709133914268, 0.42013183575645996, 0.4185325918693654, 0.4168471527425863, 0.4150984656638396, 0.41331554279851496, 0.4114826751788372, 0.40963073464268296, 0.4076954576344652, 0.40561862541062976, 0.4036018501133181, 0.40153345967402304, 0.39944162309795844, 0.3972698732104811, 0.3950072578945716, 0.3927480248534423, 0.390440937466027, 0.3881716433295632, 0.3857614145761341, 0.38324360825945486, 0.38076234798317027, 0.37823800044497, 0.37574591123560225, 0.373128796268251, 0.3704045267477929, 0.36772441417569146, 0.36500483165536873, 0.3622433829094424, 0.35944822729000353, 0.3566467556099752, 0.35377521486699076, 0.3508705536947292, 0.3478895082727504, 0.3449262872327861, 0.3420108075744078, 0.3389715944642229, 0.33590572086501547, 0.3326817121964384, 0.3295805082231468, 0.3264771118560427, 0.32330844992476804, 0.3201120798329065, 0.3168723365020528, 0.31362638322144776, 0.3104230347002215, 0.3071197461588658, 0.3037977411009488, 0.30041371339812206, 0.2970618421021745, 0.2937043886921201, 0.2903136948352417, 0.2869068474255099, 0.28347466733871274, 0.28003969533084777, 0.276580755800527, 0.27312047271745016, 0.269647889409886, 0.2661776478248551, 0.2626820801768159, 0.25912415567418906, 0.25561989390271256, 0.25210626678990333, 0.2487030343027208, 0.2451598436318866, 0.24156047082118046, 0.23802746729603014, 0.23449322446828322, 0.23094512647490617, 0.22741285649571327, 0.223938832570069, 0.22040183976902264, 0.21684383743481758, 0.21332291148354138, 0.20980767184297577, 0.20626516401593947, 0.20276817551445686, 0.19928097911754653, 0.1957975453425358, 0.19232300645388273, 0.188882114149164, 0.1854255860309931, 0.1820162707949282, 0.17858308091140063, 0.17516683858698687, 0.1717816323203988, 0.1683992934658276, 0.16497895471640198, 0.1616434126122929, 0.15832526050150636, 0.1551405544394995, 0.1518458331160889, 0.14856455622694228, 0.14532554994476884, 0.14211296629377704, 0.13895757749992332, 0.1357950528109607, 0.13255698672506422, 0.12946654409643532, 0.1264000486677032, 0.12352779211212479, 0.12049135410278192, 0.11744106048739723, 0.11448446410567323, 0.11156138201242348, 0.10863155327630448, 0.10578163899901481, 0.10298434268183307, 0.10019727732107256, 0.09744518419039122, 0.0947725941031146, 0.09208659042515072, 0.08946678859305485, 0.08685587362598331, 0.08428609434492187, 0.08180824940148415, 0.07931459524650979, 0.07690587542508377, 0.07449559977705161, 0.07213164869033052, 0.06978660425454963, 0.06751773761741336, 0.06531994157696092, 0.06313581440871734, 0.060997520017256626, 0.058823880746494354, 0.05678752847504324, 0.05486696902306723, 0.05290477136126309, 0.050989646152232185, 0.049165638886381424, 0.04733937215439473, 0.0456339865066408, 0.043898260834630276, 0.04221603193222738, 0.04061706728172433, 0.03903608832714015, 0.03749172041776116, 0.03601930276295949, 0.034598326831626766, 0.03317101615580833, 0.03185939976068457, 0.030730594712351733, 0.029497286565088647, 0.028319761676329585, 0.02720061048318807, 0.026131963074250846, 0.025117238935512345, 0.02415591734764472, 0.023247555656039063, 0.022401924053103244, 0.021597130893337334, 0.02081108629467796, 0.020115393091178158, 0.019469792419674694, 0.018989308656049333, 0.018429475797081162, 0.017875571397031876, 0.017434563175706897, 0.0170456650118674, 0.01682694303741208, 0.016526433149830332, 0.0162940090619348, 0.01610691978649386, 0.015976118826228663, 0.01576532380710132, 0.01576129069223438, 0.015925000373050936, 0.015997944414342703, 0.016124413870311088, 0.016280019599551346, 0.016514452294159623, 0.016738254422034925, 0.017080520049713097, 0.017468933030572713, 0.01802541416149431, 0.018491202109219923, 0.01897314727931458, 0.01954940944451816, 0.020175132335805077, 0.02098171278441097, 0.021688220571582057, 0.022375776240050427, 0.02320109648223878, 0.024074852167198173, 0.024986279614901144, 0.025956375830293636, 0.02692525571249227, 0.027993167201206447, 0.0291037059505933, 0.03033801364588516, 0.031523438774238806, 0.032728811734502705, 0.0340108803266182, 0.035336917451489015, 0.036743651084391434, 0.03815151595286565, 0.03955670566828311, 0.04105915419394604, 0.042602170640925294, 0.044219289821544334, 0.04583830092745262, 0.04747521164374766, 0.04917976418665934, 0.05092338817060554, 0.052773353567080065, 0.05458546037354722, 0.056537385801291744, 0.058419651737124045, 0.06034736703138701, 0.062244529534228175, 0.06426789378252876, 0.06631801031146733, 0.06841584967031632, 0.07054884380031959, 0.07269285983780639, 0.0748977919456194, 0.07720623239134797, 0.07946693368175282, 0.08176363517669032, 0.08402110753002533, 0.0863967884804798, 0.08895415973309843, 0.09136954021859404, 0.0938227904575998, 0.09624491627982816, 0.09877851140165445, 0.10130527154009457, 0.10390382647394902, 0.10652973367679257, 0.10918286169193094, 0.11186305988199031, 0.11465808797421095, 0.11738078810107896, 0.12013494126263231, 0.12281140903913504, 0.12563946846826476, 0.12851404057347, 0.1313849406602257, 0.13428026453873448, 0.13725060272491124, 0.14018792897540291, 0.1430878019466733, 0.14608625757420318, 0.14910674814783317, 0.15223718897739702, 0.1552905601560681, 0.15839782010431697, 0.16150062888753666, 0.16463023512212074, 0.1677147159349169, 0.17090426450859458, 0.17410738212379592, 0.17733833687441486, 0.18058900452820634, 0.18395737733978337, 0.1872348114030812, 0.19050673783678437, 0.19383696815303889, 0.1971886867529506, 0.20051066742198337, 0.2039103223780673, 0.20731371607482596, 0.21074963550965273, 0.2142020854854508, 0.21774894093698424, 0.22122486524320747, 0.22462380365594023, 0.2281536908729619, 0.23169799265326232, 0.2352840465210768, 0.2388545533462024, 0.24248903773340977, 0.24608674772049086, 0.24967991575256124, 0.2533184078767532, 0.25697379649021096, 0.2605985295066775, 0.264293088294526, 0.2680283506532842, 0.27174698749726234, 0.27548115453537725, 0.27929501613461427, 0.28305184292630553, 0.28674635767303347, 0.29055053364792843, 0.2943678334607284, 0.298191646060657, 0.3020364764967028, 0.3059552950047822, 0.30981878415296404, 0.313699027695017, 0.3174907713028585, 0.3214165656406774, 0.32539267172976083, 0.32933332296604806, 0.3332869625867361, 0.3372637934530212, 0.34124227740822394, 0.34519046445199, 0.3492017586653211, 0.3532240818746904, 0.35730504042776107, 0.36134416892672366, 0.3653976262556973, 0.3694651629146981, 0.3735465420672549, 0.3775739014927568, 0.3816908520895162, 0.3858239674607657, 0.3899592116989048, 0.39410487003126454, 0.398301702911901, 0.4024635511522101, 0.40656748500611284, 0.41076425913938913, 0.4149696366267043, 0.4191940892001328, 0.4234163058808881, 0.427722890789805, 0.4319557084826028, 0.4362027788802848, 0.4404296898424252, 0.44470780553381306, 0.4489188429109106, 0.45322800139862857, 0.4575430970614033, 0.46196262557509443, 0.4662783826182647, 0.4704950160846445, 0.4748492558041566, 0.4792085827422435, 0.4836376390163834, 0.488000096663304, 0.49230791930496903, 0.4966973916590897, 0.5010921821615664, 0.50555671929514, 0.5099544805052872, 0.5143040158348131, 0.5187270658819472, 0.5231551502588488, 0.5275544349052919, 0.531996773500508, 0.5363744375493549, 0.5408313885613676, 0.5452877100445458, 0.5498454078424118, 0.5542891707269152, 0.5587359099737428, 0.5631922170591289, 0.5676535034693728, 0.5720921619090414, 0.5765651753961178, 0.5810197162895023, 0.5854986109860536, 0.5899775190381125, 0.5943852178035317, 0.5988724799088816, 0.6033279851039868, 0.6078095188132078, 0.6122852401714831, 0.6167926273767435, 0.6212527433848419, 0.6257941931280367, 0.6302368726829425, 0.6346803973635449, 0.6391541196677961, 0.6435922833994588, 0.6479216728101216, 0.6523712151432787, 0.6568118076983581, 0.6612533985793408, 0.6656741623543423, 0.6700316861443726, 0.6744406027566805, 0.6788364654894975, 0.6832090761377546, 0.6875798756946957, 0.6919501882324719, 0.6962910586382304, 0.7006182241475984, 0.7049718355940373, 0.709265123064936, 0.7134542540824911, 0.7177325186172391, 0.7219910713277262, 0.7262838977060051, 0.7304957295360575, 0.7346057252937259, 0.7387928810658736, 0.7429564225702174, 0.7471909214261953, 0.7512948121292976, 0.7552884734861233, 0.7593649470584252, 0.7634151600373511, 0.7674151071726087, 0.7714147291341656, 0.775436301558983, 0.7793716352691752, 0.7832803283981373, 0.7871513744150056, 0.7910054808162713, 0.7948568344094366, 0.7986471136047648, 0.8024075094632911, 0.8060828825671932, 0.8097872826912422, 0.8134929296410724, 0.8171201785118771, 0.8207124424125051, 0.8242586650509958, 0.8277795173742952, 0.8312756341045263, 0.8347174447204012, 0.8381201387862663, 0.8413982528890623, 0.8447306650294464, 0.8480198845038536, 0.8512585197735665, 0.8544502969622819, 0.8575982325843968, 0.8606947155578172, 0.8637365134550866, 0.8667374713141525, 0.8696890194399407, 0.8725534114386618, 0.8754091735233493, 0.8782117087489245, 0.8809606873790603, 0.8836557229728621, 0.8863572528279501, 0.8889353549751041, 0.8914107722062607, 0.8938903373580548, 0.8963130596336777, 0.898712195802125, 0.901015252384266, 0.9032244255950982, 0.9054179401446273, 0.9075509500016388, 0.9096770338910593, 0.9116805876444466, 0.9136115185567008, 0.9154975973185467, 0.9173218827137211, 0.9190734410103417, 0.920773089146247, 0.9224858853327274, 0.9240458145064518, 0.9255442622420855, 0.9269462069443808, 0.9283224548880866, 0.9294831946225292, 0.9307441782294045, 0.9319288160789863, 0.9331493204890577, 0.9341688785944618, 0.9350488465165738, 0.9359396564311255, 0.9367567732805286, 0.937486721789969, 0.9381582797220699, 0.9387791021279883, 0.9392989097142254, 0.9397457203179689, 0.9400618447806353, 0.9403693354380904, 0.9407251352092895, 0.9408634339313584, 0.9409324196196901, 0.9407858398983167, 0.9407321750283164, 0.9407543601221995, 0.9405221791883441, 0.9400848334554655, 0.9397291709590134, 0.939294519242791, 0.9388523745422388, 0.9382521492764817, 0.9375985071335095, 0.9368480842062787, 0.9360247025392476, 0.9351179215996271, 0.9341490806325626, 0.9331161500509161, 0.9319975143439948, 0.9308051709298655, 0.9294545314175914, 0.9281253837962741, 0.92666030702776, 0.9251823266362187, 0.9236241856648415, 0.9220817306949004, 0.9203546719595433, 0.9185052488747406, 0.9166414905302944, 0.9147036040731594, 0.9127497194372773, 0.9106582072150333, 0.908446937235097, 0.906223919107375, 0.9039293571948914, 0.9016247755179754, 0.8991813791016278, 0.8966346021997761, 0.8940637107020766, 0.891424940323751, 0.8886410963030599, 0.8858781864183957, 0.8830854392386276, 0.8801778339962304, 0.8772045794019269, 0.8741969547042938, 0.8710910793318488, 0.8678967333877878, 0.864672047187876, 0.8613856620030041, 0.8580012638635156, 0.8545988487164462, 0.8511353235981862, 0.8476118941389547, 0.844029737971998, 0.8404813193615698, 0.8367736091042491, 0.8328973422103113, 0.829104588177672, 0.8252558302678308, 0.8213085878839801, 0.8173577828441347, 0.8134610372664661, 0.8093899401571819, 0.8052741023566877, 0.8010804050751164, 0.7968815110051054, 0.7926585157617398, 0.7883693844338682, 0.7840392328650775, 0.779679172266176, 0.7752686235546277, 0.7707157692815704, 0.7662445054488339, 0.7617318559282827, 0.7572980598166289, 0.7526932216306048, 0.7480015558713602, 0.7433460362540315, 0.738659462794442, 0.7339329986795112, 0.7291895236990512, 0.7243507070093627, 0.7195617580635741, 0.7147440646039377, 0.7100246613403453, 0.7051393014499715, 0.7002343378115651, 0.695317658523032, 0.6903860318604562, 0.6853422431248356, 0.6803957531445258, 0.6754586017772596, 0.6704750542897655, 0.6654788421960902, 0.6605356883083131, 0.6555104053962643, 0.6503958611303966, 0.6453727322506189, 0.6403419804460954, 0.6352511609440474, 0.630216952615138, 0.625220907314316, 0.6201715095902194, 0.6151226307493424, 0.6100824805188085, 0.6050380917431156, 0.5999650316293765, 0.5949365198074497, 0.5899138532619524, 0.58491886784353, 0.5799099114511749, 0.5749022844763841, 0.569918806789463, 0.5649487087963672, 0.5599594646852339, 0.5550242536166863, 0.5500772699622309, 0.5451775338588579, 0.5402944852985638, 0.5355142703132334, 0.5306586323158882, 0.5258053368289634, 0.5210054386531158, 0.5162316861235254, 0.5115019453611339, 0.5067812135400348, 0.5020227992355639, 0.49737133633956315, 0.4927476589328721, 0.4881531374009985, 0.4835890802571073, 0.4791581940817976, 0.4746459382865461, 0.4701734384952679, 0.4657274544371102, 0.4613370964806955, 0.45693941786817366, 0.4526356453921573, 0.44837036280987463, 0.44405999708903376, 0.43988527152771434, 0.4357876972568938, 0.4316825375298356, 0.4276192274934259, 0.4236528894066653, 0.4196694185934547, 0.41564577723364654, 0.4117693558754894, 0.4079365977651156, 0.4042500920512838, 0.40049514761977384, 0.3966608167936388, 0.39302763700589377, 0.3894397469673705, 0.38600656127672334, 0.38249904481636793, 0.3789785212187462, 0.3755888382538834, 0.37225005501608605, 0.36892557618801786, 0.36569505723939116, 0.36252515283832604, 0.3593950410181082, 0.3563173890566216, 0.35328594493426696, 0.35031554211383936, 0.34750679559191744, 0.34462998034622677, 0.3418134122633604, 0.3389246177559646, 0.3362435343654503, 0.3335900476547632, 0.33101512949078205, 0.3284913242752809, 0.32605309292116774, 0.32362906096499494, 0.32129348186148454, 0.31897452544817817, 0.31671221934250676, 0.31448260970577896, 0.3123357467394384, 0.3103109754269831, 0.3082643539232892, 0.30627571758082583, 0.30421244967860406, 0.3023543226593372, 0.30055823763386447, 0.2987958600340822, 0.29708350803034883, 0.29546187576607574, 0.2938447008873422, 0.29220553376389424, 0.29070214931032223, 0.28924610910003545, 0.28790517175567454, 0.28653553886789335, 0.2851968449544807, 0.2839315559263769, 0.28271498960657404, 0.2815702898924987, 0.2804465628218418, 0.27936446008017995, 0.27833757188852, 0.2773571095543157, 0.2764020471453567, 0.275514790758448, 0.2746333959042678, 0.27383637355191015, 0.27307911091043785, 0.27238155057138647, 0.2717001346292155, 0.27111926515407603, 0.2705088178545836, 0.26994683480378207, 0.2694177118308193, 0.2689282640085846, 0.26837583206469345, 0.2679749873542921, 0.26759785422227594, 0.2672585240994128, 0.26694863101173577, 0.2667658658799686, 0.26650122892657785, 0.2663378193008276, 0.2661304505589957, 0.2659577932787014, 0.26564555744923196, 0.2655587877940929, 0.26550881609781385, 0.2654595403902795, 0.26543071527939927, 0.2654218760421084, 0.26543249568880356, 0.2655127186680579, 0.265554041754245, 0.26561577402931, 0.265686642063846, 0.26578710605586775, 0.2658905405732205, 0.26602470446360504, 0.26617259615364797, 0.26641786810968393, 0.2665798337547976, 0.2667440332511137, 0.2669376317025192, 0.26714311076776875, 0.2673084017958563, 0.26754008502980314, 0.26768562023955145, 0.2679383809163652, 0.26818958492270967, 0.2684290076355847, 0.26867804401212236, 0.26903602905603846, 0.26926538402847755, 0.26949773665726134, 0.26963707959177585, 0.2698835011012592, 0.2701745273530459, 0.27040186909369285, 0.2706250398444678, 0.2708464905812821, 0.2710581078877073, 0.27125959663793064, 0.27145721884675295, 0.27164606054587137, 0.2718218672218109, 0.27199096933135314, 0.272080882184558, 0.27223462289487216, 0.2723714079103453, 0.272568775101601, 0.27266102435339434, 0.27274317084962674, 0.2728070073642829, 0.2728555592481967, 0.2728844837760273, 0.2729000531730624, 0.27286695232497576, 0.27284908865767055, 0.27280968773614306, 0.27273809886372574, 0.2726553907587184, 0.27264037255046036, 0.2724984620905038, 0.27233721704006064, 0.2721453346521012, 0.2719433233135901, 0.27174525967309315, 0.2714927934559733, 0.27121716166529714, 0.2708701028968418, 0.27055146134125396, 0.2701097973853051, 0.2697461581316191, 0.26934827257580896, 0.2689639713842257, 0.26849298294972745, 0.2679578150856274, 0.2674302760197007, 0.2668702625214943, 0.2663320413728439, 0.26570067420401855, 0.2650233321651149, 0.2643356048358532, 0.26361716311144895, 0.26282049682441305, 0.26204613438553753, 0.26120751551894, 0.2603696236331932, 0.2594966963259686, 0.25873798438885154, 0.25777746954238795, 0.2567711815411993, 0.25576138962333705, 0.25472333735102554, 0.2535246429847945, 0.2524453564004973, 0.2513934258828278, 0.2502330086913776, 0.24904081389434699, 0.2478203707607194, 0.24656464736551315, 0.24526090570022457, 0.24394526023003144, 0.24259788992289075, 0.241222504891809, 0.23981224255485828, 0.23847288860842078, 0.23698901245298148, 0.2354809081616895, 0.2339041233384651, 0.23235176825149814, 0.23081892508452562, 0.22920508998585892, 0.22756646922918697, 0.2257778105941402, 0.22410515163471753, 0.222478339755396, 0.22073308770800926, 0.21896242945498218, 0.21710924572373835, 0.21529618968976091, 0.21351657611003172, 0.2116418777801123, 0.20974496324737613, 0.2077112129443187, 0.20578552807626568, 0.20390000067617034, 0.20191218741658193, 0.19990336771073308, 0.1978809778437554, 0.19583130514911937, 0.1937224341637187, 0.19164127339170542, 0.18954045180457105, 0.1874445950761593, 0.18530428332788418, 0.18317883735737855, 0.1810042089420008, 0.17881706555972338, 0.176516383024648, 0.17431836329934475, 0.172164395559827, 0.16992637226932775, 0.16767753913010652, 0.16537801578572192, 0.16311479877099477, 0.1609420537872874, 0.15864507018277105, 0.15634481365909794, 0.15399407659831654, 0.1516937452129163, 0.14937457453881003, 0.14706603944822902, 0.1447528574417397, 0.14247643808821947, 0.1401513036638209, 0.13781272643412884, 0.13548994604507442, 0.13316747294758405, 0.1307614063269864, 0.12845218603127345, 0.1262047546057881, 0.12388383450891609, 0.12156669140321755, 0.11914579988654488, 0.11685197480767145, 0.11462557067563862, 0.11232432346491461, 0.11002966998759472, 0.10775256476356616, 0.10547222002133173, 0.10328256299609483, 0.10101166742914951, 0.09875617223445048, 0.09644505651068144, 0.09422940914409891, 0.09198480198584724, 0.08979829791637299, 0.0876226546886012, 0.08556376631196184, 0.08339970208216406, 0.08128243939097167, 0.07915450321880248, 0.0770480027017971, 0.07493583416642988, 0.07287555304050843, 0.07081496509993496, 0.06879758404240127, 0.06679980409141666, 0.06482896135437681, 0.06287124151454844, 0.06094873320500878, 0.05903317301479129, 0.05714105857962334, 0.05527277917622898, 0.053428733349879465, 0.05153492540771127, 0.04974997231864698, 0.04809452025695398, 0.046339455912675964, 0.0446136863583022, 0.0428258926749985, 0.04117027256629239, 0.039636989537403765, 0.03801833054519414, 0.0364310429504138, 0.034902102736555266, 0.033373942724998704, 0.03192252026102996, 0.03045416189905143, 0.029020724527780654, 0.027591331595792006, 0.026230348737898288, 0.024857536617573978, 0.023566408672825424, 0.022305026928631698, 0.021151599936289425, 0.019941126776347476, 0.018793016387153173, 0.01764945873412172, 0.01654221967549342, 0.015453989161995722, 0.01442038796258526, 0.01342790457616904, 0.012462062189800022, 0.011530789984604188, 0.010721912706503762, 0.009848376663342512, 0.009000572946384407, 0.008206513034580483, 0.007449545041697103, 0.006732591514040629, 0.006048064538623253, 0.005457112431722431, 0.0048371605691565275, 0.004255916413599892, 0.0037194387513902307, 0.003212728185496054, 0.0027500072023146772, 0.0023163663905477, 0.0019193422830614036, 0.0016362572851675596, 0.00130130687861807, 0.001050080023750343, 0.0007881479896134331, 0.0005666707098203796, 0.0003203081690292154, 0.00018474006125501383, 0.00010681399229394846, 3.596849086736646e-05, 0.0, 0.00013043145728028083, 0.00014647229383604862, 0.00014292144182350566, 0.000247890834060247, 0.00038821627680111847, 0.0004889441560275206, 0.0007077888615874878, 0.0010983617168772105, 0.0013588270616292136, 0.001657313812266795, 0.0019251684006320773, 0.0023053066326985763, 0.002760892152842789, 0.00319824913482495, 0.003669183824511297, 0.004193452849240475, 0.0047274183357132495, 0.0053385877583796044, 0.005932892152223571, 0.0065617874773530906, 0.007241337416618987, 0.00793482007943191, 0.008634482110494912, 0.009397085341994758, 0.01018993881324269, 0.01105658979950023, 0.011903163153395816, 0.012808339406594841, 0.013713891070532879, 0.014651175828941028, 0.015649830578920942, 0.01664440851844485, 0.017636425096127888, 0.018696947709743658, 0.019785220316358258, 0.02092787842035627, 0.022067003099180124, 0.023227462349746764, 0.024423081833244768, 0.025645352561014818, 0.026880331801646826, 0.02815639841680195, 0.02957555933324306, 0.03088588988763454, 0.032227139815094404, 0.03358799380641075, 0.03498897801570471, 0.03644082975282406, 0.037892452247288474, 0.03937116067518682, 0.04091335572490603, 0.042439219902466484, 0.043985344982545777, 0.04556524745017438, 0.047170161390709404, 0.04876226158726503, 0.05042009920719346, 0.05217359443791768, 0.053864406203024684, 0.055580398554246783, 0.05724984703953217, 0.05902314659819667, 0.06079209288106041, 0.06260711458393796, 0.0644402949525098, 0.06629865429166235, 0.06816803186796304, 0.07006337968901863, 0.07197042133473042, 0.07389724138319005, 0.07587090814290147, 0.07783389515698165, 0.07993655638174622, 0.08192696770439982, 0.0839448943565864, 0.0859283232909232, 0.08800569386186081, 0.09009737546583235, 0.09221747052553135, 0.09435774019697024, 0.09650788871220424, 0.09868936513262513, 0.10086639680091163, 0.10308932261410061, 0.10533015594448576, 0.10759924783418398, 0.10987521278255541, 0.11218713063476021, 0.1144991224816756, 0.11683125980445812, 0.1193187544139633, 0.12167390894642102, 0.12398564312462539, 0.12640386984045726, 0.12884364892016362, 0.13133178354595204, 0.1338105420357394, 0.1361900154233969, 0.13872875647945404, 0.14128252212268774, 0.14392985919624768, 0.14650606180811518, 0.1491375604937894, 0.15175238905402652, 0.1543905118753788, 0.15701445182622645, 0.15970309066071978, 0.16233786267652403, 0.165077145482648, 0.16783312731105615, 0.17070803463305972, 0.17348682717386468, 0.17621909559144028, 0.17905561424632763, 0.18191220384010182, 0.18487721070861604, 0.18776404782430753, 0.19071425343001494, 0.1936483489666804, 0.19661001648783194, 0.19945666840855877, 0.2024898783582139, 0.20556158973334834, 0.20862948881185553, 0.21171832800001428, 0.21491317742186586, 0.21803473565345197, 0.22115975209098002, 0.22433829201261962, 0.22754213895928216, 0.23072734393851774, 0.23398742670884562, 0.23732793755330564, 0.24062704085137485, 0.24395310817301394, 0.2472823600013526, 0.25066505929531735, 0.2540224346136221, 0.25746252002500425, 0.2609254887153384, 0.2644085246501776, 0.267919330265421, 0.2715253862545385, 0.2750761182297778, 0.27865590760441744, 0.28211573825328623, 0.2857718443530305, 0.2895901435128024, 0.29326966947649635, 0.29694213149127663, 0.3006863193232059, 0.30445796469425235, 0.3082875601250503, 0.3121104326859048, 0.31588145248474003, 0.31977299962630035, 0.32368890444805803, 0.327680378678195, 0.33163997308931936, 0.3355840735402672, 0.33960606645195, 0.3436538624730201, 0.3477141882726289, 0.3518160182919049, 0.3560179243247171, 0.3601619369836618, 0.3643362299169261, 0.3685302056633269, 0.3727650195145122, 0.3769302107941395, 0.38123404414176226, 0.3855602705406403, 0.3899567620472969, 0.39432327617884416, 0.39865528131700667, 0.4030821160911464, 0.40753166690145964, 0.4121327843834595, 0.4166124593550323, 0.42103153871825366, 0.4255832726262158, 0.430158833450007, 0.43478522058914676, 0.43940480971058465, 0.444049464704384, 0.4487188046709883, 0.45341244446011836, 0.45812323035846375, 0.46286514944892443, 0.4676467109980725, 0.47243160491650593, 0.4772394599618554, 0.48202241327895695, 0.48688062908667595, 0.4917508421879076, 0.4966473035175584, 0.5015618344274598, 0.5065213187316393, 0.5114680064312658, 0.5164234809234036, 0.5214087916772974, 0.5264114045239886, 0.5313801247200947, 0.5364223322231421, 0.5414470911238212, 0.5465189992938735, 0.5516018694370277, 0.5567971427862577, 0.5618889770681074, 0.5668618898966229, 0.5720024568564713, 0.5771496653465544, 0.5823204972871755, 0.5874789591106202, 0.5926347643040774, 0.5978091226884584, 0.6029896066752681, 0.6082062447222882, 0.6133938426868997, 0.6186216813066513, 0.6238170195896934, 0.6290190045559452, 0.6342129761579305, 0.6394265865531842, 0.6445751064275761, 0.6498013903272215, 0.6550244825672525, 0.6602338099821661, 0.6654504507295779, 0.6706449402777386, 0.675852702792671, 0.6810531487294161, 0.6862254741700494, 0.6914122470328814, 0.6966632324312012, 0.7018196908642398, 0.706969005498696, 0.7120828618496011, 0.7172175493631352, 0.7222654500174193, 0.7273837818994171, 0.7324835591613311, 0.7375914208285562, 0.7426493369872198, 0.7476177075426758, 0.7526466889186634, 0.7576514026119936, 0.7626348764934837, 0.7675894677954308, 0.7725423098692236, 0.7774424197426671, 0.7823170820611226, 0.7871788654809294, 0.7919980181762749, 0.7967354167963728, 0.8015049819169331, 0.8062415819245208, 0.8108531955126221, 0.8155332207661784, 0.8202506455401773, 0.8248399462427984, 0.8293928531753285, 0.8338880838406394, 0.8383677706699171, 0.8427933557834452, 0.847192716219693, 0.8515489339525589, 0.8559389513109413, 0.8601964920594466, 0.8643686669749729, 0.8685474040822448, 0.8726792108137383, 0.8768204822746977, 0.8808478762990031, 0.8847302232085775, 0.8886745333454655, 0.892563358399954, 0.8963859322149335, 0.9001631674851008, 0.9038519335907981, 0.9075163071969446, 0.9111196145821836, 0.9147865178812418, 0.9182504178350103, 0.9216147524975389, 0.9249713922100721, 0.9282668204911018, 0.9314898021921478, 0.9346608552303272, 0.9377432854156996, 0.940786520923271, 0.9437616762564464, 0.9466849800553897, 0.9495197917245844, 0.9522921857569969, 0.9549869592737066, 0.9576113102737555, 0.9601576402555442, 0.9626395239241162, 0.9649906898625071, 0.9673326884769616, 0.9695968497882024, 0.9717660622768385, 0.9738760415826212, 0.9758625539150044, 0.9778189207130271, 0.9796929470561756, 0.9815354757783253, 0.9832386813181945, 0.9848625341278183, 0.9864065554523116, 0.9878702722238085, 0.9892836562275181, 0.9905815316054648, 0.9917757768626192, 0.9929160591427503, 0.9939737583915654, 0.9948740836368404, 0.995774872475836, 0.9966114645260745, 0.9973337899931162, 0.9979700606962286, 0.9985574598484905, 0.9990168531499144, 0.9993042651937114, 0.9996063264687531, 0.9998187494953827, 0.9999690235500477, 1.0, 0.999876372639972, 0.9997420491383345, 0.9995171229650452, 0.9993476353611039, 0.9989249190068288, 0.9983808626667597, 0.9978010515169932, 0.997136892152479, 0.9962968988688277, 0.9954751140529451, 0.994641269988817, 0.9936306797201391, 0.9925359950762564, 0.9913639880671421, 0.9901003326100608, 0.9887835669466396, 0.9873490635074255, 0.9858329599771555, 0.984208150029464, 0.982532189276296, 0.9807224533867342, 0.9788871936611544, 0.9769262573999574, 0.9749268002855455, 0.972841674416806, 0.9706585078425242, 0.9684071704136646, 0.966082871771285, 0.9636651706263017, 0.961167152497057, 0.9585897856263816, 0.9559340164794011, 0.9532548840198695, 0.9504382443391787, 0.9475489930101963, 0.9445808339036985, 0.941548668859356, 0.9384552134610601, 0.9352795636354286, 0.9320344248190797, 0.9287035504223322, 0.9253236046401238, 0.9218279958330214, 0.9183183285568233, 0.9147395612463441, 0.9111437706942335, 0.9074244100124703, 0.9035548394855771, 0.8997229056577448, 0.8958255364406833, 0.8918914343412317, 0.8878646604015802, 0.8838396237119677, 0.879688162724941, 0.875483535173287, 0.8711960791985878, 0.8668913466280274, 0.8624395342614583, 0.8580431718417433, 0.8535914680327772, 0.8492182765402008, 0.8446450177664767, 0.8399753607134518, 0.8353250502916774, 0.8306308579425943, 0.8258095001234228, 0.821042030299712, 0.8163684034110641, 0.811495745179583, 0.8065899172620294, 0.801529884278081, 0.7965753214726171, 0.7915594431660967, 0.7865344907305793, 0.7814743085931637, 0.776397778278396, 0.7712708407184112, 0.7661119401803465, 0.7609299014064363, 0.7557223211172124, 0.750433297421845, 0.745186638152957, 0.7399158821936075, 0.734622990486291, 0.7293098424353188, 0.7239782439887786, 0.7186299349911044, 0.7133849607700145, 0.7079932541778784, 0.7025963691933216, 0.6971610747452495, 0.6917599515530998, 0.6862725835622381, 0.6808726395977797, 0.6754652410701054, 0.6700961295772243, 0.6646735345922896, 0.659190232944409, 0.6537769229965903, 0.6483628703624706, 0.6430377405398027, 0.6376162330224813, 0.6322140874914494, 0.6268105836521253, 0.6214186112625737, 0.6160356330510235, 0.6106697248956214, 0.6052062060742193, 0.5998833656909285, 0.5945702278063072, 0.5892856157527913, 0.5839953907519406, 0.5787686237603704, 0.5735061481570969, 0.5682654063041155, 0.5631387267685679, 0.5579329609571504, 0.552659027052193, 0.5475257459796361, 0.5424174985462116, 0.5373118336068067, 0.5322602798237736, 0.5272495285048231, 0.5222521331686104, 0.5172853564929769, 0.5124010334497199, 0.5074923686700102, 0.502535846221413, 0.4977118510497837, 0.4929210253153613, 0.4881714513551284, 0.48344999324742755, 0.47873201030365675, 0.474090477252522, 0.46948641118089757, 0.4649278075268783, 0.4604014349464823, 0.4560347332910497, 0.4515769610055101, 0.44716898766695745, 0.4426686672890894, 0.4383779932485999, 0.4342067988832641, 0.42999089653724887, 0.4258233834346766, 0.4216201130624267, 0.41756126122943976, 0.4135404693683627, 0.40957317636686763, 0.40565234518862064, 0.40181272224471365, 0.3979832344996175, 0.39428917898262733, 0.39055118519636467, 0.3868696100590063, 0.38307502370035174, 0.3795267044358026, 0.376031212728081, 0.37257532155912143, 0.3691680484633714, 0.3658812516351059, 0.3625646452540439, 0.3592960813385093, 0.35608991212992563, 0.35293809570792384, 0.34988797567967933, 0.346838851836325, 0.34381285333710343, 0.34088145181410634, 0.33800424219487446, 0.3352521266917409, 0.33247395854384737, 0.32971637811729004, 0.3270577617031428, 0.32445344653391467, 0.32186590946491406, 0.3193739373759059, 0.31695013371024616, 0.31455852760140646, 0.3122190624281802, 0.30981652983705543, 0.3075951893571325, 0.3055270231680172, 0.303382552568153, 0.301290262192721, 0.2992361419184343, 0.2972484703174267, 0.2952837042018093, 0.29339898523466434, 0.2915619106811433, 0.28969448678508636, 0.2879618553515472, 0.28639009760687284, 0.28472780251356916, 0.2831151124234631, 0.28154775868838683, 0.2800320685765799, 0.2784617430907174, 0.27705172039545556, 0.27568123376271736, 0.2744551550695068, 0.2731504952059046, 0.2718640309362345, 0.2706522274174445, 0.26948205944093034, 0.2683087791146189, 0.26722508880914275, 0.26620526793290455, 0.2651913528375302, 0.26421485845693665, 0.2632412282457471, 0.2623416258641569, 0.2614752993302056, 0.26064175104198267, 0.2598404405466362, 0.25906402473910367, 0.2583262714243464, 0.25766249945583664, 0.25697860106642456, 0.2563259127491949, 0.25561208839800337, 0.2550302738847465, 0.25448501421601477, 0.25394728946746775, 0.2535037828285762, 0.25300296620765145, 0.2525282634135555, 0.25205144506176413, 0.25162889882937284, 0.2512376633655711, 0.25085529663903733, 0.250492926586604, 0.2501293099646657, 0.24980665227183466, 0.24957442627952656, 0.24927366396914255, 0.24899157809310138, 0.2486625362290458, 0.24842186228259847, 0.24825995836734166, 0.2480323218559513, 0.24781824780786887, 0.2475251821313602, 0.2473461033702173, 0.2471888082296203, 0.24701698935042074, 0.24685024515470544, 0.2466541817195047, 0.2465001161610031, 0.24639140687954436, 0.24623421079051663, 0.2460801153908281, 0.24589112374963829, 0.24574555155687766, 0.24567640996054071, 0.24551782788230697, 0.24536128892681316, 0.2451312451631001, 0.24498481537574324, 0.24478563445290089, 0.24463399167837666, 0.2444734806021049, 0.2443919682770277, 0.24420235261457277, 0.24398475256990182, 0.24378856011718872, 0.24358487597503348, 0.24340008071499747, 0.24317598437573337, 0.24294393611520576, 0.24270308909857374, 0.24245263912629336, 0.2421918222942765, 0.24191991283351824, 0.24150432878733116, 0.24122487406727752, 0.2409249539820481, 0.2407470718536185, 0.24038955692075858, 0.23994286685154476, 0.23957145153177722, 0.23918244976913566, 0.2387215642121098, 0.23830365124844605, 0.23793890661374925, 0.23746933000018275, 0.23698305177582046, 0.23640854938252143, 0.23589636431634656, 0.2353891194805253, 0.23482943435502526, 0.2342494080871136, 0.23374020040313492, 0.2331074914557072, 0.2324760125942255, 0.2318089167899826, 0.2311254034720207, 0.230373899203653, 0.22966152485625774, 0.22895806986352304, 0.22819864447239613, 0.2274190993929244, 0.22663598165341306, 0.2258130268915271, 0.2248617544730201, 0.2240119383885035, 0.22313531578841708, 0.22230016119860635, 0.2213632294908248, 0.22035768963807023, 0.21938416170517475, 0.21838662693759445, 0.21736208148149652, 0.21631807292947705, 0.21526784924284087, 0.2141758038596444, 0.21306226698783834, 0.2119612423661066, 0.21080100912044908, 0.20958455872662052, 0.20839093106030154, 0.20717611262091828, 0.20591336517178463, 0.204660535239942, 0.20330139965442418, 0.2020162763483864, 0.2007056954600822, 0.19940126273885891, 0.19803932317293935, 0.19668051794265323, 0.19527515735982792, 0.19385184388107646, 0.19246506881015457, 0.19100014632780885, 0.18947408838987284, 0.18798750547902074, 0.186484393809175, 0.1849685505677984, 0.18343319844432016, 0.18197406071054054, 0.18039736123206468, 0.1788114741261175, 0.17707741115617848, 0.17548978037554433, 0.17387432200347458, 0.172253659627344, 0.17061678049433127, 0.1690695304136962, 0.16738992632331287, 0.16571974557277305, 0.1640230321862145, 0.16231984413242403, 0.1605661994054402, 0.15885563480146414, 0.15704834399160505, 0.1553318211976329, 0.15360261344771492, 0.15198032502293887, 0.15021441824990073, 0.14835463943359875, 0.14659521775600046, 0.14482829574037132, 0.14315285479124218, 0.14136121167132346, 0.13955325957424933, 0.13776495581888218, 0.13597637096518214, 0.1341099845120528, 0.1323314944457519, 0.13052219441363624, 0.12874059937543977, 0.12695564785159374, 0.12525637005675083, 0.12345682440810164, 0.12163828609228183, 0.11985129751527529, 0.11806810259015182, 0.11622490641586866, 0.11445880784714858, 0.11284647255244241, 0.11106528016028043, 0.10929612219973314, 0.10736617111305276, 0.10564192941427632, 0.10400043738687512, 0.10227040786762176, 0.10054902613107958, 0.09887733449214371, 0.09716949561834365, 0.09554497491929553, 0.09385288250862525, 0.0921773671267351, 0.09046056472869234, 0.08882445459563058, 0.08723468507871077, 0.08561970195878607, 0.08401986963926174, 0.08239471688683554, 0.08083069193524152, 0.07919206482052106, 0.07766635475107851, 0.07615011279779837, 0.07464117990579083, 0.07314786703216276, 0.07173145499290097, 0.07025627458034726, 0.06879919339662426, 0.06726580909699109, 0.06585776094028219, 0.06465273075464309, 0.06324903821305534, 0.06187157135713095, 0.06034717273440706, 0.05904201937462474, 0.05780239309472966, 0.056521409396287074, 0.05525994383496787, 0.05417733340119821, 0.052935947255986604, 0.05165306190055558, 0.05047872174293182, 0.04932810413501663, 0.04818415189321799, 0.047082709877134823, 0.04600708373114845, 0.044950165154469854, 0.04391604256779145, 0.04289463655752675, 0.041907592713170974, 0.04087873339060169, 0.0399448511385375, 0.03910112706483083, 0.03819719760184682, 0.03731762492354639, 0.036607766993897055, 0.035758344812974525, 0.03487702276524401, 0.03409922341169323, 0.03334789744267741, 0.032683503346441156, 0.03197623774102835, 0.031203082553743152, 0.030564633288841674, 0.029948247119790227, 0.02950967124448472, 0.028918269970147445, 0.028246551853237125, 0.027730704998538875, 0.027237766749896815, 0.0268861324732845, 0.026424134860755004, 0.02595457000818458, 0.025555608118732375, 0.025182434708831573, 0.024780514726263206, 0.02446453302631528, 0.024278388363761623, 0.023992099048632753, 0.023733757896802953, 0.023560082219256998, 0.023348132949250755, 0.023259978781597707, 0.02309326002583049, 0.022959069270420903, 0.022849100561408865, 0.022776381587795963, 0.022762163076867035, 0.022740739649126162, 0.02274724651536806, 0.02267923692673617, 0.022751586223059308, 0.022880767468869592, 0.02298784109834234, 0.02311694913484715, 0.023325419122752065, 0.023490856254351353, 0.023654066396226293, 0.02387200420281873, 0.024112166916448206, 0.024397994323441818, 0.02467893799281488, 0.024986184508571405, 0.025312178241605587, 0.02566059026492345, 0.026119024495886576, 0.0265002136407704, 0.02685376031094586, 0.02729377248477767, 0.02775541606108634, 0.028295865763560725, 0.02879258350374838, 0.029336969327374115, 0.029877985009932596, 0.03044300278716038, 0.03107524246493851, 0.031680557643875375, 0.03229682667014157, 0.032951944070049255, 0.03362914563112715, 0.03431771949784375, 0.03503874187414757, 0.03590490685359686, 0.03664983621372195, 0.03742123915369536, 0.03815700776988506, 0.03898550461270053