0.06328196004513043, 0.06271566219529984, 0.06219791140779972, 0.061633716293039, 0.06104842041372435, 0.060497855898977895, 0.05994982263753136, 0.05940984695864926, 0.05886500855532092, 0.05829539022772241, 0.05775734956854545, 0.057219154345943296, 0.05671634156151781, 0.05617342612851588, 0.05554958224849528, 0.0550207860679677, 0.05448884931698905, 0.053930604799227524, 0.053396856876917864, 0.05292512854745661, 0.05237752810614966, 0.05183154879919606, 0.051263431664384594, 0.0507234533004778, 0.05021315299160613, 0.04966974172923332, 0.04912834698739023, 0.04862140218936432, 0.04807957817512345, 0.04752352847161989, 0.0469906781542628, 0.0464597394131687, 0.045918768878571506, 0.04539285332913254, 0.04487384332152714, 0.044349193363266655, 0.043825945667080694, 0.04331297502544778, 0.04279140469657364, 0.04224214773472748, 0.04172807915919112, 0.04121415650279412, 0.04070354446254743, 0.04019013570951724, 0.039636164913254154, 0.039129865708695054, 0.0386223568851304, 0.03816734825157521, 0.037651948563220974, 0.03708326446440381, 0.03658073870095109, 0.0360777612878143, 0.03569306604813877, 0.035175233147867274, 0.0345520648543253, 0.034061990240410206, 0.033571389048235464, 0.033154604984425975, 0.032654621826236, 0.03210298233005917, 0.0316189089615276, 0.031135600148394192, 0.030656202289701093, 0.030174589157656098, 0.02968553110957556, 0.029208017113561142, 0.0287316454349131, 0.028366077563751545, 0.02787860485471721, 0.02740772518298173, 0.026933791400344666, 0.026466633011655753, 0.02595232548456014, 0.025503582766306432, 0.02513979042821919, 0.02468475341770363, 0.024236494352387956, 0.023856535696412707, 0.0234121837813981, 0.022964644108229203, 0.022538212172207837, 0.022118139975307965, 0.02164173934320249, 0.021240721799207336, 0.02093297150228509, 0.020523604986702488, 0.020121326352959094, 0.019734487906223966, 0.019343775196991892, 0.018962294103409726, 0.01858339945263215, 0.0182103122296093, 0.017890147034234635, 0.017522034309996114, 0.017176644258708164, 0.01682205227589778, 0.016475387127983344, 0.016201347457880447, 0.01586115510288467, 0.015555230263035243, 0.015232517907140907, 0.014920430805360005, 0.014665655314349706, 0.014366954869505864, 0.01407989000726784, 0.013803739561638833, 0.013537914417486882, 0.013273064232699716, 0.01302770094894728, 0.012841361172540849, 0.012606936155584106, 0.012493364181502008, 0.012267384370890963, 0.012058176956301785, 0.011808404318184298, 0.011636716740084638, 0.011576485579692144, 0.011413583663000004, 0.01126692279796016, 0.011070567995063965, 0.010962302122783887, 0.010991859785575517, 0.010888749331844461, 0.010803625388968865, 0.010658717830992388, 0.010616987209136517, 0.010625389108608805, 0.010602331418008364, 0.010593565232969131, 0.010678969866080442, 0.010688661045272933, 0.010696503700057937, 0.010746040830389143, 0.010812383023668302, 0.010904290079819998, 0.011002835916602095, 0.011154051329060432, 0.011282418256377586, 0.011429992154402905, 0.011593635061936046, 0.01177953984915347, 0.012061122798547892, 0.012274812149903462, 0.012511705782966818, 0.012818683999443138, 0.01309469738599508, 0.01331558020212228, 0.013650704185411141, 0.014005155230298614, 0.014515407651780715, 0.01489232894617634, 0.015170024735200486, 0.015618397592088601, 0.01608639439687346, 0.016621959475253825, 0.017124981665561763, 0.017663865139315716, 0.018213613109410217, 0.018788435711369057, 0.019465426435994554, 0.02008114447028416, 0.02070016584472367, 0.021378756473103475, 0.022085146039694293, 0.022834164614334972, 0.023594432176856105, 0.024345107364582837, 0.02516805806820435, 0.026017892924343262, 0.02697201950582132, 0.027867273852162772, 0.028656012947567283, 0.02963385814918056, 0.03063623005419221, 0.031758928288739115, 0.03280158250312974, 0.0338712068398388, 0.03498049755849216, 0.03612259686246103, 0.037371710731291835, 0.038570745037734014, 0.03979561090778633, 0.04107115508486824, 0.04238313836005091, 0.04367526205412613, 0.04506708706862093, 0.046509913630579394, 0.047966518171852685, 0.04945841843950163, 0.050920864330433316, 0.052492668179851806, 0.05418006195430588, 0.05580771850676395, 0.05747444999299442, 0.059138913395646565, 0.06088933122767411, 0.0627567537973137, 0.06457175749049117, 0.06642930793759191, 0.06819307313443292, 0.07015240723730595, 0.07222022365908369, 0.07424024813022737, 0.07630093771220033, 0.07836705802241187, 0.08051440211915782, 0.08269828061432005, 0.0849255336479356, 0.08719316615807893, 0.08953422262191471, 0.0918799282419055, 0.09427215574552193, 0.09670473258851392, 0.09918128142510109, 0.10165455007464809, 0.10422533395037292, 0.10682590339566642, 0.10948191840890288, 0.112179819440325, 0.11492009771031605, 0.11770319235465242, 0.1206330782955677, 0.1234898398674112, 0.12639627882948373, 0.12927192711780028, 0.13228621112244401, 0.13545074978729202, 0.13853925508668613, 0.14167795905410874, 0.14486029687349072, 0.14809828920365636, 0.15124830327549982, 0.15459944362363684, 0.15799038280462968, 0.1614455977239439, 0.16491544395832836, 0.1685143567807392, 0.17206016863459964, 0.17565465767921914, 0.17929440899418692, 0.18298530054027057, 0.18669681649938344, 0.190485269928186, 0.19431885934143522, 0.19810872900153229, 0.20204359531987, 0.206024290119445, 0.21003883534885062, 0.21409473765493928, 0.2182189990324437, 0.22235526683948584, 0.22650565742106174, 0.2307330349597493, 0.2350022974388912, 0.2394141697262351, 0.2437547222372805, 0.24807782468393338, 0.25252105451582607, 0.25700659533553816, 0.2615282783301725, 0.26609841706156495, 0.27073339317628264, 0.27538259241065305, 0.28007371914722573, 0.28485657660974634, 0.289623671623554, 0.2944073570261224, 0.2992633580486651, 0.30415931021229703, 0.3090916439700301, 0.3140660526840314, 0.3190340514657106, 0.3240894760850886, 0.3291792668172593, 0.3343505693477295, 0.33950243837687116, 0.344592909542586, 0.3498289413261457, 0.35509432974069677, 0.3604394679798973, 0.36575735911417645, 0.37108668628550073, 0.3764709225630071, 0.3818849679661675, 0.3873845983116021, 0.39284974678197154, 0.39832270160184063, 0.40385279054818934, 0.4094110212535276, 0.41489598721665494, 0.42052087039245034, 0.4262280323424181, 0.4318853221463366, 0.4375661358611976, 0.443234261687123, 0.44896449381948744, 0.4547555177860764, 0.46051874008557536, 0.4663026129796208, 0.47209140855223575, 0.47791565650913875, 0.4837865104805746, 0.48964020855179063, 0.4955108990426715, 0.5013737991936965, 0.5072781604770827, 0.51326888861809, 0.5191877681156318, 0.5251213945261668, 0.5309498777259327, 0.5369234984853853, 0.5429038280710741, 0.5488841765890701, 0.5549474787072506, 0.5609232516850977, 0.5669053657677101, 0.5727859565467162, 0.5787902894357746, 0.5848325396523835, 0.5908242169654165, 0.5968138488243643, 0.6026999308624474, 0.608695523872285, 0.6147102931835828, 0.6206811546420987, 0.6266428324297919, 0.6325651089702448, 0.6385102243097391, 0.6444305867376123, 0.6503507951447395, 0.6562561961507921, 0.6622290260731379, 0.6680923682381695, 0.6739345661984394, 0.6797730016937014, 0.6855957076002785, 0.6912888539896499, 0.6970902339893082, 0.7028951164549753, 0.7086401554729268, 0.7143598390521236, 0.7200296565308307, 0.7256990719048306, 0.731327324756668, 0.7369388180069572, 0.7425187269480545, 0.7481225037194972, 0.7536297436732543, 0.7590231962209881, 0.7644776986787295, 0.7698939028887325, 0.7752800200085307, 0.7806164397701468, 0.7859424710115742, 0.7911942758045134, 0.7964059139792431, 0.8014903551008327, 0.8066289050866879, 0.8117188780873376, 0.8167597807659027, 0.8217510431988501, 0.8267364210477468, 0.8316208195880604, 0.8364737462512439, 0.8412562940331862, 0.8459883213339552, 0.8506715131378966, 0.8552983294798946, 0.8597733862501827, 0.864303143719838, 0.8687709198224247, 0.8731556224203016, 0.877500858270653, 0.8817993780384122, 0.8860130271555707, 0.890162342320712, 0.8942229840002234, 0.8982446020958281, 0.9021925557439429, 0.9060788762897959, 0.9098959678173553, 0.9136965185884378, 0.9173666326312864, 0.9209035511947326, 0.9244446287989875, 0.9279118077040779, 0.9314052079392157, 0.9347103245284244, 0.9379248750812177, 0.9410915246064935, 0.9441844722430682, 0.947113876486331, 0.9500675330437367, 0.9530046066118303, 0.9557864577281886, 0.9584898523051595, 0.9610696085359577, 0.9636193713925394, 0.9660622478403147, 0.968448254227014, 0.9707490504088472, 0.9729467193589632, 0.9750788317112722, 0.9771774475451461, 0.9791291998929821, 0.980996964983695, 0.9827209774729866, 0.984426559572621, 0.9860935159484951, 0.9876148576157839, 0.9890500498183165, 0.9904223104672116, 0.9916808681856281, 0.9927704617898225, 0.9938667508586871, 0.9948712442440373, 0.9958196782924192, 0.996636723318585, 0.9974355682180125, 0.9980650307821299, 0.9986089813980151, 0.9989542819535375, 0.9993394911615013, 0.9996962261876494, 0.9998865196397841, 0.9999878137688403, 1.0, 0.9999230087116858, 0.9998544726348709, 0.9995867200915376, 0.9992352867555113, 0.9987609909938628, 0.9982450691015209, 0.9975764593499962, 0.9968935795131201, 0.9961194643709235, 0.9953316757396851, 0.9943671946637661, 0.9931844369756876, 0.9920665757572061, 0.9908561711439134, 0.9896698364443136, 0.9882632588135698, 0.9867532787188074, 0.9851840339667219, 0.9835311815755817, 0.9818483813706297, 0.9800227845680466, 0.9779757994249317, 0.9760095796160706, 0.9739563001416847, 0.9718735814218357, 0.9696431748988046, 0.9673180444094004, 0.9649304185174709, 0.9624635726685099, 0.9599154537788815, 0.9572932604838805, 0.9545588849781498, 0.9517887790681954, 0.948941879209625, 0.9460223677702954, 0.9430251437043857, 0.9399726304863729, 0.9368281901630597, 0.9336139290305628, 0.9303426392180951, 0.9269901119371831, 0.9235150907948622, 0.9200380396338368, 0.9164933785341244, 0.9129712858433341, 0.9092843243335901, 0.9054589139825389, 0.9016655685359165, 0.8978104584662974, 0.8939511869734316, 0.8899695348086918, 0.8858623058881594, 0.8817814088481835, 0.8776437641441449, 0.8734775367145402, 0.8692275852150579, 0.8649771908737105, 0.8606206024047246, 0.8562185577855961, 0.8516771965377389, 0.8471988049604524, 0.8427196971641376, 0.8381409472419268, 0.8335202689824067, 0.828826399870648, 0.8241298661269759, 0.8193609234865906, 0.814590375517846, 0.8097812770354441, 0.8049502179045146, 0.800067472059289, 0.7951403940498705, 0.7901956898826061, 0.785220870933191, 0.7802707948210974, 0.7752337402814178, 0.770218628559615, 0.7651321420612063, 0.7600278925904226, 0.7547853277832158, 0.749663330746717, 0.7445015764826721, 0.7393397823003619, 0.7341588380326239, 0.7290613362881347, 0.7238352008131831, 0.7185953329219635, 0.7133552759163273, 0.7081090319942411, 0.7028517719686939, 0.6975972024910211, 0.6923453900210639, 0.687084966357914, 0.6818744762652571, 0.6766081329315818, 0.6713466482845611, 0.6659635873015358, 0.6607304456266198, 0.6554947116998838, 0.6502646888120197, 0.6450388012598547, 0.6398277962411223, 0.6346145865168256, 0.6294439486764895, 0.6242482433267785, 0.6190675039505333, 0.6138230499065468, 0.6086860137487382, 0.6035453461420252, 0.5984406392396353, 0.5933526344062191, 0.5883275226332154, 0.5832726076492778, 0.5782360824471664, 0.5732317112510897, 0.5682536428068946, 0.5633947909838377, 0.5584612021530196, 0.5534736922532115, 0.5486214008400574, 0.5437997405566947, 0.5389477391966415, 0.5341986941689371, 0.5295719573875951, 0.5248740059040431, 0.5202148070093139, 0.5155417376818433, 0.5109687359257079, 0.5064216348733521, 0.5019267093705476, 0.4974710122902115, 0.49309707759513666, 0.48871784471017915, 0.48434778949991636, 0.48006304180013337, 0.47582221004280423, 0.47167353237108217, 0.46751716002691457, 0.46341877165219103, 0.4593598718737793, 0.4553513555418842, 0.45127813303871983, 0.4473859866144799, 0.4435476577205294, 0.43974555667774934, 0.43599136158445434, 0.4323127125454131, 0.4286538884429875, 0.4251212140916868, 0.4215579087282582, 0.4180519763327134, 0.41457961512537034, 0.41119108183795955, 0.40779616948755887, 0.404527193882678, 0.40131081393819734, 0.39808848894293086, 0.394986664954084, 0.3919092265000602, 0.3889137443984655, 0.3859695357325374, 0.3831722279246806, 0.38032123473633356, 0.37754403114618634, 0.37480896821461684, 0.3721333607374407, 0.36950802414966055, 0.36695154303669875, 0.3644501715567061, 0.3620099933619814, 0.3596272939007053, 0.3572278875759052, 0.3549688973995188, 0.35278628445346105, 0.3506300653430308, 0.3485285143989746, 0.34647275835103464, 0.34448163168355794, 0.3424942303168984, 0.3406174735592442, 0.33879174787441235, 0.3370853627344462, 0.33535371955666193, 0.33360338547180546, 0.3319911245662221, 0.3304288691272502, 0.32894327134359624, 0.3274776282224574, 0.32605442218435743, 0.3246921140828627, 0.32337975026032856, 0.3220873197476382, 0.3208772998483365, 0.3197467555552147, 0.3186261736518588, 0.31755370391238436, 0.316602669303812, 0.31561505550255303, 0.3146717390735791, 0.31378399664494694, 0.3129435780931263, 0.31212565734393016, 0.3113794718286661, 0.3106907486626236, 0.31002717209324177, 0.30940539626019525, 0.3087356745285032, 0.308205859791821, 0.3077662577734404, 0.3072970909327895, 0.30686457069758055, 0.30644717087976087, 0.3060881244734466, 0.30581537466212827, 0.3055149704910496, 0.3052492064702319, 0.30491334139350057, 0.3047265087670893, 0.3045976640931291, 0.3044573299130018, 0.3043436680607085, 0.30432111381172633, 0.3042505046805836, 0.30412522548572696, 0.3041201892420068, 0.30413614078501305, 0.3042346699146783, 0.3042830064830503, 0.30430071656522645, 0.30439987858112205, 0.3045163201656475, 0.30472922346961806, 0.3048679134805079, 0.3049195561133204, 0.3051092542133061, 0.30530961727835515, 0.30555567070311473, 0.30577134777739146, 0.3060128436382714, 0.3062477596178638, 0.30649265642219825, 0.3067050388466327, 0.3069719620213407, 0.30733217545475966, 0.3075961873705147, 0.30786826810555684, 0.3081351161294541, 0.30842050753053474, 0.30866767398848294, 0.3089635367314746, 0.3092579541392023, 0.30949688051358915, 0.3097928129456717, 0.31007308917156884, 0.3103562258404993, 0.31063130441414855, 0.3109393610926391, 0.3111918410559347, 0.31138693460637723, 0.31163075882567026, 0.3118629554931286, 0.31204756093196007, 0.31225960301703964, 0.31256014044171193, 0.3127286376670168, 0.31288725558828234, 0.3130199786797871, 0.31315711316271766, 0.3132711758583181, 0.3133801112635465, 0.3134725183696355, 0.31351208500870054, 0.313573554542821, 0.3136763257290167, 0.31368779428277793, 0.3136809967012785, 0.3137289519781926, 0.3136734149456729, 0.3134116089727511, 0.3133448931850087, 0.31324798966024214, 0.31325145936378457, 0.313078652762399, 0.31274167936112335, 0.31254167399970184, 0.3123097734163098, 0.3120818255898791, 0.3117825632070669, 0.3115251922606616, 0.3111585060517004, 0.3107663122956575, 0.3103626350856416, 0.3099152945423184, 0.3093020345712329, 0.30881791413530923, 0.3083836089364807, 0.30781713374684905, 0.30722041984425574, 0.30657834406611867, 0.3059220694403597, 0.3051627872136035, 0.304451395160201, 0.3037037645451656, 0.30296769383368444, 0.3021428758921709, 0.3013004370781401, 0.30040881651597623, 0.29948542687644525, 0.2985863037377302, 0.2975917061710419, 0.29656798752515273, 0.29551457864521763, 0.29443099215264146, 0.293225071194015, 0.2920915651802678, 0.29095129905251277, 0.2897418622057269, 0.28849873942302706, 0.28732573283892743, 0.28600280176310255, 0.2845372466506142, 0.283173906568179, 0.2817758018114272, 0.28045001771394623, 0.2789705180384853, 0.27745787961591556, 0.2759243202911668, 0.27436256608559734, 0.2726274597160412, 0.27102730270461994, 0.2694971462869814, 0.26781165965795467, 0.26609797395878115, 0.2642941416401952, 0.2625325591724096, 0.26071336615002816, 0.25889400353245123, 0.2570437413091192, 0.2551398562345362, 0.2532335948918496, 0.25147242537518827, 0.2494860507980564, 0.2474819065778244, 0.24545356535080048, 0.24341323465388068, 0.2412115965717502, 0.23915062082465327, 0.23706230171829756, 0.23494784957870823, 0.2328084084809337, 0.2306716987438298, 0.2284821124581775, 0.22627213172503993, 0.22409575549931038, 0.22184042207568458, 0.21948105003394675, 0.21720670873124356, 0.21491272245295542, 0.21267711416998142, 0.21033728564314338, 0.207985214522761, 0.20562122595558954, 0.2032456873710588, 0.20084124780559548, 0.19844610840358692, 0.19610485404343916, 0.19367968001633046, 0.1912482385682425, 0.1887307642384551, 0.18629738924352685, 0.18394860378600206, 0.1814840060227588, 0.17901654602707756, 0.17649608280832732, 0.17402984506411645, 0.1715172110802872, 0.1690470572740048, 0.1665711587104949, 0.16410837863155447, 0.1616220220886205, 0.15918146675508937, 0.15668686926673273, 0.15419506077177042, 0.1516976025806055, 0.14921384865958087, 0.14667757306165377, 0.14420894983652507, 0.14174209900514334, 0.1392869794452334, 0.13682574538121203, 0.13444091621254992, 0.1319823347485545, 0.12953485006389814, 0.1270484074827422, 0.12463029659569654, 0.12225688103212476, 0.1198534292584215, 0.11746270870963244, 0.11499048149954606, 0.11263861706325749, 0.11031041999346633, 0.10797569902406684, 0.10565314400374008, 0.10340589966517225, 0.10110274659407006, 0.09878255392066483, 0.0965211810150393, 0.09427698874477429, 0.09197072938073454, 0.08977295738204681, 0.08766378112507636, 0.08548710643491153, 0.08333156657451458, 0.08115322131813449, 0.07904691308651712, 0.07698425563547193, 0.07491568562628716, 0.07286993100955226, 0.07084748198273362, 0.06884880730207582, 0.06685067925891626, 0.06490387312196506, 0.06298080137497411, 0.06117971243909934, 0.05929347333485559, 0.057449923564768315, 0.055623578870819014, 0.053828193388110054, 0.052010214205925574, 0.050282702178884586, 0.048470037194581, 0.04681167839204414, 0.04517493790117741, 0.043623163473190375, 0.04202527065246027, 0.04048827066542151, 0.038943294883769464, 0.03742916553575594, 0.036011024248010705, 0.034550455616862576, 0.0329617200160664, 0.031590461849109554, 0.030243771203338148, 0.0290557716531067, 0.0277440996639183, 0.026443300622256083, 0.02520328615381475, 0.023995670362624056, 0.022808459451466836, 0.02166668334240756, 0.02051477642299331, 0.019440814049142163, 0.018395762480743504, 0.01737399230774546, 0.01638833057975893, 0.015443810639605041, 0.014515459402665767, 0.013617430506719456, 0.012740862317163502, 0.011904624017739854, 0.011089301098805963, 0.010313783700000278, 0.009567550785583993, 0.008918691497794099, 0.008222444716501215, 0.0075030249670150805, 0.006879375258695086, 0.006284409116035234, 0.005646993820402986, 0.005118036720509972, 0.0046725772789429024, 0.004185142534578881, 0.0037260279869335325, 0.003360082261437456, 0.0029485752883577194, 0.0024853411095059116, 0.0021457566555421466, 0.0018310433898134745, 0.0015500070044550656, 0.0012836520339106574, 0.0010807967533857305, 0.0008593665808361986, 0.0006645726344307327, 0.0005461090762530885, 0.00039639108224066285, 0.00013819352322616215, 6.00312511997751e-05, 0.0, 5.3041264749080714e-05, 1.792139748255078e-05, 3.7466830282947915e-06, 1.6049607573369865e-05, 5.0599340862637826e-05, 4.456510215645292e-05, 0.0001294448949807979, 0.00031100787545319407, 0.00041921017391238606, 0.0004714251711534063, 0.0006304175299303139, 0.0008043722199960934, 0.001075990501321625, 0.001268851542819916, 0.0013623186965011926, 0.001607168444305092, 0.0018625037038832108, 0.00226455390334087, 0.0025238428797009203, 0.002768750147360628, 0.003067286609428013, 0.0033798181665751566, 0.003708501188836754, 0.004046271380364391, 0.00439588658190982, 0.004756607334727657, 0.005127720905218064, 0.005464145703659548, 0.005859613317565532, 0.006222504812876746, 0.006634358492773465, 0.007049373862875385, 0.007443854651506165, 0.007868064457802386, 0.00839449021122066, 0.008809163136771646, 0.009231010165937, 0.009623580234213683, 0.010061501253639572, 0.010490088217322118, 0.010933988916556675, 0.011378678807441702, 0.01191547375479147, 0.012348843298517674, 0.012689168851668377, 0.013142934460379027, 0.013593538672740773, 0.014043696309482784, 0.014486842908422176, 0.01502088868413221, 0.015444111357082175, 0.015868152309358154, 0.01621197826389704, 0.01664446497616918, 0.017070152211126628, 0.017488786850017514, 0.017900099730283035, 0.01844586528951952, 0.01882371346072591, 0.019248684442233065, 0.01961863406199097, 0.019988243519967388, 0.020258276025765333, 0.020634996097654727, 0.021087468318057447, 0.021432836927917694, 0.02177226636313028, 0.022134351390852982, 0.02245526247169973, 0.022721841761548053, 0.023033824154855907, 0.023334361115163738, 0.023765134433009902, 0.02402373183398872, 0.024316317295796287, 0.024559667973172945, 0.024798041595220848, 0.02500340751243965, 0.025231187377855433, 0.02544290591841092, 0.025650449380503582, 0.0258462201685984, 0.026080071417856922, 0.02624463510756336, 0.026467162333192074, 0.02660224987730665, 0.026729839289695037, 0.026905153936076027, 0.027007766332803163, 0.02709753456597218, 0.027185996212740034, 0.027265268364550864, 0.027382016379667317, 0.027434988525503565, 0.027515250269187164, 0.02754655789779492, 0.027570322366317044, 0.02752364454618467, 0.02753807873817192, 0.02757516889708384, 0.027559536911487693, 0.02753336229610803, 0.02765047245500491, 0.027583617257535577, 0.027485249792990923, 0.027417176092685454, 0.027343471433087158, 0.02721035498695652, 0.02713072696634199, 0.027159710722668155, 0.027045848174002508, 0.026929443961134555, 0.026777338928174178, 0.02665830290693897, 0.026548312586162352, 0.02641595918451537, 0.026278872733500123, 0.026267349755809046, 0.02610463756726773, 0.025924226366861213, 0.025769394861092608, 0.02561505117864763, 0.025398780784513998, 0.02525260184921668, 0.025102989182420512, 0.024950511938684975, 0.024795764941901992, 0.024677838654882624, 0.02451555591074102, 0.024340267177409825, 0.02418379282573601, 0.024029036880619196, 0.024006784112451048, 0.02384072132237263, 0.023590746250639488, 0.023457825188149196, 0.023329692074957914, 0.023224724131254038, 0.02310580491121778, 0.023074503646597307, 0.022961440654693514, 0.022861682003905686, 0.022784064473452607, 0.02270977224555012, 0.022593232520425225, 0.02255418924216699, 0.02252640277047036, 0.022501778759529908, 0.022499992225152636, 0.0225557409259645, 0.02257550912273492, 0.0226126739421368, 0.022706228868367734, 0.022774921847575055, 0.02287076568860505, 0.022981492712066835, 0.02311448785348611, 0.023202078921536515, 0.02338946588364165, 0.02358778133402098, 0.023817004545374384, 0.0240677076882449, 0.024444591040233946, 0.024728474589149035, 0.025004430878720497, 0.025354463876540455, 0.02573334447993451, 0.026129880827113875, 0.0265699147681302, 0.02711116413218237, 0.027603391465861948, 0.028131395397142808, 0.028612542629564256, 0.0292233483273152, 0.029901699028609622, 0.03057316434030049, 0.031280796814661734, 0.03195430512135352, 0.032745469482996, 0.03364206844323656, 0.034494382023685724, 0.03538765309379958, 0.036286978625461735, 0.037268499591341694, 0.038347079775647705, 0.03940407009158457, 0.04050685903286522, 0.04164993876417861, 0.042846335811003965, 0.04408063676132827, 0.0453722547495656, 0.046711235386582395, 0.04810412320481589, 0.04953895500454411, 0.050946402321918084, 0.052490656451964726, 0.054081288486661654, 0.05573131893241651, 0.05741667655371258, 0.05913167101661295, 0.06092121782104212, 0.06276162869931752, 0.06475149632597375, 0.06668400598460515, 0.0686902509602237, 0.07073872582767354, 0.0728469361264053, 0.07494082107415542, 0.07717768839419577, 0.07952037400098111, 0.0818625436680348, 0.08426430304689014, 0.08660743528519678, 0.0891438461331396, 0.0917455653104553, 0.09438856086723212, 0.09710265534985991, 0.09985720668626206, 0.10267045188852107, 0.10553109207958035, 0.10846478036279078, 0.11146386151285131, 0.11451621767298721, 0.11762925713602222, 0.12092166650186761, 0.12414197588575794, 0.12732089278277595, 0.13069049312657438, 0.13412058971427704, 0.1375996011771284, 0.14115290997738036, 0.14484954856377213, 0.14851352419707206, 0.15224299848117354, 0.15593679989725076, 0.15980838815310847, 0.16375012826630306, 0.16773720280498905, 0.17178388772554348, 0.17583997910357768, 0.18001251331874485, 0.18428934369994177, 0.18857013020855318, 0.1929111243556223, 0.19726179808955882, 0.2017288845461618, 0.20623780280967086, 0.21082010416278582, 0.21545829284978124, 0.2201316987816545, 0.22488433643047828, 0.22970638817602618, 0.2345663654856286, 0.23948165774964109, 0.24458809453633362, 0.24959581936386277, 0.2545795764662462, 0.25972030501357696, 0.2649150349523485, 0.27010682922840684, 0.2754145381737485, 0.28077684747714937, 0.2861808700229191, 0.291633232899779, 0.29716008518242865, 0.3027042452848148, 0.3082551839851177, 0.31390015016422107, 0.3195892712923597, 0.3253338252225901, 0.3311080196180832, 0.3368748675946789, 0.3427405340315773, 0.3486446661212084, 0.35467260523423727, 0.3606412810038985, 0.366663385586414, 0.3727123475290803, 0.37880079091896923, 0.38484735827217326, 0.3910205457909701, 0.3972718143515247, 0.40349973912698656, 0.4097595228346299, 0.41609136739426417, 0.4224059311140425, 0.4286710625791309, 0.4350550988480301, 0.4414619990675824, 0.447828739712406, 0.4542865517057114, 0.4608615858821214, 0.467339348637805, 0.47383820637956414, 0.4802826400124414, 0.4868284636724683, 0.49338963635517263, 0.4999589644187498, 0.5065389819893927, 0.5131700735006229, 0.5197630334632387, 0.526268048297437, 0.5328912730253099, 0.5395156941995879, 0.5461642555729634, 0.5527857830999094, 0.5594191989530174, 0.5660381475171573, 0.5726553989875174, 0.5793376568746177, 0.5859387860018792, 0.592360297909627, 0.5989778079939811, 0.6055793982772519, 0.6121912485217345, 0.6187561283320746, 0.6253048232671256, 0.6318362973760596, 0.6383494436847661, 0.6449111614481787, 0.6513754807712929, 0.6577032424155248, 0.6641443125173194, 0.6705568653423365, 0.6770584295942168, 0.6833963331797428, 0.6896592350448266, 0.695952077144115, 0.702213375959102, 0.7083616947904431, 0.7145654209160488, 0.7207018938443467, 0.7268268673781173, 0.7329078815033084, 0.7389766762376614, 0.7449631257327686, 0.7508396430306226, 0.7567433766243249, 0.7625960026447057, 0.7684233319088455, 0.7741678193895227, 0.7799310158156341, 0.7855606321014797, 0.7911393871647403, 0.7965943846116613, 0.8020748499224624, 0.8074447157104744, 0.812809828193278, 0.8181095283406378, 0.8234051900686635, 0.828563815031395, 0.8335958539785254, 0.8386320231730522, 0.843597406814394, 0.8485384602242496, 0.853353556198004, 0.8581302799486136, 0.8627980333848067, 0.8673939697997255, 0.871872118106321, 0.8763253597384809, 0.8807234144648665, 0.885014889313026, 0.8892267445225706, 0.8933548027425876, 0.8974041756001797, 0.9012873503207971, 0.9051794499907109, 0.9089814228591503, 0.912725463425852, 0.9163419334349862, 0.9197830474711993, 0.923230553351316, 0.9265822013952014, 0.9300007047658595, 0.9331397959291983, 0.9361266489833351, 0.9390981436828002, 0.9419758265270706, 0.9448269391184514, 0.9475059443484402, 0.9499889970592139, 0.9524950910336532, 0.9549005652000193, 0.9572495730285416, 0.9594474625265105, 0.9615671849150756, 0.963564062661471, 0.9654620123665238, 0.9671419459076185, 0.9688549471620189, 0.970605452613701, 0.9720855128056236, 0.9734669739951864, 0.9746720232129161, 0.9758635175981635, 0.9768965147274842, 0.9778843213151917, 0.9787639723295674, 0.9795625692240784, 0.9802238936641116, 0.9807857464894159, 0.9812356799269903, 0.9815808344663207, 0.9817946728542265, 0.9819339466763986, 0.9820175978481074, 0.9819390014008904, 0.9817580074494381, 0.9814153713795452, 0.9810369548450127, 0.9805972004241525, 0.9800022790072119, 0.9793052449742764, 0.978577319531647, 0.9776676980829788, 0.9765126732128654, 0.9754266488944215, 0.9743173520391382, 0.973009713835857, 0.9716028186511216, 0.9701177621900989, 0.9685109162552092, 0.9667066241633681, 0.9649192007737936, 0.9630300584940182, 0.9610700658399377, 0.9589775186351077, 0.9568655532183622, 0.9545714665936177, 0.952187179696315, 0.9496478969696037, 0.9470924694451742, 0.944423664018504, 0.9416866109114085, 0.93885789380276, 0.9359979589652228, 0.9329821851977593, 0.9299380352926452, 0.9267466924631186, 0.9234754653375353, 0.9199975083968884, 0.916583952177399, 0.9131500335843832, 0.9095590342188354, 0.9058896399719615, 0.902163697009195, 0.8983383152254314, 0.894385916086877, 0.8904208358864588, 0.8863811851428484, 0.8823484525902826, 0.8781542922266606, 0.8737527057718322, 0.8694466849722806, 0.8650692300342847, 0.8607290864142745, 0.8562018219968781, 0.8515119022669669, 0.8468807285939689, 0.8421869968788959, 0.8375008461095135, 0.8326795426354882, 0.8277966626170153, 0.8228724518253797, 0.8178978044447534, 0.8127943041316749, 0.807733374757152, 0.8026960303958054, 0.7975271172048579, 0.7923162418427457, 0.7870589429764224, 0.7817692861940464, 0.7763352278456174, 0.7709848896176117, 0.7655938538400643, 0.7601704816257238, 0.7547045315858362, 0.7493413995979741, 0.7437937287782375, 0.7382245793189303, 0.7325194470622828, 0.7269247705378359, 0.7213317712502374, 0.7156858856079076, 0.7100206351421097, 0.7044117697888604, 0.6987037040116926, 0.6929471903667545, 0.6872251640561823, 0.6814933119272754, 0.6756703158722211, 0.6699339459484243, 0.664181855978912, 0.6584288729211886, 0.652670160005899, 0.6469966424885796, 0.6412215916428524, 0.6353780176324705, 0.6296244824253404, 0.6238747552917654, 0.6181780776669978, 0.6124355986753481, 0.6066163260949838, 0.6009104317096041, 0.5952143037375737, 0.5895359636223078, 0.5838648428037042, 0.5783016266066199, 0.5726530459487683, 0.5670293571111331, 0.5613841772341787, 0.555819208262061, 0.5502114289912058, 0.5447070394600821, 0.5392269771048038, 0.5337850383441309, 0.5283579188306597, 0.5229643630527295, 0.517599691518948, 0.5122689583952371, 0.5069558815730704, 0.5016996465274781, 0.49652502716882535, 0.4913391040268868, 0.48619579489224385, 0.4810043632071582, 0.4759609009003936, 0.471073327860793, 0.4660979278044139, 0.4611728117596206, 0.4561831543146612, 0.45137501577731237, 0.44668653795973023, 0.44196198220432187, 0.43729033567747233, 0.4325688185562058, 0.4280184848588457, 0.4235649694670271, 0.4191091735329612, 0.414708567542751, 0.41045291981934884, 0.4061543609552936, 0.4017678259520104, 0.3976143841049689, 0.39351570019630366, 0.3895501256433304, 0.385555318663707, 0.3816915145416291, 0.3778144181177053, 0.3740049562824903, 0.370212682348632, 0.3665444953906362, 0.36295269206247893, 0.3594124941592841, 0.35593827454460664, 0.35244742290936965, 0.34911639554397267, 0.345797117951203, 0.3425974586706559, 0.33945870490865293, 0.3365388076197072, 0.33350518467196444, 0.33048792986249464, 0.3276060731905957, 0.3247926262028169, 0.3219440079080632, 0.31928046401586235, 0.31672977399334756, 0.3141857246906833, 0.3117084597642414, 0.30936617531261584, 0.3070141974382105, 0.3046708897184341, 0.3024678312006712, 0.3003309672677716, 0.2983312842504719, 0.29631765302343144, 0.29427330768346105, 0.29241146604714646, 0.2906124105436113, 0.2889739143902045, 0.287288328603072, 0.2856415051030972, 0.2840954750919504, 0.2826143717867218, 0.28107921072368863, 0.27974111132446816, 0.27850977391645143, 0.2772785359229438, 0.27610708786025495, 0.27494774805051303, 0.27390082040485436, 0.2729749747283926, 0.27203164659247575, 0.2711476244496414, 0.27025402165495166, 0.26949475060126743, 0.2688239830746161, 0.268165886222158, 0.26756206216909817, 0.2670887028061319, 0.2665813951719819, 0.2660267321038605, 0.2656435115406472, 0.2653078245279398, 0.26499545648725664, 0.2647561509961546, 0.26462043901066473, 0.2644619311966849, 0.2643500268675113, 0.2643250207344383, 0.2642976679095776, 0.26422407998735997, 0.2642978727065001, 0.26440911646460985, 0.2645837844265541, 0.264764514872773, 0.2649376361713171, 0.2651965062138871, 0.2654875683936685, 0.2659255249746709, 0.2662641609302802, 0.2665473920392526, 0.2669685015613742, 0.2673817453246262, 0.26786170907899703, 0.26836542908911576, 0.2689365883215855, 0.26948001643698544, 0.27008289808108527, 0.270668481275766, 0.2712775312199754, 0.27179310925925027, 0.2724591715838244, 0.2731940096566257, 0.2738775637681527, 0.2745757559857479, 0.27537922811518606, 0.27609177348753505, 0.2766846217955624, 0.27744539017655373, 0.2782112996103163, 0.279043884366078, 0.27981030578904403, 0.28050933383739624, 0.2812970111769485, 0.2820845709211001, 0.28296013876472464, 0.28373420001801836, 0.2844310743733356, 0.28521915437473444, 0.286002470210041, 0.2868009530809504, 0.28756972923601576, 0.28836796029667705, 0.2891190837806544, 0.28986405339119126, 0.2905985815280161, 0.2913276720533501, 0.2920643298821678, 0.29276960226274595, 0.29346332578387163, 0.2940879942127002, 0.2947619503987876, 0.2955388535033324, 0.29615998914458236, 0.2967681421916209, 0.2972106809880027, 0.2978069762395787, 0.2984658402765774, 0.2989982998532702, 0.29950910967843464, 0.29992623163069376, 0.30039973366038725, 0.3008683639340052, 0.30128145058972816, 0.3016666295660408, 0.3020647502181961, 0.30238712069859613, 0.30259632566318073, 0.3028739517128383, 0.3031176317721596, 0.3033597809483401, 0.30353098924299377, 0.303743520631965, 0.3038395284900003, 0.30390599928563544, 0.3038915259784026, 0.30390208266428875, 0.30391275413553365, 0.30384756648944666, 0.30374808109212553, 0.30353664733806457, 0.30337624140926106, 0.3031782309233742, 0.3029363930356084, 0.30265426729662065, 0.30229632969214004, 0.30193807140188367, 0.30159960291472254, 0.30114899950700263, 0.3006599486660405, 0.3000817947290342, 0.2995212115340606, 0.29891250354012067, 0.2982684131326774, 0.2975820770056051, 0.29687438058593607, 0.2961014228731968, 0.2952878415537101, 0.2944336002292986, 0.29353867780491816, 0.29259123153133076, 0.2916164472057396, 0.2905648423055326, 0.28951208090969544, 0.28841631802668055, 0.2873342323290569, 0.2861466754385998, 0.284941264429517, 0.28367388359131146, 0.28236901382559465, 0.28098212117897076, 0.27960752534476396, 0.27817495113275603, 0.27672254864998574, 0.27522971666244006, 0.2738242637081554, 0.27223612128731756, 0.27065479169684037, 0.2689979743026326, 0.26731080558107023, 0.26541220072846433, 0.26368563917261484, 0.26196470815328676, 0.26015001066272003, 0.2582987683097586, 0.256426559979613, 0.2545026922124531, 0.25262237808941135, 0.2506226359901351, 0.24859511578267618, 0.24642444383579085, 0.24435619279197, 0.2423251149704909, 0.24018139009877218, 0.23801018341664676, 0.2357173459934237, 0.23350485019818096, 0.23139745877681778, 0.2291070901945468, 0.2267960754582301, 0.22433733901791758, 0.2220017554721894, 0.21974275487194603, 0.2173415022419655, 0.2149218540622099, 0.21251387715603787, 0.21005516131694937, 0.20752208267130798, 0.2050408788448758, 0.20254199387722172, 0.19997017390610858, 0.19744596370764853, 0.19491271454649245, 0.19235296404847108, 0.18977856935470003, 0.18719668179001486, 0.18459590706641701, 0.1819548054729017, 0.1793373849798094, 0.17670969911149537, 0.17413516605234516, 0.17148284704265024, 0.16888660446870077, 0.1662212104890481, 0.16355732548694132, 0.16075310487459984, 0.1581109179489614, 0.15552824929176204, 0.15286822066688247, 0.15020931808771143, 0.14750212067214266, 0.14485450064504896, 0.14228183228228575, 0.13962806771188435, 0.1369819313929285, 0.1343588059859528, 0.13172783906481422, 0.12912196674845736, 0.12651026590421766, 0.12391081329644987, 0.12124123128138947, 0.11867826097023627, 0.11613631180477157, 0.11359147424264388, 0.1110589552941672, 0.10861676378271684, 0.10610230067322572, 0.10354244350694433, 0.10107598574538042, 0.09862632055420424, 0.09626838989704671, 0.09384578768692135, 0.09134924263388099, 0.08898670865830637, 0.08664301711591631, 0.08433115856877642, 0.08202705161578655, 0.07982267831729684, 0.07755530181625263, 0.07531676801237609, 0.07305992200458584, 0.07088569714980825, 0.06872357825084416, 0.06660572432591856, 0.06451530965950707, 0.06238207840855083, 0.06035780692708927, 0.05835328598240889, 0.05638234654043575, 0.05443913200078871, 0.05262240410748703, 0.050725491555077884, 0.0488352148051644, 0.04701456599755918, 0.04529078324657874, 0.043532055338231526, 0.041812215370274054, 0.04004526406233321, 0.03841358352535956, 0.03688071117981172, 0.03530884655107141, 0.03377558424395328, 0.032269112571492814, 0.030814649962546882, 0.029410096211027303, 0.028030446704770395, 0.02668986658983554, 0.025406179731208737, 0.024141699717824656, 0.022881988043580142, 0.02170249938997535, 0.02056118877609945, 0.01936064328422133, 0.018308765746868773, 0.017393846013963685, 0.01639658088627032, 0.01544030266254305, 0.014483472427394868, 0.013614090676965783, 0.012836325499434106, 0.012037123061467593, 0.011279659638331569, 0.010507413388576872, 0.009839678480458698, 0.009248165248626374, 0.008651254385015255, 0.008094586009665289, 0.00756906780895953, 0.0070933602079064325, 0.006553154324713222, 0.006168551399512813, 0.005816877934524445, 0.00551356665655839, 0.005227665821403356, 0.005033309768329121, 0.004811111498634979, 0.004627675159540041, 0.004506262367620326, 0.004396104495348823, 0.004301093299813647, 0.0042709461155232, 0.004277051669182638, 0.0043604346202632495, 0.004432568992437504, 0.004559777579844755, 0.004703525346389582, 0.004884066620277971, 0.005076865211581079, 0.0053314487182298176, 0.00553025099416304, 0.005861509783574409, 0.006219674954544577, 0.006643380787112324, 0.007050888217066496, 0.007529121668111622, 0.007989587254996383, 0.008480866157544738, 0.008934114295059371, 0.009493318840018531, 0.010118675165520705, 0.010721895960270601, 0.011351740452728597, 0.011927678735694124, 0.012619000017791279, 0.013422320628572022, 0.014142552981975023, 0.014888109907575052, 0.015678812874983687, 0.01646973650400236, 0.017192781848082386, 0.018042038919048608, 0.01890804969579745, 0.01976990421576694, 0.020671400069420726, 0.021635079839148304, 0.022560056407852837, 0.0235020655112497, 0.024501839235201904, 0.025470564898372038, 0.02644764928685463, 0.027450923258118487, 0.028468876878380085, 0.029459172756585304, 0.03050903553951653, 0.031515336687256416, 0.03259084728261725, 0.033672039543324775, 0.0347795060112201, 0.035868997901854695, 0.036994348697339745, 0.03809214140530133, 0.03919685914362502, 0.040390589245094456, 0.04149634810530674, 0.04250482193118386, 0.04364114311641326, 0.04477798375530052, 0.04590014996867395, 0.04703868021500839, 0.04827920343640458, 0.04940109554812895, 0.0505264543137327, 0.051588910899729286, 0.05272573378082587, 0.05382329951740967, 0.05495660097022792, 0.05608310762385445, 0.05728247426269446, 0.058384491690012, 0.05954547929235058, 0.06063228137621868, 0.061717450823675905, 0.06285582631453314, 0.06392655271431419, 0.0649150352735746, 0.06598964633475211, 0.067054484192631, 0.06817697943131912, 0.06921178351162853, 0.07019442715853808, 0.07121821888382009, 0.07222966570871668, 0.0732489310433926, 0.07423144231241499, 0.07515681585071797, 0.0761188219763029, 0.07706438083079192, 0.07812056803295171, 0.07901658401606831, 0.07985537363129638, 0.08073640738246839, 0.08160259075487236, 0.0825213886422131, 0.08334750730888994, 0.0841846200740144, 0.08498138132135387, 0.08576489997169534, 0.08660522477741928, 0.08735045241883937, 0.08809565506195736, 0.08881442151617483, 0.08951966897184303, 0.090186685084184, 0.09086491881107972, 0.0915492762666746, 0.09218894318751336, 0.09281152786916722, 0.09346979144253321, 0.09405003178991826, 0.09468296912783045, 0.09522315541382541, 0.09575049950323507, 0.09632908205568012, 0.09681958529689268, 0.09726869004896133, 0.09773821739934135, 0.09819224107499984, 0.09865095227419832, 0.09906989119352916, 0.09949693168152338, 0.09988135494511514, 0.10025089191946379, 0.100756114904417, 0.10107581290647265, 0.10135576325837653, 0.10166390681845873, 0.10196068866782278, 0.10228399226803497, 0.10255156652316767, 0.10285891776449788, 0.10309856965144795, 0.10332967452092759, 0.1035368168557254, 0.103751011984416, 0.10400773072941238, 0.10419364532259356, 0.1043718071643901, 0.1045360160682837, 0.10469871218516977, 0.10491797929812124, 0.10505549434563771, 0.10518847075600057, 0.10531372206508514, 0.10543744912704865, 0.1055088271003183, 0.10562870550353155, 0.10574133615382773, 0.1059036602558211, 0.10599684040726544, 0.10606149179010815, 0.10615457277050454, 0.10624497383833552, 0.1063895906188349, 0.10646954407080515, 0.10662307634660131, 0.10669943578249524, 0.1067622619118837, 0.1068554636103204, 0.10695452823486007, 0.10718994423820775, 0.10728516215507662, 0.10723774727187939, 0.1073806898147569, 0.10752813624201674, 0.10770186955834803, 0.10785889809710454, 0.10805141116739748, 0.10822365098191619, 0.10840801049897436, 0.10859334289568934, 0.10880554758259567, 0.10906985630537909, 0.10930533597118858, 0.10955837477443689, 0.10981180633744811, 0.11010402684559173, 0.11045910764709263, 0.11078350597309801, 0.11113058883824639, 0.11156599059682284, 0.1119518388107617, 0.11227105162852638, 0.11272515906627872, 0.11320241519520728, 0.11367432499400941, 0.11420490747450322, 0.11486678040702793, 0.11543468440934351, 0.11603586778637398, 0.11667956835586682, 0.11734733534882812, 0.11803832110244539, 0.1187781731777204, 0.11955342416502533, 0.12030556085276041, 0.12116115760518671, 0.12214565998139579, 0.12305892037236789, 0.12401413001235126, 0.12492882117368143, 0.12597966321084678, 0.1270691717604454, 0.1281985685754934, 0.12936903187549229, 0.13056394156038711, 0.13182215520910157, 0.13312669464128224, 0.1344724355111274, 0.13586399559850293, 0.1372669071125417, 0.13875769384549155, 0.14036339286959637, 0.14194047405844698, 0.14357057792682942, 0.14526903550182568, 0.14700492256933032, 0.14871637943570953, 0.15057375758993202, 0.15248301291670502, 0.15455475507681735, 0.15655717275692288, 0.15860593716726215, 0.16073255168105482, 0.16291960937101407, 0.16511705749837496, 0.1674321674494122, 0.1697643175863402, 0.17220234450027855, 0.17469794601359168, 0.1773024278473509, 0.1799097241219512, 0.18250323396062684, 0.18524696259695206, 0.18805028523790862, 0.1909496936949995, 0.193870557556629, 0.19684384276371814, 0.19989516691687728, 0.203010940115856, 0.20626266202339802, 0.2094997220908738, 0.21268812091537992, 0.21607936433110891, 0.21953326905170328, 0.22314532904075293, 0.22671485522079757, 0.2303781257550234, 0.23408456108463066, 0.23786194638832184, 0.2417217327285765, 0.24563839687084654, 0.2495960238206089, 0.2536571580114315, 0.2577864463851032, 0.26186837769790733, 0.2661482912848517, 0.2705694947607132, 0.2749628801531501, 0.2794236244225234, 0.2839309326482223, 0.2885287500450975, 0.2932013202092843, 0.2979297653506427, 0.3027245383783929, 0.3076505850544495, 0.31256925544256786, 0.3175158801622116, 0.32257777705983687, 0.32770519463634296, 0.3328829422413989, 0.3381420748016885, 0.34344098678520973, 0.3488296933298834, 0.3542798302672341, 0.35971720009296876, 0.36529886778030773, 0.37099028948096574, 0.3766784106772652, 0.3824263301614852, 0.38820105495205837, 0.3940713224080628, 0.3999537060184032, 0.4059422858410961, 0.41198417132113424, 0.41819171892737045, 0.42432557175678615, 0.430494734212855, 0.43674824550034785, 0.4430568295510178, 0.44947565549421176, 0.45588408800664765, 0.46234459769062314, 0.4688619558159788, 0.4754311920866183, 0.4819206855432569, 0.48860597305741355, 0.49534060579177513, 0.5021054406733766, 0.5089106051871707, 0.5157821918434689, 0.5226629352099598, 0.5295510761631251, 0.5365148532024471, 0.5435147427527937, 0.5506002570407277, 0.5576635453757821, 0.5646714332792365, 0.5718176252506811, 0.578992239624346, 0.5862271791794211, 0.5934524720518557, 0.6007117033307252