0.05131472400248045, 0.05064522629861283, 0.05000245293576672, 0.04933499022302178, 0.04874071797951991, 0.048222323581162296, 0.047646097587789676, 0.0470833906318213, 0.0465416748196724, 0.04599896651870967, 0.04532226149664403, 0.04481390971003758, 0.0443039764429642, 0.04391173841546441, 0.04338447281531983, 0.04288228589848595, 0.04236410422499657, 0.041851992338812746, 0.041288347745786165, 0.04079426897424549, 0.040301957951205954, 0.03981171590465817, 0.039323868764505096, 0.038786402675069685, 0.03831101328145012, 0.037802831720222335, 0.037333502232982936, 0.03686436565976671, 0.036439223014759665, 0.03596786316693789, 0.035463676007952555, 0.035008030827195315, 0.03455627305241607, 0.03414714383854136, 0.033700275679478794, 0.033280291295527994, 0.032846902834740135, 0.032422818060476956, 0.03194619209905117, 0.03154865198591183, 0.031171360649710836, 0.030784518927216155, 0.030405526058008833, 0.030058531614213586, 0.029693249125854887, 0.02938095724573774, 0.029030643346131126, 0.028693051980256554, 0.028315568917133785, 0.028009322140015683, 0.027631309390490796, 0.02735388894531382, 0.027081644437592013, 0.026920201417464533, 0.026647699189536352, 0.026331582512463394, 0.026093121359702372, 0.02586461712654075, 0.02567496898011404, 0.02546376141693907, 0.025198420169144888, 0.02502068842883896, 0.02497081157942832, 0.024796348950790147, 0.02463856407738014, 0.024406555890176367, 0.024292244986049143, 0.024155042735707864, 0.024066266589123652, 0.023986946585520672, 0.023908231533119998, 0.023850972001512923, 0.02380446278922425, 0.02376928354205719, 0.023745960239178947, 0.02369689175417894, 0.02370348541773645, 0.023735386485982526, 0.02376289832383933, 0.023803507101135896, 0.02390523532326378, 0.023967250821772725, 0.024017630567953266, 0.024117037793407906, 0.024231652959718908, 0.024323598338049028, 0.024474036179004174, 0.02469523401035804, 0.024866210200302122, 0.025054942697670262, 0.025270883705380203, 0.025493743398523828, 0.025658593849838585, 0.02592729333755031, 0.026209718793299534, 0.02660640067350182, 0.026905303891166247, 0.027148943881969454, 0.027498885106881144, 0.027864744313037707, 0.028313502915277074, 0.02870377401387412, 0.02904801243803365, 0.029487650449068363, 0.029943659487929642, 0.030364031574021948, 0.030860423595834335, 0.03137120932361075, 0.031897073925829515, 0.03243862575149442, 0.033034482273591396, 0.03360414596498715, 0.03418830504767474, 0.03479714023414702, 0.03542507242263035, 0.03604362162271146, 0.036713583581546076, 0.03734412105576573, 0.038056965240493006, 0.038784803237674054, 0.03961396917117176, 0.04036284176824124, 0.04111894647176598, 0.041912372328237066, 0.04272597652972314, 0.043550115234592734, 0.04440490889356694, 0.045283738124768665, 0.046176437058143026, 0.04708858118218376, 0.04797723148850685, 0.048933378542523234, 0.04986341679143324, 0.05085867357266246, 0.05186867576281427, 0.052970069264989844, 0.05400131526456605, 0.055109926014212364, 0.05617409633878339, 0.05726104162793781, 0.05828906844852978, 0.05942953727952847, 0.06064799250540618, 0.061812916239015095, 0.06299751524905049, 0.06421557566177502, 0.06543627508499529, 0.066514238129032, 0.06779308458625419, 0.06908095841011515, 0.0704453559333439, 0.0717453009009261, 0.07314112023826297, 0.07446070798214623, 0.07579968257901454, 0.07714301281033624, 0.07852036550610948, 0.07983804635842771, 0.08125750816074924, 0.08268822090660283, 0.08413510844194648, 0.08558815502140549, 0.08709112107886972, 0.08856299978455844, 0.09004874785462876, 0.09151462984702399, 0.09303108507030289, 0.09454878396878133, 0.09608783230856223, 0.09763680384977648, 0.09919557783602999, 0.10076399763806446, 0.10230379473952508, 0.10389572197318232, 0.105494501244415, 0.10713824481273675, 0.10874595230697923, 0.11031973227672773, 0.11195023926342212, 0.11358636657123138, 0.11524228394880555, 0.11688746773907663, 0.11855288077238103, 0.1202078002923161, 0.12186873296396701, 0.12363512218412907, 0.12529389822086567, 0.12689610927485756, 0.12858213299750373, 0.13027193945633403, 0.1318554492107659, 0.13356486891508754, 0.13540819369389429, 0.13709220998778138, 0.1387803657736822, 0.140400274695184, 0.14210282758695164, 0.1437836697308535, 0.1454830233511663, 0.1471780780391742, 0.14889246278512286, 0.150575354586388, 0.1522832011613725, 0.15395478952901012, 0.15562339985950832, 0.15722642304673254, 0.15889472956752693, 0.1605258940992153, 0.1621804688122146, 0.1638244566690303, 0.1655863376124036, 0.16719272642653352, 0.16872404114944087, 0.17033085664746903, 0.17192757198093794, 0.17363266242671793, 0.17519256256578322, 0.17662846630229576, 0.17819192306021645, 0.1797408379599994, 0.1812653781897145, 0.18278544958881265, 0.18424659623054396, 0.18573960921807156, 0.18721349825636077, 0.18865873196859465, 0.1900954765017388, 0.19158373656246355, 0.19297157682546665, 0.19434326164249632, 0.1956646796614497, 0.19700591610236556, 0.1983363477636539, 0.1996352811555734, 0.20091351183184794, 0.20223236973322303, 0.20345972759783876, 0.2045920575974774, 0.20579026552437257, 0.2069633155451483, 0.208091864916667, 0.20921607474495266, 0.21032736493012508, 0.2113951627018546, 0.21243611316367236, 0.21343555119164356, 0.21442344455151974, 0.21540629977012832, 0.21633320992765073, 0.21723200014152858, 0.21810214311825138, 0.2189431210771999, 0.21974014631602945, 0.22052308531694392, 0.22127456335349502, 0.22199421709584322, 0.22268167923789342, 0.22339845848830972, 0.22401260400767978, 0.22459692081952226, 0.22510294488992602, 0.22563109116208455, 0.22612433002337612, 0.22658235754565106, 0.2270048728780108, 0.22735349989743892, 0.22770891831344944, 0.2281257669960981, 0.22839151703897922, 0.22858628751752785, 0.22879021299467112, 0.22895750116958988, 0.22914012538543194, 0.22922638998900596, 0.2292493199909038, 0.2292689152584959, 0.22925074840201762, 0.22925158212061028, 0.22914963687685583, 0.22905500970261689, 0.22887589048001616, 0.22866230872459367, 0.22831817127051518, 0.22804512820256878, 0.22776800453062376, 0.22740600998470759, 0.22700434846139053, 0.22657715911654672, 0.22609396842712562, 0.225543024008624, 0.22498488779043713, 0.22438565842208458, 0.22381211138941537, 0.22312268688313056, 0.22250105341003093, 0.22172415458798356, 0.22091551599942902, 0.2201026137556711, 0.21922380153674906, 0.21824544816013364, 0.21730839699563256, 0.21633313822978512, 0.21533867869326487, 0.21428455766544843, 0.21317432909941014, 0.2120484517900798, 0.2108844446902013, 0.20970159038289687, 0.2084596770911001, 0.2072005625801841, 0.20588393629773352, 0.2045325317494872, 0.20328448922465292, 0.20184644177783792, 0.20048655146730693, 0.19898128914779814, 0.19745381455314887, 0.19591229446511585, 0.19433538500363112, 0.1926097140395949, 0.1909976978279187, 0.189352435998834, 0.1877554645110586, 0.1860353677634874, 0.18439799307172336, 0.18261059960067533, 0.18080280891466716, 0.17894543280488195, 0.17709876363306754, 0.1752620829620415, 0.1733646595915148, 0.17144612535136536, 0.1695351000623898, 0.1675710357427356, 0.16554515577286133, 0.16354870992134077, 0.161531307966849, 0.15956030296397428, 0.1574947551558423, 0.15539999223507361, 0.15330668308923762, 0.15119834316406044, 0.1491469744618182, 0.14700142077260103, 0.1448801573134734, 0.14271253272565862, 0.14053826369367256, 0.13839081952834173, 0.13619962480050268, 0.13399494926912886, 0.13179725601526346, 0.12959562961072776, 0.12730967988120434, 0.12511208840289587, 0.12306493311570944, 0.12083561344809254, 0.11861127213653211, 0.11642533793008372, 0.11420720769933326, 0.11194905608749774, 0.10975231293802538, 0.10756103554283995, 0.10541414833576299, 0.10323158112902688, 0.10111643537130807, 0.09894794215877428, 0.09679441338726927, 0.0945229463217651, 0.09241743409480034, 0.09050173646158731, 0.08839298804551002, 0.08630678672860839, 0.08421953308964024, 0.0821821698626378, 0.08019556743310077, 0.07819975015001937, 0.07622931614796832, 0.07420876556636068, 0.0723007844959862, 0.07040660554321973, 0.06854796107666682, 0.06671506183782941, 0.06498558989028583, 0.06319909404782914, 0.06141854126466797, 0.05970548574773936, 0.058027028247922496, 0.05636051518462828, 0.054757708342708204, 0.053182103308534935, 0.05165529722959293, 0.050167363879702075, 0.048791087349578384, 0.04737599929322257, 0.046003098292754056, 0.04468323025829769, 0.04341153540772913, 0.04221265944826658, 0.041036869965617784, 0.03984657297758443, 0.03878419977788309, 0.037771716472750946, 0.036829502599019695, 0.03591837495598746, 0.03500499808089944, 0.034211911503742753, 0.03347263625168187, 0.03287436200928112, 0.03223634109349063, 0.03170410587726682, 0.031187187038759837, 0.030736897657373505, 0.03031549247525907, 0.03000434086621172, 0.029739824600696994, 0.0295632356658973, 0.029452867433175767, 0.029395402434223936, 0.029422146606924743, 0.02955997238025177, 0.02971879910777173, 0.029950263996262928, 0.030221646716573774, 0.030604406119435774, 0.03112639241794363, 0.03164678835500998, 0.032245249588365076, 0.032845902503938054, 0.03361101146155008, 0.034417544061509826, 0.03533733459083547, 0.036331906628111324, 0.0374071580630642, 0.03855401946463497, 0.039845729859783026, 0.04114144610931988, 0.042520765435869336, 0.04388868686789294, 0.045447846602959786, 0.04719059511785373, 0.04889523515053014, 0.05068648299632616, 0.05258333005932166, 0.054545264184638016, 0.05649959490582852, 0.058648605415561925, 0.060879598924886175, 0.06314564405283564, 0.06554854607968023, 0.06815628991391395, 0.07070654521156064, 0.07334638011473563, 0.07595641778467095, 0.07878934431565306, 0.08176122587613764, 0.0847512454346354, 0.08782748472993865, 0.09098516208509028, 0.09423434266716531, 0.09761214640126833, 0.10102739445575346, 0.10453062477497159, 0.10808801661639464, 0.11176992719313865, 0.11550314623918458, 0.1193583044987387, 0.12329574507525115, 0.1273249662192492, 0.13142563644294333, 0.13556126316594524, 0.13983277426254695, 0.14408358882732736, 0.14852626140519945, 0.15304249647834414, 0.15779475791655145, 0.16243936181212928, 0.16714417514683436, 0.17195864170096894, 0.17685347797324957, 0.18177539790369082, 0.1868348043222671, 0.19202595598170905, 0.1972268631274745, 0.20250447852068842, 0.2077672539640852, 0.2132063909039589, 0.21867575402974432, 0.22425593194562138, 0.2299014155955084, 0.2356690637925515, 0.24143703937000452, 0.24730572030342932, 0.2532032096901409, 0.2591678289885485, 0.2651267993970195, 0.27123056610822305, 0.277364759605538, 0.2835893042594312, 0.2898695482422567, 0.29622381357527433, 0.3026108050486592, 0.3090854643378454, 0.31557581785323147, 0.3221200934386569, 0.3286120845614477, 0.3352729655375234, 0.3419631111846682, 0.3487122054500323, 0.3555025654653479, 0.3623048448608144, 0.36917887542814914, 0.3760660865475415, 0.3830162257731401, 0.3900001769401396, 0.3970170580580306, 0.40406587173677516, 0.4111645558389291, 0.41827142846230864, 0.42540772471095795, 0.4325386161408629, 0.4397333950709844, 0.4469843760862944, 0.45421933411947213, 0.461476228966644, 0.4687199709375135, 0.4760196194423098, 0.48335776221036336, 0.49068223366474084, 0.4980195735995871, 0.5053013066624513, 0.5126672846060977, 0.5200416022661586, 0.5274128028811796, 0.5347851058892474, 0.5421093985621153, 0.5494853281753014, 0.5568454699019642, 0.5642087899381935, 0.5715626686102222, 0.5789438237596833, 0.5862698452151508, 0.5935556991282491, 0.600860243993568, 0.6081478215984253, 0.6153691661576675, 0.6226237891051788, 0.62993458382333, 0.6371281031153273, 0.6442985867711556, 0.6513772346157956, 0.6585036139253292, 0.6655301745020538, 0.6725970711116345, 0.6796239111881266, 0.6866952833625899, 0.6936278136351899, 0.7004691914432065, 0.707328719778263, 0.7141424674676764, 0.7209041021327355, 0.7276221417188891, 0.7343036077255941, 0.7409165237539393, 0.7474761437913053, 0.7539711846239954, 0.7604201281941403, 0.7667290423641991, 0.773068320316765, 0.7793405973812688, 0.7856114893856084, 0.7917381956822497, 0.7977935953841522, 0.8037860532339065, 0.8097082020509685, 0.8155631215210857, 0.8213390263324674, 0.8271065380051635, 0.8327222906075138, 0.8382634499003467, 0.8435945925932038, 0.8489970692657814, 0.8543160664407532, 0.8595406493882559, 0.8646755775158969, 0.869772253881415, 0.8747183503227038, 0.8795319255054207, 0.8843026104146341, 0.8889783174540182, 0.893567517626359, 0.8980489114304119, 0.9023708182667931, 0.906663682264581, 0.9108532053534503, 0.9149197373139224, 0.918903109203993, 0.9228943510372677, 0.9266499776817053, 0.9303044727280452, 0.9338419972325697, 0.9372914450758613, 0.9405679047084899, 0.9438118858370015, 0.9469434541877225, 0.9499335148709532, 0.9528422525153905, 0.9556115453361106, 0.9582916807893412, 0.9608541691453172, 0.9633035970971028, 0.9656296330536144, 0.9679233444959783, 0.9700022439921152, 0.971967340830162, 0.9738033520688307, 0.9755397244611417, 0.9771301757925722, 0.978634791604657, 0.9800192152259191, 0.9813545491948108, 0.9824887030444155, 0.9834439938934123, 0.9843512222690594, 0.9851365365462595, 0.9858807722153395, 0.9864118102325428, 0.9867253618401649, 0.9870333394849652, 0.9872170097531978, 0.9873386317479382, 0.9872670048337809, 0.9869900083429552, 0.9866897209709975, 0.9862647841973633, 0.9857349532018113, 0.9850604354875145, 0.9842501440862937, 0.9833349565268852, 0.9822985111906495, 0.9812414196471386, 0.9799517858750231, 0.9785484785411896, 0.9770313668783177, 0.9754004320313847, 0.9735129633864285, 0.9716727910372145, 0.9698065215913807, 0.9677132308315045, 0.9655069403664597, 0.9631073588431632, 0.9606872290454522, 0.9582610619416787, 0.9555974822702525, 0.9528273384392915, 0.9499177876159995, 0.9469402429761743, 0.9438702251174438, 0.940678355641556, 0.9373825453075942, 0.9338837830267089, 0.9303956177936402, 0.9268960850575261, 0.9231846455930656, 0.9193757119636161, 0.9153893885901198, 0.9113988177811441, 0.9073141953504028, 0.9031272239566417, 0.8988453212905059, 0.8944844877806415, 0.890016059571321, 0.8855538058912207, 0.8808968542733496, 0.8761022279846338, 0.8712921937054995, 0.8664001175056474, 0.8614179469571125, 0.8563674243144664, 0.8512007423995896, 0.846000508704315, 0.8407233456083436, 0.8353045915725444, 0.8298879043463556, 0.8244773362958061, 0.8189032799608709, 0.813263806539638, 0.8075415379842102, 0.8017786415388145, 0.7959876210328412, 0.7900994971652419, 0.7841555425803917, 0.7781240415456405, 0.7720774830069064, 0.765944816083863, 0.7597988593421361, 0.7536021727875506, 0.7473950604697753, 0.7410987381690274, 0.7347556324126288, 0.7283776855738384, 0.7219611020098163, 0.7154125671436846, 0.708936400941061, 0.7024647594012216, 0.6959092120692908, 0.6893229915129405, 0.6826035272412411, 0.6759756088668651, 0.6694317255389143, 0.6627318619842858, 0.6560138850155635, 0.6492081379443291, 0.6424681954492626, 0.6358018226721676, 0.6290190517792406, 0.6222291087065323, 0.6153716084344376, 0.6085796622274423, 0.6017816595919883, 0.5949796918286375, 0.5881758145955656, 0.5813815702945975, 0.574578707782254, 0.5677756882413606, 0.5609844933085938, 0.5542013384500607, 0.5474090513309567, 0.5406499654885879, 0.5339033935497941, 0.527171297663684, 0.5204556025242799, 0.5137153585240647, 0.5070435153456276, 0.5004102764157073, 0.4937772924455505, 0.4871691435295943, 0.48062099358237514, 0.47406379326344744, 0.467562504797631, 0.4610679752200727, 0.4546098004229382, 0.44824635479348185, 0.44185745325633247, 0.43531201470012904, 0.4290359834380534, 0.42279385000555614, 0.41675001281901114, 0.4105627486022773, 0.4043257498320104, 0.3982524086445072, 0.3922254003954189, 0.38620360539343085, 0.3802797660233471, 0.37441432387904694, 0.3685888982028412, 0.36281650641739577, 0.35709397647050034, 0.35143293839545814, 0.3458006382452316, 0.3402592080319529, 0.33477620696057464, 0.3293388509498091, 0.3239789093898886, 0.318737934440196, 0.3134958235385922, 0.3083213913563974, 0.303229645763061, 0.29819093153649434, 0.2931942661700502, 0.2883009347557651, 0.2834777138440331, 0.27880153255048196, 0.2741111788349243, 0.269549768944484, 0.26500601425993064, 0.2605419219340647, 0.25599535990860783, 0.2517102453225898, 0.2475093302998373, 0.24336346250738253, 0.23929062905054985, 0.23524411238992937, 0.2313259255438114, 0.22760901512606554, 0.22382112534201326, 0.220115143758692, 0.216405159710229, 0.21287315509254065, 0.2094890238582491, 0.2061014622036291, 0.20279534876525004, 0.19961332542410726, 0.1964641069332545, 0.19328392703066202, 0.19031516927967485, 0.18742224621384396, 0.18461037204384395, 0.18186979102259476, 0.17917785534891748, 0.1765954604723305, 0.17408893039906986, 0.17164900662950025, 0.1692961032682915, 0.16707140806379617, 0.1648636686100727, 0.1627348042478765, 0.16067003979958597, 0.15869922496344888, 0.15682873795712446, 0.15500753126260494, 0.15326327523279848, 0.15160479169252544, 0.15001113168780725, 0.14849283798887183, 0.14704910902931506, 0.14567914159499631, 0.1442774115878561, 0.14306578107858725, 0.14201003377194338, 0.140917873505192, 0.13989614786557825, 0.13897248437376206, 0.13808521597510112, 0.13722909213420378, 0.1364839035033714, 0.13580345733580962, 0.13506315694654816, 0.13452529777848374, 0.13411403822036647, 0.13367763538834954, 0.13330045593922316, 0.13306264456005742, 0.13279131113467904, 0.13244799953879516, 0.13231455063912329, 0.13223183499662103, 0.13224703655399667, 0.13225842384049533, 0.1323502367911487, 0.13246067238376943, 0.13262240182116267, 0.13275790998459583, 0.13302778962901401, 0.1333358711724392, 0.13369154314738238, 0.13408837041195362, 0.13462547607639042, 0.13508940865201424, 0.13553077901373134, 0.13608947739260657, 0.1366849414171628, 0.13735407527231047, 0.13801470923356854, 0.1387296965410134, 0.13945701063871782, 0.14021764946038084, 0.14105756265599845, 0.14187392438118507, 0.1425834120261682, 0.14347762627219685, 0.14439148297293034, 0.1455099485530056, 0.14643753937866522, 0.14714069777362324, 0.14815350623337808, 0.1491754071723352, 0.15030627504828342, 0.15133333050544687, 0.15236490383767798, 0.15341996365371105, 0.15448597397028022, 0.15551413195541305, 0.15660443879434205, 0.15781838052923125, 0.15890207243556662, 0.15999533904192256, 0.16102488528691458, 0.1621407180242174, 0.16323286279207638, 0.16435082707213233, 0.16552723685739956, 0.16662958936964156, 0.1677301101025664, 0.1689177675982399, 0.16999882652934292, 0.17104553147719123, 0.17212666179420494, 0.17320087163600575, 0.17418568385604086, 0.17525167968738817, 0.1762493928665245, 0.1772894560544475, 0.17830922448543127, 0.17928457241110748, 0.18026571272087402, 0.1812478452439597, 0.1821800452065582, 0.18309007032259797, 0.18393920309321193, 0.1848077485378467, 0.18568330370531458, 0.18649461317419902, 0.18728062172666107, 0.1879834410886615, 0.18872375554695808, 0.18945228250988574, 0.1901282200937574, 0.19077371523097753, 0.19145960000650522, 0.1920334668078416, 0.1925029929390825, 0.1930289437287467, 0.19352014449340796, 0.1940237559026039, 0.19443810853206517, 0.19487614458060917, 0.19521555155713294, 0.19552306673304212, 0.19580698597564156, 0.1960459421060851, 0.1962120829768468, 0.19638536084826103, 0.19651981557232848, 0.1966434676041184, 0.19669508978373193, 0.1966413585351852, 0.19662332577260272, 0.19656160259670138, 0.19649427910282077, 0.1963403845032164, 0.19617350429545855, 0.19593259536286478, 0.1956511543840208, 0.1952525534869559, 0.1948983309217857, 0.19459327513043023, 0.194135274781795, 0.19363720315130076, 0.19307477334982465, 0.19249818557499915, 0.1918504029792115, 0.1911920817798809, 0.19048941619927873, 0.18983783895918308, 0.18903516226545955, 0.18815137699040574, 0.18727707569703866, 0.18636120357122452, 0.18539904747908495, 0.18440082297726781, 0.18347527665548077, 0.1823797095657824, 0.18124946740330444, 0.1800696394254323, 0.17887010479911603, 0.17762886456968732, 0.176355923833094, 0.17504563371597534, 0.17363622197367234, 0.17225945039769924, 0.17081859466675559, 0.1693650720930315, 0.1678715429096623, 0.1664484759198686, 0.16486404020428014, 0.1631962822605577, 0.16155658120821642, 0.15988315341422626, 0.1581909164343953, 0.156450167506582, 0.1547355960045485, 0.15292633378788492, 0.15109055158329723, 0.14927128549126778, 0.1473777248893411, 0.14558464837103682, 0.14362898539763477, 0.14165728459103155, 0.13951653282423013, 0.13753013548249154, 0.13564143356886446, 0.1335883704172878, 0.13151840383050054, 0.12955540735876975, 0.12743646323014884, 0.1252368795970597, 0.12310794387328446, 0.12096490201686538, 0.11889863683791763, 0.11671738572724295, 0.11445257644374243, 0.1122661454779319, 0.11006818388483657, 0.1078929189039908, 0.10567045960913565, 0.10354117037156504, 0.1012932747139911, 0.09904582141489367, 0.09674655028895963, 0.09450704756120938, 0.09229909812142785, 0.09005277361555095, 0.08780845144673859, 0.0857096814078328, 0.08345364267625403, 0.08118629078705279, 0.07895803126484281, 0.07674070789367853, 0.07452514970197444, 0.07233207548009236, 0.07019841393606518, 0.06802371198876737, 0.06586509725443561, 0.06376117195089921, 0.06163159149381722, 0.05953638594263709, 0.0574456843685958, 0.055376974371915307, 0.053449833290708904, 0.05141189891437696, 0.04928089647551112, 0.04731986420328711, 0.04538251079936522, 0.0435224079431844, 0.04162944918754808, 0.03978583457430274, 0.03795190838228754, 0.03615107259884382, 0.03442218732167698, 0.032685119798458326, 0.030895352556466884, 0.02924582024546425, 0.02763027181304797, 0.026107311043613895, 0.024556926700192473, 0.02312899314883117, 0.021652358860093604, 0.020223650590109464, 0.018847931198518884, 0.01751547524167792, 0.016256188529618906, 0.015019973441762587, 0.013835550319914175, 0.012641482271446425, 0.011569862861792847, 0.010571891429958962, 0.009598084765171027, 0.008677694239173998, 0.007835416305956577, 0.007021543904782296, 0.0062746421480093205, 0.0055751753097218505, 0.004935127074380608, 0.0043123219714219126, 0.0037985365928591653, 0.0034485256190054476, 0.003040666221822752, 0.002699808519025721, 0.0024356114193875007, 0.002228041184008968, 0.002031507162950378, 0.001967713907071891, 0.001969414743459124, 0.0021183315155793286, 0.0022431829932656852, 0.0024737444237609247, 0.002739260192721925, 0.0030792872216560845, 0.003431885583236612, 0.003928650538249895, 0.0045060078510354065, 0.00514434901272044, 0.005855552429197455, 0.006616347153552261, 0.007477861429027055, 0.008407701160883359, 0.009416676528960876, 0.010499809072698584, 0.011629190523803972, 0.012866159457511682, 0.014210830472767168, 0.015593111058949742, 0.01699121614108152, 0.018537086445241376, 0.020157880773872542, 0.021906762063317015, 0.02367310922964268, 0.02548615449245267, 0.02741688583446939, 0.029426019446329273, 0.03144728349319298, 0.03362269327785378, 0.03596414604922847, 0.038280083761774136, 0.04067809517599559, 0.04304375530534477, 0.045619789762454635, 0.04832326765378419, 0.05104356561268627, 0.05384319296128339, 0.056731729147124745, 0.05968894053719132, 0.06274508703751751, 0.06585952499037452, 0.06905458108045155, 0.07232036427100522, 0.07567673723743422, 0.07907397307282703, 0.08259272017677241, 0.08618760322954253, 0.0898252442985874, 0.09357637762691613, 0.09738715098278457, 0.10128797560203552, 0.10526193108836605, 0.10937090260873354, 0.11348323416988204, 0.1175624720772089, 0.1218406937469618, 0.12618771449121793, 0.13067508697531852, 0.13515102850544877, 0.13974750744282993, 0.14436257686991524, 0.14905177893493865, 0.1537140131031382, 0.15856072245739566, 0.16343930138210236, 0.1684203479483188, 0.1734641287016841, 0.17861810617016669, 0.18378082873241416, 0.18908441582839214, 0.19436613009344794, 0.19971521262321731, 0.2049969285148098, 0.21049327459885694, 0.21611192009963612, 0.22171091256455328, 0.2273687074384651, 0.23302721302748902, 0.23880689954404807, 0.24460589825376292, 0.25049450092737563, 0.25643267525766195, 0.2624818716539565, 0.2685099888741973, 0.27448963883753846, 0.280632194307173, 0.286818260765333, 0.2931664410218797, 0.2994231943350579, 0.3057334026350742, 0.3120853012988691, 0.31848291536968526, 0.3248817993406505, 0.3313714772088358, 0.3377902747249404, 0.3443698232680468, 0.3509794773999822, 0.35766175707661174, 0.3643251246887459, 0.3709482850703997, 0.37768205835927815, 0.3844409584946559, 0.39123398008174226, 0.3980402426549216, 0.40487978512469125, 0.41173145828176766, 0.41860554143596906, 0.42540571734909766, 0.43233324891482133, 0.4393124265075435, 0.4462617921214138, 0.45322576192637115, 0.4602270990930271, 0.4672140941528743, 0.4742422910536938, 0.4812495587442306, 0.48826824772130145, 0.4953109681467104, 0.502345699995879, 0.5092544118629171, 0.5163187649327704, 0.5233794363762144, 0.5304929258767936, 0.5375370469889341, 0.5444642836477112, 0.5515161821727825, 0.5585562584059242, 0.5656220996428828, 0.5726321130402271, 0.579682952887817, 0.5866621389804558, 0.5936303932699872, 0.6004622974705726, 0.6074193634514082, 0.6144345236268159, 0.6213350838325794, 0.6282159974647787, 0.6350948200588713, 0.641929576555279, 0.6486222941048897, 0.6554243669377806, 0.6621934492673834, 0.6688908131731179, 0.6755966828953945, 0.6822889906750389, 0.6889165204198563, 0.6955067017284668, 0.7020299754994519, 0.708546012230482, 0.7150675277320822, 0.7214923822862958, 0.7278758748235027, 0.7341642181843178, 0.7404673198776291, 0.7467979925064122, 0.7529932876182603, 0.7591422173147523, 0.7652097622999067, 0.771265116757658, 0.7772339445791009, 0.7831857893196086, 0.7890799468391335, 0.7948820702724024, 0.8006619578661932, 0.8063600950727025, 0.8120161463465887, 0.8176067286713052, 0.8230882492271887, 0.8285509958843403, 0.8339862968621508, 0.8393025131111652, 0.8445496846576009, 0.8496887039778263, 0.8547995019336535, 0.8598883556881944, 0.8648431778831098, 0.8697250956561328, 0.8744376673357852, 0.8791821048287423, 0.8839445945253084, 0.8885121799358947, 0.8930025941798503, 0.8973764231922818, 0.9017133533834332, 0.906033753383138, 0.9101950339509077, 0.9142751176416982, 0.9181107601738591, 0.922044762451656, 0.9258987624186761, 0.9296425011817493, 0.9332928720055601, 0.9370019959901077, 0.9404457267657029, 0.94375151982163, 0.9470291353552086, 0.9502151939741358, 0.9534229981575664, 0.9564087432786502, 0.9592257622956574, 0.96204440663086, 0.9647674271514651, 0.9672988611910072, 0.969840425830648, 0.9722693581898992, 0.974606045092873, 0.976839320208681, 0.9790549839361011, 0.9810709227416278, 0.9829408906501469, 0.9847654139829035, 0.9864875717745223, 0.9880690886721739, 0.9895907443378015, 0.9910691992354732, 0.9923729995185793, 0.9935754182713414, 0.9946950731231613, 0.9956910998624982, 0.9964762011026527, 0.997282725001367, 0.9979808186715409, 0.9985377080840522, 0.9990247321189896, 0.9995266845288789, 0.9997810697647019, 0.9999491147778036, 1.0, 0.9999502313889611, 0.9998231834046997, 0.9995679042893999, 0.9991884710973786, 0.9987351043221736, 0.9981793636580262, 0.9974688705546332, 0.9967149976948197, 0.9958416359881482, 0.9948797080741919, 0.9938128800220445, 0.992732254302319, 0.9914461720210243, 0.9900812614247098, 0.9885969439315768, 0.9870157296295465, 0.9852042647650461, 0.983445970205813, 0.9816309414687906, 0.9796592188780504, 0.9775882888253224, 0.9754046368093717, 0.9731393966630728, 0.9708050160671349, 0.9683416628036849, 0.9657840018658849, 0.9630422555183885, 0.9603094216092558, 0.9575363864252411, 0.9546031607387729, 0.9515786966854285, 0.9484924455575621, 0.9452845796494925, 0.9419469459021744, 0.938571334046367, 0.9351078220839837, 0.9314813737567115, 0.9278550512098868, 0.9241541875094246, 0.9203501447618736, 0.9164614623446055, 0.912503893327813, 0.9084485045186838, 0.9043516574305571, 0.9001336311709159, 0.8958406980472592, 0.891454747548226, 0.8870172292965555, 0.8825732630179667, 0.877982329233713, 0.8733244269082673, 0.8685954696697521, 0.8638063335716867, 0.8587856234752244, 0.8538885307103468, 0.8489190411665493, 0.8439461812248141, 0.8388305211048589, 0.8336244738595457, 0.8283903097355159, 0.8230957811169932, 0.8177711897355224, 0.8123575105096863, 0.806833069242617, 0.8013207380466427, 0.7957543883163353, 0.7900740230672753, 0.7844130526800225, 0.778809564292673, 0.7730330047026492, 0.7672149842404994, 0.761356685241348, 0.7554593239719392, 0.7494860697653365, 0.743519173682219, 0.7375149119204483, 0.73149872337964, 0.7254216267539518, 0.7193609806806578, 0.7132169850724263, 0.7070473604274571, 0.700810333104489, 0.694598124482347, 0.6883612586850059, 0.6821013147080756, 0.6758198749901283, 0.6694852058021623, 0.6631697459192847, 0.6568737622110161, 0.6505181410801909, 0.6441497399178701, 0.6378128888740707, 0.6314179962478665, 0.6249648749735716, 0.6185660381850651, 0.6121607939681118, 0.6057984310392246, 0.5993794103996765, 0.5928474470341732, 0.5864467266573726, 0.5800434597661759, 0.5736732159556693, 0.5672673065258672, 0.560943372791553, 0.55454120943128, 0.5481525830943093, 0.5416357584937165, 0.5352954890291399, 0.5290544933965544, 0.5227227901707725, 0.5164095431548813, 0.5101018589362032, 0.503831484335247, 0.497468672789856, 0.49125782726578876, 0.4850653193728728, 0.4789125490439083, 0.47276125566226784, 0.4666503365535, 0.4605512636145646, 0.454482675826373, 0.4484461337368964, 0.4424431412887763, 0.436503709476474, 0.43056851245530753, 0.42467268221986204, 0.4188411063062749, 0.41302425515135227, 0.40715138360851366, 0.4014359106388013, 0.3957605091833095, 0.39015067001325315, 0.3845573840346304, 0.379000789022929, 0.3735023714063544, 0.36805206774575866, 0.36269394180272474, 0.3573380719553703, 0.3520743204207063, 0.3468224485879009, 0.3416282212065445, 0.3365444236068225, 0.3314601804872263, 0.3264093418388764, 0.32145273362119214, 0.31655675233891983, 0.31172186067912616, 0.30694854791278314, 0.30220400555215604, 0.2975596117093077, 0.29297650369826816, 0.2884507364647402, 0.28399321727535914, 0.27952291550358255, 0.27520254077733014, 0.2709427612657932, 0.2667306040510981, 0.26259762990786395, 0.258570884309866, 0.25456038517480595, 0.25061780053697713, 0.24680557703851805, 0.24299265629118214, 0.23922413179351873, 0.23556067139351045, 0.23196846179923203, 0.22836679107430663, 0.2249279157194506, 0.22154679836142194, 0.21824448664015442, 0.2150104273833868, 0.21185482836055824, 0.20875803846667101, 0.20566517994374386, 0.20271829799621233, 0.19983886429161596, 0.19712282378812027, 0.1943683669494525, 0.1916124188684345, 0.18901655979800133, 0.18649036077684478, 0.18413401953881425, 0.1817351424149063, 0.17941677932246866, 0.1771680209490593, 0.17499374436713933, 0.17287415107470394, 0.17084899946105672, 0.16895695115005477, 0.16706589961512733, 0.16524849292676042, 0.1634275464786829, 0.16176403603799588, 0.16016698049654035, 0.15863611464163327, 0.1571711333550472, 0.1558954500791007, 0.15454552433181185, 0.1531244948190737, 0.15193456530073762, 0.1508388371183409, 0.14976633374656972, 0.14875625871694104, 0.14775095935148075, 0.1468713296787821, 0.14607778834452315, 0.14530944143732913, 0.14459981240248154, 0.14398642255289387, 0.1433876975582688, 0.14277662675844033, 0.142304045404587, 0.14188453390274366, 0.14153195824327472, 0.1412154671985207, 0.14092283431534772, 0.1407140586035659, 0.14055459384124283, 0.14060093280204897, 0.14051841615064156, 0.14041593107895367, 0.14045340036622303, 0.14053884809459338, 0.1406282296322182, 0.14081144402876, 0.14105568508332478, 0.14131963188522656, 0.1416249282708302, 0.14198003553333768, 0.14236363986223677, 0.14280019639149463, 0.14325817099743018, 0.1437532802092722, 0.1442794786155068, 0.14484561548496852, 0.14535912349483482, 0.1460009783319242, 0.1466686522398599, 0.14734258856261226, 0.14806267335025353, 0.14881047566376676, 0.1495752834755275, 0.15036205491248217, 0.1512747262873898, 0.1520897827230512, 0.1529206456721472, 0.15378577687836292, 0.15467220062749426, 0.15549741567429337, 0.15643194911250233, 0.15735005219334597, 0.15831164229807201, 0.15928208774899846, 0.1602845173811166, 0.16126758786256568, 0.16232052872685476, 0.16331072472577887, 0.1643102953573621, 0.16528911172624622, 0.16630638143908674, 0.16730305499908313, 0.1683285344096556, 0.16935348027731822, 0.17036737984317737, 0.1713894707660907, 0.17253599690825216, 0.17353273054732601, 0.17453069109518324, 0.17545171798247242, 0.176455873986962, 0.17744656585045315, 0.17843285627797076, 0.17940807436759554, 0.1803759927160661, 0.18132551407253744, 0.1822279843206999, 0.18315326444517602, 0.18406097970689236, 0.1850313599108898, 0.18589163428507222, 0.18662253901495907, 0.18746561430478462, 0.18828446384809996, 0.1892072860014342, 0.18996042962802756, 0.19058598352130293, 0.19131526051142894, 0.19201741009918655, 0.19270629303726367, 0.19335109853741086, 0.1939206455235668, 0.19451554740983276, 0.19507891292689714, 0.19561052314396216, 0.1961101151129586, 0.19661070752280113, 0.19704111753539288, 0.19744038927007923, 0.1977602776460359, 0.19810136893360775, 0.19844960217882948, 0.1987136732203482, 0.19894400383953859, 0.19920186824053177, 0.19935510754193497, 0.19944302507177716, 0.1995354485165821, 0.19959204107046077, 0.19965029709115745, 0.1996287034353066, 0.19964319081082346, 0.19954117273363162, 0.19940639657156603, 0.19918531751850208, 0.19898822583585066, 0.19869040673769622, 0.19842305931253443, 0.19811268264823767, 0.19779757846556142, 0.19739698339026307, 0.19694184702534578, 0.1964624186761801, 0.1959417289730766, 0.19545123918967464, 0.19483920490756076, 0.19407115700966487, 0.19339967227261767, 0.19268365475953836, 0.19196660513258523, 0.19115804677880777, 0.1903377776269784, 0.18944527034823466, 0.1885145149896026, 0.18746935636833334, 0.1864717863466369, 0.18546991077523903, 0.18438349652753172, 0.18325827483940577, 0.18219932429633856, 0.1809843418306634, 0.17972802468201535, 0.1784501691957279, 0.17713918827941344, 0.17575209794242042, 0.17437993659689813, 0.17298635083198277, 0.17154142222204824, 0.17006251023769411, 0.16847384017188402, 0.166937778142893, 0.16557891348808548, 0.16394287734913995, 0.16228402452249616, 0.16050645437237546, 0.15881207452906937, 0.15699750978792212, 0.15525562159526565, 0.15348005223986463, 0.15173879189633366, 0.14989143223684287, 0.1481179757720825, 0.14620652908498527, 0.1442759825163331, 0.14225484293584884, 0.1402949602120438, 0.13843103522560737, 0.13641083915657246, 0.13437592278116264, 0.13225001941770875, 0.1301951000660477, 0.12824976752342823, 0.12614160890037393, 0.12402349529619483, 0.12182390876794892, 0.11969469904094515, 0.1176325090130005, 0.11546612134398615, 0.11329211006252435, 0.11115833775938427, 0.10896395978343607, 0.10676097146813725, 0.10455966412834863, 0.10235470200490093, 0.10018936534338363, 0.09797309459648262, 0.09581904489729318, 0.09359598198894788, 0.0913775339954417, 0.08912567284572523, 0.08692156743782566, 0.08475859169518297, 0.08255651921421013, 0.08036118990662404, 0.07816364174282157, 0.07598476024884612, 0.07386160287405484, 0.07169381113836018, 0.06953857664103742, 0.06738217946464492, 0.06525562404628708, 0.06331408901748922, 0.061194083264230655, 0.05907536925317802, 0.05700813381805611, 0.054964009344176834, 0.05299073832184566, 0.050987381259081366, 0.048953500796014515, 0.04701066808382165, 0.0450915857476453, 0.04328751890426871, 0.041407033234526804, 0.039453274608380946, 0.03764913822308395, 0.03587112607099996, 0.034272833135030156, 0.032531631843986136, 0.03080984990703657, 0.02914797440370592, 0.027523621824134807, 0.025889593350021615, 0.024347586117263773, 0.02293706102237906, 0.021456581212557984, 0.020019721534015933, 0.01866003427038902, 0.017306993451588804, 0.016028965033260907, 0.014765425685565051, 0.013550446808475308, 0.012346098301679364, 0.011233598877248509, 0.010201567514228717, 0.009179862476383957, 0.0082086189606847, 0.007288320759605082, 0.006419497799618892, 0.005650316997994252, 0.004880162025013426, 0.004165945384115767, 0.0034793684672747753, 0.002881482548474209, 0.002319848851264413, 0.0018356002606000287, 0.001406875263653971, 0.001020204117234081, 0.0007067417490449998, 0.00045037078742335207, 0.0002519528393283206, 0.00011231201297044115, 1.7955870854551205e-05, 0.0, 0.0001136713926830526, 0.0002079420654568007, 0.0003679921418048745, 0.0005749102385674256, 0.0008693383192477364, 0.0012955776971049085, 0.0017122762138974948, 0.0021985827873033195, 0.0026591031298615763, 0.0032961299131952595, 0.004025557034224898, 0.004787374195821235, 0.005616014648030573, 0.006502333676191579, 0.007466925200714926, 0.008579776098978505, 0.009669199063369098, 0.010831230578336251, 0.012027455709871841, 0.013338560807981329, 0.014743071226392356, 0.016190478381579762, 0.01770901857241687, 0.019289064219604194, 0.020950764251691047, 0.022692296597571462, 0.024493417301011188, 0.026365377609320607, 0.028331886671825908, 0.030342247124932588, 0.03248639052963585, 0.034632450908599594, 0.03685333618108574, 0.03901026030842378, 0.04139607140703336, 0.043827879134087554, 0.04634671840988673, 0.04893053090539663, 0.051617920269049135, 0.05432834014288624, 0.057083356836159824, 0.05993352270627097, 0.06285059781792948, 0.06585843886435974, 0.06890643540575873, 0.07200839361925415, 0.07519437661445752, 0.07844717158924233, 0.0816665856953605, 0.08506489880500866, 0.08863783393861316, 0.09214293513370883, 0.0957156252586458, 0.09929331934407316, 0.10300689616314766, 0.10676820308469484, 0.11060740597686802, 0.11450735854009514, 0.11845357996464961, 0.12247616779330069, 0.12658646713167054, 0.13072348030189998, 0.13492064707848084, 0.13918210528648067, 0.1434970856736263, 0.14786102595418651, 0.15229343770559292, 0.15678231609730608, 0.16140789385825782, 0.1659973963137499, 0.1705743864019774, 0.17528928859164455, 0.18005633371212187, 0.1848652948893193, 0.1897356865329715, 0.19456506416119262, 0.19954504535199383, 0.2045679619071907, 0.20975755091225332, 0.2148505176678378, 0.21993109583168466, 0.22512953938021105, 0.23037138507560825, 0.2356463560998743, 0.24097390716944567, 0.24636100300550803, 0.25176639051177113, 0.2572117847481051, 0.2626105240629828, 0.26814380363701, 0.27371406260454134, 0.2793108580125675, 0.28493940409940977, 0.2906324827341111, 0.2963186341677453, 0.30201278754320876, 0.30776455140619274, 0.3135447631367675, 0.31925738083201893, 0.3251039521284036, 0.33101382007457264, 0.3368957047349106, 0.3427999564879655, 0.34872105106414414, 0.35466828866245426, 0.36064468805982386, 0.3666291271469774, 0.3726319399666792, 0.37861876773185144, 0.3846593963365468, 0.3907656954381406, 0.39682548952771335, 0.4028998082215896, 0.4089730200009415, 0.4150741515470003, 0.4210564750060991, 0.4271920752975266, 0.43332777410673295, 0.4395110017216648, 0.4456402452019444, 0.45169998184727234, 0.4578411360162247, 0.4639783307524298, 0.47012543522244754, 0.4762515682725479, 0.482492002558235, 0.48859289000807354, 0.49469408336064935, 0.500703268736801, 0.5068109531393745, 0.5128513352405802, 0.5189449281845667, 0.5250232076861588, 0.531171304060747, 0.5372064006320475, 0.5431339185758131, 0.5491548366498206, 0.555155154786044, 0.5610914034694253, 0.5670539774167861, 0.5730247760024123, 0.5789324787366827, 0.5848159283454163, 0.5906408994000766, 0.5964772996425297, 0.6022181139328399, 0.6080043096970128, 0.6137562924298395, 0.619521356437186, 0.6251978725717016, 0.6308987377576456, 0.6365015158359976, 0.6420727485727145, 0.6475728716581832, 0.6530814115878457, 0.6585186100652513, 0.6639542514589855, 0.6693954624402759, 0.6747402235462968, 0.6800439868556676, 0.6852721869664351, 0.6904944530440686, 0.6956273463981992, 0.7007610540904453, 0.7058439988349466, 0.7108613193716953, 0.7158427502522346, 0.720751693059339, 0.7256280398480828, 0.7304486354798857, 0.7351796345578433, 0.7398913088504651, 0.7445531510554293, 0.749144520952321, 0.7536762120678847, 0.7581952240673869, 0.7625997011846742, 0.7668786186170352, 0.7711725916050456, 0.7754017529686952, 0.7796179566397009, 0.7837093175633133, 0.7876848097612955, 0.791654734173445, 0.7955561637513936, 0.7994361343462688, 0.8031928411471794, 0.8068724422026369, 0.810494170508027, 0.814045792592484, 0.817531202321527, 0.8209394348996684, 0.8242086602973693, 0.8274797439234095, 0.8306730723423318, 0.8338883549506925, 0.8369127502388263, 0.839792742365109, 0.8426789989488721, 0.8454860067537839, 0.8481276508664526, 0.8507856758007675, 0.853391633724109, 0.8558749122483726, 0.8582750663639452, 0.860572866660185, 0.8628085767246501, 0.8650498688321269, 0.8671043139740315, 0.8690787042279372, 0.8709102480219831, 0.8727296774326493, 0.8745677476941588, 0.8762015522407436, 0.8777546863415315, 0.8790927886701785, 0.8804982809310702, 0.8819031059806006, 0.8831152254416045, 0.8842418069119933, 0.8852489794237358, 0.886207093778362, 0.8870144181106443, 0.887802394476333, 0.8884977193148, 0.8891531303068513, 0.8896576189250541, 0.8900781474422736, 0.8904044215003809, 0.8906419178778099, 0.8908523456586275, 0.8909039812579929, 0.8907937240754524, 0.8906829297595201, 0.8904810340961274, 0.890159667145523, 0.8897797458461006, 0.8892362866317401, 0.8886815317292759, 0.8880314419753029, 0.8873583616057943, 0.8865113250709605, 0.885546986105927, 0.8845262130060749, 0.8834153839714582, 0.8822529723385691, 0.8809583862463283, 0.8796246260772989, 0.8781505349844547, 0.8765924952800999, 0.8748978940527468, 0.8731778950795198, 0.8712848051182438, 0.8694012046768619, 0.8674261797242074, 0.8654607946552572, 0.8632935324585778, 0.8610626120756735, 0.8587276641855421, 0.8563113747042571, 0.8537947725092732, 0.8512184793760738, 0.8485220991829936, 0.8457870142704258, 0.8429686395164642, 0.8400106419790708, 0.837035260318974, 0.8340756823288615, 0.8309205893900733, 0.8276893652556822, 0.8243490169543156, 0.8209707791564065, 0.8174062102868357, 0.8138888615566106, 0.8102900382865706, 0.8066923203266634, 0.8029252078485023, 0.7991239527385684, 0.7952083408633244, 0.7912241772585418, 0.7871386275962837, 0.7830230824378619, 0.778814931475729, 0.7745656892900498, 0.7702481302527857, 0.765825297331175, 0.761379273703979, 0.7569089694622853, 0.7523246920827575, 0.7476784605430903, 0.7429236547329848, 0.738162480140679, 0.7332920509653567, 0.7284149783879338, 0.7234763339368583, 0.7185539872683855, 0.713487631300772, 0.708249903409687, 0.7030947461532434, 0.6978823674404712, 0.6927384337071788, 0.6874015991760256, 0.6818676284672676, 0.6764610734934013, 0.6710025307260464, 0.6656796321873433, 0.6600995320657659, 0.6543169644145627, 0.6486864172414244, 0.6430112286133757, 0.6373979065611215, 0.6316254972541065, 0.6258813722196405, 0.620034713978614, 0.6141595171772839, 0.6082228379700482, 0.6022960131237882, 0.5961926709662305, 0.5902275251897192, 0.5842270760755693, 0.5783363443872337, 0.5722538009935766, 0.5660741747046902, 0.559960198103615, 0.5538226616566623, 0.5477154462646497, 0.5415287140135148, 0.535278262003551, 0.5290663451027793, 0.5228377494202556, 0.5165511247375585, 0.5102990346313491, 0.5040132318078346, 0.49773598206101155, 0.491446491541048, 0.4851561016807736, 0.47884632400190236, 0.4725063105903345, 0.4661882312879954, 0.45986546322037014, 0.4536586790295706, 0.4473164584564559, 0.44099536973588876, 0.43466561348227917, 0.4283447186324162, 0.4219095255326567, 0.4156238683745301, 0.40943257683216644, 0.40314513849946887, 0.3968702295482361, 0.3906040283246948, 0.38435762675791985, 0.3781787532105984, 0.3719571318821397, 0.36575575791155734, 0.3594658249858004, 0.35332086297947224