0.035942268912355406, 0.035644859094220264, 0.03533383128786584, 0.0350905121800327, 0.03486428262281273, 0.034705953740372865, 0.034499865183406815, 0.03424386553140949, 0.034070652803581195, 0.03390356566963918, 0.03366828692154274, 0.03352005347745979, 0.033431519863829764, 0.03327516033329973, 0.033122128015899914, 0.03299882906001784, 0.03284835540220735, 0.032752183202528075, 0.03260370493535512, 0.03246192506917709, 0.032293020002458664, 0.03216754331777471, 0.032062475284736214, 0.031942458786144295, 0.03182735535863001, 0.03160382698927346, 0.031513070186485755, 0.0314278028398321, 0.031334917557750926, 0.031243290217856177, 0.03127049421472759, 0.03116912094117971, 0.03094452780798295, 0.030880093013015853, 0.030817859619095667, 0.030695380384015033, 0.030648218704309817, 0.03074225873977531, 0.03068085442445904, 0.03063069815278581, 0.030554925140910766, 0.03053139262031795, 0.03045657816280697, 0.03045833232394661, 0.030465865858390256, 0.030479847058414396, 0.030500875204952888, 0.030476130109871425, 0.03051955336266815, 0.030568477466966146, 0.030627051568199556, 0.030688905356359753, 0.03078529847164548, 0.030860036631478113, 0.030945141941611704, 0.031127522943028545, 0.031222987014047535, 0.03133756578905105, 0.031463618386776096, 0.0316046129650037, 0.0316834144091872, 0.031862754076427975, 0.032141660800857445, 0.03232903359136397, 0.03253168870252595, 0.03268585659587474, 0.03292593388630532, 0.03315003866301342, 0.03341519374032849, 0.033690131567992825, 0.03407538308683945, 0.03435866074626081, 0.03463868437309484, 0.03495758966511961, 0.035291377605086494, 0.03563326988112813, 0.035997381737533606, 0.036399139652097796, 0.036788961746147694, 0.037147846473883805, 0.037574985702414715, 0.038015124024691795, 0.03851865159666291, 0.03897955343954974, 0.03946066066869874, 0.03995481007980186, 0.04046591219435116, 0.040940584373634334, 0.041492295585460415, 0.041934597025414994, 0.04253035851401448, 0.04313412640881085, 0.04382735938318516, 0.04444113895027512, 0.04510459655624706, 0.04574718864485838, 0.046408688940517605, 0.04711581664239952, 0.04781188927074706, 0.04846848332625443, 0.049213087611364975, 0.04997459381263023, 0.05068002317763437, 0.051485736375947215, 0.05243201710199272, 0.053250276957238774, 0.05409115496773789, 0.05482093063971927, 0.05572297267044935, 0.05658927036970743, 0.05752705736877818, 0.058477941872196945, 0.05949301866351161, 0.06046685736086925, 0.061412743175887644, 0.062430261489003915, 0.06346446030783684, 0.06456261769252289, 0.0656259606017648, 0.06679016405270241, 0.06788502177294899, 0.0690051510332732, 0.07010317876205842, 0.07127776655919434, 0.07247314989583432, 0.07368920716038914, 0.07492582166024757, 0.07614953279662533, 0.07743114486170946, 0.07870110258005311, 0.08002339240006252, 0.08136265497086406, 0.08272590557775719, 0.08409925088176559, 0.08549415093321547, 0.0869036522046273, 0.08833180039649646, 0.08984866976882945, 0.09130536024492572, 0.09279135133626473, 0.09429187015689998, 0.09581426432818327, 0.09724793681155529, 0.09882639949458785, 0.10056245145162909, 0.10215163056190842, 0.10376390010626263, 0.10535840765389712, 0.10701949397082358, 0.10867580845575303, 0.11037669221100536, 0.11209425863956193, 0.11372504850943208, 0.11548880017885631, 0.11738321121295685, 0.11915371056414863, 0.12094286975851044, 0.12267351947097757, 0.12450831555605103, 0.1263861454835931, 0.1282434000709645, 0.13011572387636522, 0.1319929676478131, 0.1338962395904505, 0.13589355956425758, 0.13781461401450174, 0.13975390093809623, 0.14156387110824575, 0.14355578117700202, 0.14567545564284282, 0.1476681228925489, 0.1496761623522456, 0.15161555080744618, 0.15366294975170192, 0.1556758229465843, 0.15774645888921976, 0.15982363028234486, 0.16195102159471908, 0.16403668295832596, 0.16610868860372327, 0.16821640190357498, 0.17033191426643687, 0.17240172781705548, 0.17453911635074848, 0.17674411479915042, 0.17888215103528796, 0.18102822926093975, 0.18312514484799466, 0.18529292939812803, 0.18762742074695954, 0.18978106904195458, 0.19194697483924653, 0.19398023569452014, 0.19618438606511696, 0.198398566299264, 0.200601459830199, 0.20280479565204673, 0.2049883287790195, 0.20719433215265104, 0.20941217336419773, 0.21161330635083833, 0.2138132761055854, 0.21601837171559513, 0.21821400388982068, 0.22040429492553548, 0.2225958314257269, 0.22478415302647914, 0.226985433307705, 0.22916370265114433, 0.23139818189960037, 0.23356056019697563, 0.2357211637985168, 0.23773212681121655, 0.239904399386073, 0.24207679483727274, 0.24422117527691392, 0.24635344511163318, 0.24848354341778436, 0.25059006471291567, 0.252681313834145, 0.2547640568898668, 0.25683398705303495, 0.2590508059401035, 0.2610737289009609, 0.2629382167320835, 0.2649687255444774, 0.2669822423047442, 0.2690919023865552, 0.27105631343276404, 0.2728858462636846, 0.27484161150444425, 0.27677651224322647, 0.2786504160907376, 0.2805482502244686, 0.2825025101789357, 0.2843430665645065, 0.2861645496227715, 0.2879862380511936, 0.2897648710648716, 0.2915034048238306, 0.2932435451699883, 0.2949608231734088, 0.29668797289494586, 0.2983534771074566, 0.29987945837181856, 0.3015132579769053, 0.30311603673861026, 0.30484136084711744, 0.3063631143013084, 0.30775600074504833, 0.30924565522345876, 0.31070469077954743, 0.3120728342831062, 0.31347745537698163, 0.31489729346707607, 0.3162261430035597, 0.3175232443441581, 0.31879488167710207, 0.32002647529233436, 0.3212721936291694, 0.32243229166975607, 0.32356151503727354, 0.32458899488247456, 0.3256628611323234, 0.3268229457624492, 0.32780673725122755, 0.32875998728701505, 0.3296214900646688, 0.33051781179487055, 0.33137364855352375, 0.33219567555669083, 0.3329795512466537, 0.3336415510143492, 0.33435861599322975, 0.33511186253860586, 0.3357314531452814, 0.33631231730194994, 0.3368140130932507, 0.3373212358193468, 0.3377295922902245, 0.33815959984727545, 0.33854416263468073, 0.33892701831263033, 0.3392162948759105, 0.3395735617372774, 0.33976465693538366, 0.33978617407382405, 0.3399207253886142, 0.34000963592845884, 0.34018320687147613, 0.34016508066136925, 0.34003919562161256, 0.33995356203208044, 0.33982456128260735, 0.3396587193596893, 0.33944172830847397, 0.33924139489124655, 0.3389299327601888, 0.33857820844816494, 0.33811894761604216, 0.3376934804837841, 0.3372725368222777, 0.3367499327846498, 0.33618500583457317, 0.3355842055641463, 0.3349331794329535, 0.3340729496288637, 0.33335794562557175, 0.33259089638273664, 0.33178309855849347, 0.3309144426145635, 0.3300044787810386, 0.329039891310032, 0.32802935303652364, 0.32703021615992683, 0.325922532497039, 0.3247472198288006, 0.32356106514567895, 0.32233259625038424, 0.3210821335691038, 0.31976743450735357, 0.31843580607193245, 0.31703774856922096, 0.31560102752347524, 0.31412563618312866, 0.31261161169711504, 0.3110690371845243, 0.3094767566561117, 0.3078467560007584, 0.3062558460480662, 0.3045410804998473, 0.3026366201442203, 0.30087537119990737, 0.2990717102695065, 0.2974101415759616, 0.2955016701446089, 0.293404094265803, 0.29145724268731277, 0.28947140702070906, 0.2875342915182236, 0.2854624770432911, 0.28341277045715896, 0.28127189530002905, 0.27910319039131454, 0.27674311307313443, 0.27453910083426486, 0.27242802951575446, 0.27013479047514743, 0.26781454949514794, 0.2654141897749148, 0.26304747144376167, 0.26059829239736726, 0.25818094395977265, 0.2557331496504347, 0.25329283492946575, 0.25078317782391235, 0.2482887044688465, 0.24572510473165016, 0.24314048123012225, 0.24066534479905782, 0.23802362429565474, 0.23525959501188548, 0.23260677833732496, 0.22993470136158875, 0.22728741115725395, 0.22457343492268073, 0.22188478951287688, 0.21913677892843597, 0.21637718401021588, 0.21345612518015417, 0.2106929842221685, 0.20793732722125802, 0.20513404957358214, 0.20231623786524702, 0.19959184944038627, 0.19673515977819106, 0.1937901491700269, 0.1909343587465521, 0.1880695280642721, 0.185273422686223, 0.18238398220779442, 0.17952960940964863, 0.1766326789294011, 0.17373700688625315, 0.170766085146282, 0.16788328872645464, 0.16506495989708042, 0.16217030462287593, 0.15927920981841898, 0.15652219566914188, 0.1536232151825178, 0.15064325392864555, 0.14778042247741408, 0.14492401890294934, 0.14202463898205042, 0.1391893093455081, 0.1365696608397455, 0.13372006509064166, 0.13089006951285756, 0.12803570865032554, 0.12524874386982274, 0.12256769074597307, 0.11980132546824909, 0.11705645777030217, 0.11421605669789196, 0.11152816479927023, 0.10883806968704371, 0.1061822795053507, 0.10354212132468586, 0.10104882397522925, 0.09842697090272862, 0.09586149427887586, 0.09328861821933332, 0.0907439848875438, 0.08832430418075521, 0.08582403926895536, 0.08327772779177424, 0.0808550772624085, 0.07846112805390103, 0.0762030769665624, 0.07385453956164752, 0.07157230868152702, 0.06929232748021627, 0.06704999226097622, 0.06491511939908992, 0.06273871459668372, 0.060566955128597035, 0.05847743279672778, 0.05642651764306587, 0.054511107613374556, 0.052525832653427466, 0.05058541258408856, 0.048689490888149854, 0.046837863544203356, 0.04504713469655891, 0.043281895163984736, 0.04151865956147055, 0.039849717820804834, 0.03822399783090928, 0.03675884102082945, 0.03520669913496057, 0.033689590225263195, 0.03224271058997369, 0.030846206064878184, 0.029480174088598675, 0.028187346273542472, 0.026964319828388143, 0.025769013827342566, 0.024625583737174564, 0.02359107515019006, 0.022545324853038236, 0.021572465817427396, 0.020637025508627893, 0.01975877948935056, 0.01889769636662637, 0.01813892840397859, 0.017561992506497513, 0.016897909825269637, 0.01629703214686858, 0.015682134191200042, 0.015215914798396513, 0.014800708354830884, 0.014451116009002327, 0.014159674814293208, 0.013960212933923407, 0.013782289472389884, 0.0136791419811746, 0.013622587358989009, 0.01362860197931052, 0.013673951915338307, 0.013808410410378022, 0.014087896416860689, 0.0143354842807455, 0.014650109599934074, 0.014931389430439918, 0.015391793161302986, 0.01605286517953036, 0.016617417925639453, 0.01725167565250815, 0.01802841923993156, 0.01879114637581229, 0.01940610489193281, 0.0203403868782062, 0.021332913441370092, 0.022574857506695502, 0.023662988662053276, 0.024746260048797576, 0.025987013117856686, 0.027290550383493907, 0.028664007815601224, 0.03010348687884224, 0.03171243746412017, 0.03327109330569899, 0.0348050528899225, 0.03651917964760605, 0.03829841716200583, 0.0402196344296552, 0.04211987552129478, 0.04393989648636221, 0.04599828473339853, 0.048117108847728116, 0.05040053184726655, 0.052629396788924095, 0.05484982670906729, 0.05722456846562914, 0.05966258269940654, 0.062194177183453464, 0.0647557592258951, 0.06733296749010304, 0.07003204241942, 0.07279367859803093, 0.07567146320390167, 0.07855209565122241, 0.08146542169047336, 0.08448196248962046, 0.08756188917080346, 0.09071174522975906, 0.0939171864539625, 0.09713254834101187, 0.10047101274143562, 0.10386918087689927, 0.1074872321172209, 0.110984820358051, 0.11444449586110902, 0.11809180437106823, 0.12179927940220446, 0.12556660267363834, 0.12939343408187554, 0.13330275680327267, 0.13724455194573282, 0.14124602693940627, 0.14521987350985427, 0.1493498691297389, 0.15352621877160647, 0.15776321438985735, 0.16205299389068395, 0.1664789298258528, 0.1708636652245941, 0.17522227569733664, 0.1797311653675617, 0.18429089042695587, 0.1890013348590746, 0.19364953590138986, 0.19829349403690635, 0.2030597146149816, 0.20787612652591383, 0.21264212813911157, 0.2175698826962094, 0.22252381404974664, 0.2275395727577674, 0.23259751912529408, 0.23772110430799143, 0.24286068471244107, 0.2480337553507089, 0.2532612049042613, 0.2585307577705169, 0.26395204539430706, 0.2692905795868818, 0.2746693031838251, 0.280100940898146, 0.2855762161150779, 0.2910471677508078, 0.29661185002558976, 0.3022405517756773, 0.3078757794279007, 0.3135483086725208, 0.319120414371091, 0.3248818595038722, 0.330786709443159, 0.336586916571229, 0.34242053103238307, 0.34822649833696095, 0.3541314483617825, 0.36001003781468127, 0.3659752199939163, 0.3719633391645345, 0.3779208633729528, 0.38396098346245483, 0.3900902768383669, 0.39615982168385366, 0.40225230637427295, 0.40826021478855046, 0.4144096362010769, 0.42054683666222675, 0.4267285205873072, 0.43292298495960485, 0.4392602333320302, 0.4454635211722623, 0.4515362825569025, 0.4577961759484951, 0.46406432495505595, 0.4705139676948805, 0.47677606695937247, 0.4829652564246738, 0.4892711192302073, 0.49558538552174386, 0.5018837256041073, 0.5082147781630353, 0.5144565499960188, 0.520806761584327, 0.5271541233669469, 0.5334751454208069, 0.5398192022545701, 0.5461950008044817, 0.5525242587287741, 0.5588499697831525, 0.5652447228867935, 0.5715516835249966, 0.5777867113917213, 0.5840972279467318, 0.5903989621790348, 0.5966677164646238, 0.6029522417342412, 0.6091573179718003, 0.6154240142757851, 0.621672655278574, 0.6279696301560138, 0.6341727038200249, 0.6403002218226415, 0.6464787102973417, 0.65263606149253, 0.6587382835827482, 0.6648555840385586, 0.6709677754391092, 0.6770317699379815, 0.683070613968147, 0.6890567862139446, 0.6950461355391638, 0.7009728496034905, 0.7069071117193026, 0.7128087046618732, 0.7187504368628521, 0.7245756701964229, 0.730400484990961, 0.7361597218713821, 0.7418875609442843, 0.7474090618712996, 0.7530914955232931, 0.7587983975437734, 0.7643808632865143, 0.7699215911563124, 0.7753997751589802, 0.7808571320445137, 0.7862024432372915, 0.7915768099209511, 0.7969005935646473, 0.8021535193346284, 0.8073777715454279, 0.8125692473764929, 0.8176850334088853, 0.8227483385482314, 0.8277484678057396, 0.8327059570916264, 0.8376548844082556, 0.8424952389104589, 0.8472814597729131, 0.8520257066665812, 0.8566984540599822, 0.8612843223212799, 0.8658459050256619, 0.8703465147822158, 0.8747185335309632, 0.8791028662168976, 0.8834030475233955, 0.8876541549971937, 0.8918360300705777, 0.8959983349317358, 0.9000342767830815, 0.9039358349294249, 0.9078439066248133, 0.9116786992817477, 0.9155565577499908, 0.9192288576730671, 0.9228598281387675, 0.9263912839937731, 0.9298534019618286, 0.933047917282229, 0.9363918035924377, 0.9398278099470913, 0.9429804398396688, 0.9460589284857722, 0.9489652626242119, 0.9519038688305119, 0.9547292238158243, 0.9575048523026574, 0.9601949335624164, 0.9629360822311157, 0.9654373905383956, 0.9677369492176855, 0.9700957891942433, 0.9723667528124885, 0.974633054461878, 0.9767172209420405, 0.9786175778425833, 0.9805459487069486, 0.9824698776723125, 0.9842050015613001, 0.9858538206142184, 0.9873788826689397, 0.9888574769041286, 0.9903055862608743, 0.9915952466307708, 0.9927971317249614, 0.9938137479392185, 0.9948500301120898, 0.9957542832949782, 0.9966047035660628, 0.9973580634936661, 0.997978093382329, 0.9985431453672396, 0.9990001257520393, 0.9993708442585181, 0.9996439266146674, 0.9998965417351187, 0.9999659882303359, 1.0, 0.9998776961408408, 0.9996658230901357, 0.9993369850095938, 0.9989472849744554, 0.9983945995030697, 0.9978275956272021, 0.9971632540084304, 0.9965387072772038, 0.9956635910565889, 0.9945598889347035, 0.993524677158926, 0.9923916891023327, 0.9912248921924256, 0.9898901237482784, 0.988462856394218, 0.9869431016439839, 0.9853309160065464, 0.9836764216480008, 0.981873390721242, 0.9799478111500552, 0.9779704143269375, 0.9759016696739715, 0.9736451218807026, 0.9714067147259212, 0.9692524996823709, 0.9668006987141146, 0.9642653600044032, 0.9614826704414816, 0.9587998314156952, 0.9561735242581917, 0.9532859201932644, 0.950315704023189, 0.947222823008428, 0.944092443940878, 0.9408373943955642, 0.9375433504504316, 0.9341636120600615, 0.9306958297786213, 0.9271480782366333, 0.9234740439963675, 0.919766924599227, 0.915976462696809, 0.9122107317949029, 0.9082441291113779, 0.9040640717066641, 0.8999687898029433, 0.8957931279266959, 0.8915287589199196, 0.887198563395289, 0.8828822954708809, 0.8783900613780719, 0.8738298535025186, 0.8691123731467946, 0.8644298740327812, 0.8597400734716514, 0.8549098366518214, 0.8500156428565153, 0.8450051332838381, 0.8399927934495622, 0.8349232455689569, 0.8297838116099867, 0.8245838546514969, 0.8192914244210312, 0.813978818254211, 0.8086213130616593, 0.8031921778156701, 0.7977087826341328, 0.7922826322673884, 0.7866811553002837, 0.7809525510289175, 0.7752746392748732, 0.7695494708429246, 0.7638451493870421, 0.7580212610291942, 0.7520513814594375, 0.7461633195673802, 0.7402318397376971, 0.7342588268641771, 0.7282461204997637, 0.7221921851133947, 0.7161058756534202, 0.7099849807087331, 0.703771204703427, 0.6975938943619462, 0.6915838331912443, 0.6853176848074474, 0.6790341307181161, 0.6725634815642362, 0.6662679176974453, 0.6600036555908562, 0.6536522729719809, 0.6472828741869838, 0.6408169698760681, 0.6344262991435236, 0.6281078048371374, 0.621672216479655, 0.6152281280716198, 0.6087335084765098, 0.6022818918377353, 0.5957600197420007, 0.5893043660572305, 0.5828417159965628, 0.5764909887961865, 0.5700061055065949, 0.5634904501421333, 0.5570230599593426, 0.5505616419377468, 0.5440609385161838, 0.537621664238478, 0.5311366926306166, 0.5247213047555154, 0.5183141787334948, 0.5120708808502582, 0.5056672855852388, 0.4992401039157402, 0.49288929775580465, 0.48656042477994194, 0.48015465948148445, 0.47388598031811124, 0.4676340004166879, 0.4614078858779073, 0.45520567921328664, 0.44899596342265136, 0.4428515039967335, 0.43689805138793814, 0.4307901144087313, 0.42472281896440744, 0.41853658219146406, 0.4125723585528317, 0.40664817014483423, 0.40075183276495374, 0.39489312963434, 0.3891938626662462, 0.38340041377094175, 0.37766968785488186, 0.37197388224414213, 0.3663293911924109, 0.36061005391330847, 0.35508595851368047, 0.3495979104469951, 0.34416891154253515, 0.3387887677155275, 0.3334491068499388, 0.3281727461339395, 0.32303602081782046, 0.3178560217536202, 0.31273666652966603, 0.3076885707792532, 0.30269108835217784, 0.2977133380678711, 0.2928480764547497, 0.2880446223119198, 0.28339729755286397, 0.2787084586148737, 0.2739393391164288, 0.26940914290168255, 0.2649405629035496, 0.26055502215524823, 0.25621128126463, 0.2519142029605848, 0.24770729230845168, 0.24356777913605626, 0.23950999313084823, 0.23550648095438656, 0.2316872397068527, 0.22781182845987016, 0.22401494301976857, 0.22017618288609223, 0.21655055493216385, 0.21302254563307682, 0.20953621783209303, 0.20612383626594158, 0.20271246316076405, 0.19945849307185695, 0.19639556516834217, 0.19326928846537017, 0.19022241787088248, 0.18713795082735016, 0.184263822704869, 0.1815317969773219, 0.17879366831554122, 0.17620622523556725, 0.17361340490863836, 0.17110189201532852, 0.16858763004972344, 0.1662472669775089, 0.1640283093704536, 0.16183159614382248, 0.1597124029598635, 0.15758366409493607, 0.15562939142742904, 0.15384006003084483, 0.15201743870920512, 0.15027217943426824, 0.1485336427281912, 0.14695014845975626, 0.145471638752543, 0.1440271777102951, 0.14265611004186352, 0.14128798028811634, 0.14007125381103006, 0.13899933631234485, 0.13790918495167104, 0.13689146378932027, 0.13595876730293258, 0.1350819796718714, 0.1342961266244872, 0.1335577872773491, 0.1328897543633628, 0.13219428982181203, 0.131676032347123, 0.13124630197137438, 0.13084816413641065, 0.13051287592983218, 0.13019316218907187, 0.12998766464634934, 0.12989384762170722, 0.12979790073825695, 0.12976248565016402, 0.1297066215572305, 0.12979953415918707, 0.1299455914047722, 0.13014443251947522, 0.1303955985426751, 0.13067519693132035, 0.13103223586695983, 0.1315651277083336, 0.13200381759927218, 0.13249749296742838, 0.13308107148844417, 0.13367484091535548, 0.13420047112241731, 0.1349113437892669, 0.13566366144622335, 0.1365133241292233, 0.13733893101448788, 0.13825664559884399, 0.13915869547050064, 0.14010284613887913, 0.14094725646847828, 0.14198804285373612, 0.14323465534934063, 0.14431076716259292, 0.1454248071058024, 0.14642795270297387, 0.14763022865229417, 0.148799519336125, 0.15005573117675197, 0.15133110161707677, 0.15270533284455132, 0.15400778197237966, 0.15524583196452357, 0.15660255823349503, 0.15797412149411685, 0.15955332825308005, 0.160928180281055, 0.1622665977858608, 0.163693815071311, 0.16513656785928787, 0.16648312890891542, 0.16796588087190453, 0.16951312513496852, 0.17099655805220654, 0.17248643268354766, 0.17398480528666868, 0.1754833093041242, 0.17698128251574793, 0.1784845235179147, 0.17998780528375433, 0.18141984953881166, 0.18292833305315442, 0.1844525503049242, 0.1859421999197932, 0.1874241637691488, 0.18889747699721046, 0.19036115120144362, 0.1917708257255369, 0.19321766356529907, 0.19464936128542046, 0.19606522171517565, 0.19746449806471145, 0.19886307500236705, 0.20022467036829467, 0.20156814626340816, 0.20291583154031384, 0.20421706902126768, 0.20548844125257298, 0.20675001857805003, 0.20798879476363696, 0.20931375243650313, 0.21048983100464203, 0.21161946338742466, 0.2127574879474041, 0.21387059489761345, 0.21501738606279774, 0.21606887885282122, 0.21707145536283504, 0.21807308729746167, 0.2190446313362011, 0.21998152135828883, 0.2208897035556539, 0.22162077117641893, 0.22247868403380477, 0.22329296441949145, 0.22415396271018548, 0.22487043638409537, 0.22545896779643573, 0.2261103743448432, 0.2267175603284781, 0.22729733464360485, 0.22781431398318117, 0.22829157098273203, 0.22872185404153286, 0.22910892405178543, 0.2295359245737344, 0.22982533664842858, 0.22997546366600918, 0.23019812912046958, 0.2303741923269453, 0.23057706980771012, 0.23065077720365582, 0.2305987066586336, 0.23059753731856647, 0.23054813625894674, 0.23051071595032172, 0.23035779064010234, 0.2301004535555056, 0.2298659824070851, 0.22958307272803788, 0.22941533909521974, 0.2290155001971976, 0.22839022375619733, 0.22793548079494688, 0.22742944485608163, 0.2270428551109478, 0.22641466675398686, 0.22562318282382124, 0.22492994286186216, 0.2241883320767972, 0.22349881320980175, 0.22264905952380434, 0.22176112364084502, 0.22082751872911346, 0.21985189451216366, 0.21879734114470747, 0.2177417261576624, 0.2166549554334406, 0.21550898192058654, 0.21431993261709917, 0.2129747010753906, 0.21171471241155437, 0.2104262538964546, 0.20906808839056545, 0.20766511036863577, 0.20619164387066302, 0.2047053804824216, 0.20329575029277408, 0.20170857602375056, 0.20008688508797073, 0.19841071492351933, 0.19672274001646536, 0.19491946370627924, 0.19317150705941982, 0.19138469607388, 0.18960353985065498, 0.18773696557487723, 0.18589734424709548, 0.1839577291773498, 0.18198981797379984, 0.17995383813969407, 0.1779352056374237, 0.17602037950323407, 0.17392648301645686, 0.17181205511928757, 0.1696434873263745, 0.1674915824019653, 0.16532026494527585, 0.16312286115180522, 0.16090381051445657, 0.15861363038780685, 0.15635929670642507, 0.1541090001772621, 0.15180713273468086, 0.14959641320771086, 0.14724373335663654, 0.14488016201823783, 0.14245240854686467, 0.1400741290871365, 0.13774589859502748, 0.13533382661446605, 0.13291372595283632, 0.13051268480982853, 0.128074476175283, 0.12559121795218564, 0.12314845198618808, 0.12069939298144247, 0.11826499115722122, 0.1158036719805362, 0.11343680763798775, 0.11095961349286237, 0.10848735690263825, 0.10595683488901177, 0.10350306578132037, 0.10107485926479888, 0.09862357862935303, 0.09617785499635373, 0.093815246462594, 0.0913735488485481, 0.08888103197558758, 0.08647276906911013, 0.08407426846140767, 0.08179327789773848, 0.07940392248747657, 0.0770267847124115, 0.07467625192278056, 0.0723447515051541, 0.07016280700526072, 0.06785440238354558, 0.0654538986394247, 0.06321620967340291, 0.060999172801297144, 0.05883039955129522, 0.05665411437654671, 0.05465623986818787, 0.05251134629734287, 0.05040164541715623, 0.048243367448539624, 0.04621357147889578, 0.04423694315665619, 0.04226458344891224, 0.04032487525792077, 0.03853515786495366, 0.036647904089816885, 0.034745156614694135, 0.03294726947777923, 0.03118714525918459, 0.02955534918191684, 0.02786099437283116, 0.026174498104146047, 0.02457379980142431, 0.023015573851684925, 0.02163366649026244, 0.02014493337829441, 0.01867432407233164, 0.017292269471297785, 0.015959014389609907, 0.014667981896501996, 0.013433539857579327, 0.012234726570600714, 0.011100293433653279, 0.010014902611457764, 0.00911920234262952, 0.008115964668542742, 0.0071681084994597855, 0.006282230787660369, 0.005454038613611936, 0.004720019991603963, 0.004002083741201204, 0.0032869245054490378, 0.002694886790544309, 0.002158826738667259, 0.0018059123249057583, 0.0013671411222730084, 0.0009128178142358412, 0.0006126079609307332, 0.00037147083431134976, 0.00018310144895585878, 6.206715644287458e-05, 8.795817959657534e-07, 0.0, 5.988711454705007e-05, 0.00025102500139362614, 0.0004249404755020408, 0.000711570017576153, 0.0010114922317388552, 0.0013798294623969445, 0.0017528028105271774, 0.0022648148919410757, 0.0028140000110243773, 0.0034574028581749582, 0.004163779409731022, 0.004973655310156295, 0.005802402608709372, 0.006707777651139516, 0.007668575088814194, 0.008696697098317307, 0.009818813166644331, 0.010978191410802132, 0.012246401749666219, 0.013538139161594008, 0.014900543803801616, 0.0163598107744612, 0.017858783464329172, 0.019365272406308094, 0.02101346322424229, 0.022727940487129134, 0.02445542360300943, 0.026309432739502887, 0.028333625923881788, 0.030301534088892617, 0.03233973388614732, 0.0344476814798808, 0.03662487731785929, 0.038820837607016365, 0.041141502801234194, 0.043527316942042045, 0.04584491004975155, 0.048377924947675115, 0.051021933903278485, 0.0536644785730273, 0.05636949746909302, 0.05913058472341713, 0.06196210497127689, 0.06501968474737983, 0.06795594374533226, 0.07096414426453344, 0.07391954659395493, 0.07708328318210025, 0.0803983297485618, 0.08367314799059046, 0.08701409566540273, 0.09036359374472584, 0.09384135704548653, 0.0973028497370574, 0.10091087246493657, 0.104574399693839, 0.10828369924371845, 0.11206021970106628, 0.11598225611467268, 0.11985842860244257, 0.12379521642696227, 0.12769511116425009, 0.13176298217077131, 0.1358536905247812, 0.14003109026523347, 0.1442596380296342, 0.14857613179127396, 0.1529025836788372, 0.15735900181555915, 0.1617818385792681, 0.16626131375741277, 0.17066290200022072, 0.17526916983638097, 0.1799079901519001, 0.1846077955640537, 0.18935278008923848, 0.1941729433127057, 0.1990043555191533, 0.20388898589000343, 0.20881214091990294, 0.21378115800156308, 0.2188287471703652, 0.2238833330407617, 0.22891030171892435, 0.2340646903547506, 0.23925878397490333, 0.24452224531078406, 0.24979084255172068, 0.25507626087581, 0.2604273863159557, 0.2658158472320378, 0.27129107580803175, 0.27674607920485034, 0.2822727070741314, 0.28779896528775456, 0.2933632356697619, 0.29889418891851893, 0.30453949970985833, 0.3101151146780168, 0.3158331878254788, 0.32157479583011056, 0.32746348975897865, 0.3332369302467562, 0.3388808861186345, 0.34473457233330645, 0.3506075589294554, 0.35656672145136414, 0.3624702793733517, 0.36836034692002834, 0.3743142084531692, 0.380287733167304, 0.3862370847350733, 0.3922539054055557, 0.3982363064967769, 0.4042903578137203, 0.41035651855297817, 0.4165847939770789, 0.42265589541887816, 0.42862694579908195, 0.43475164409496125, 0.4409665332065527, 0.4471009249781316, 0.45324890528757994, 0.4593458511902932, 0.465525265380062, 0.4716042999854831, 0.47780920623569473, 0.48401307798740056, 0.49032941151720283, 0.49651707767018016, 0.5025399350103922, 0.508758468531701, 0.514970395936789, 0.5212493062799426, 0.5274392575316104, 0.5335869176764765, 0.539776593081569, 0.545960132139012, 0.5521303249873399, 0.5583007450149229, 0.564429486581459, 0.5705867924073087, 0.5767325023035205, 0.5830261852026258, 0.5891268828909788, 0.5950998600976887, 0.6012055103966162, 0.6072960451386415, 0.6134273743706287, 0.6194781335934895, 0.625507855987841, 0.6315294071596038, 0.6375336202980123, 0.643519304411809, 0.6494852944820526, 0.655297056651729, 0.6612371240165492, 0.667146653406997, 0.6730122984469583, 0.6788623016444992, 0.684593956230666, 0.6903914224490688, 0.6961518551542698, 0.7020522990523207, 0.7077170509622059, 0.7132550671984624, 0.7188775238712405, 0.7244646089944254, 0.7301223933935216, 0.7356232643443622, 0.7409826356619637, 0.7464328930008931, 0.751842344679169, 0.7572604147566045, 0.7625800896706406, 0.7677331159440983, 0.7729878405805787, 0.7781933024137668, 0.7833927873968887, 0.7884939330766813, 0.7935210551528566, 0.7985301761333027, 0.8034890056091168, 0.8082802686817049, 0.8131515528524319, 0.8181809419754508, 0.8229077486085317, 0.8275884057540039, 0.8321811176926076, 0.8367693002819028, 0.8411673130209066, 0.8456647145708188, 0.8500986684674418, 0.8544758298215475, 0.8587818974172252, 0.863087908942498, 0.8672587830063742, 0.8713690360552637, 0.8753376530025229, 0.8793338584273666, 0.8832487128438365, 0.8871102852323388, 0.8909024391121142, 0.8947882687196439, 0.8984199256867738, 0.9019935531021622, 0.9055002700918894, 0.9089423537482161, 0.9123115545037603, 0.9156205828362954, 0.9187868123170713, 0.9219650228766233, 0.9250673029819043, 0.9281198397352218, 0.9310654031013692, 0.9338683395404861, 0.9366697496678349, 0.9393900590698525, 0.9420257893026084, 0.9445838427073924, 0.9471334132232049, 0.9495182563722895, 0.95182486324316, 0.9539356285586755, 0.9560979103467243, 0.9582029038026306, 0.9601869771173873, 0.962085736749698, 0.9640323814566811, 0.9657430370213048, 0.9672351397909477, 0.9688051863760168, 0.970286324065523, 0.9716518873904999, 0.972958579222948, 0.9743248554875682, 0.9754317311910893, 0.9764567421867583, 0.9773620285821956, 0.9782245305882185, 0.979019917495223, 0.9797050730035138, 0.9803031429103559, 0.9807934909389008, 0.9812181040221784, 0.9814761203762093, 0.9817303588409322, 0.981889868493497, 0.9819050275365743, 0.9818825594402985, 0.9818770076666152, 0.9816479498105086, 0.9813300719979056, 0.9809129923884294, 0.9804176606911882, 0.9797752802028278, 0.9791062571966768, 0.9783434395929891, 0.9775338942872244, 0.9765786991466157, 0.9754500313519084, 0.9743251200352342, 0.9731053565981812, 0.9717747531575481, 0.970369402321893, 0.968856839821496, 0.9672661215581329, 0.965582116699108, 0.9639322598031542, 0.9620477469350286, 0.960039044695515, 0.9579908250383231, 0.955855441674535, 0.9536429920603384, 0.9513323433380189, 0.9489988753971902, 0.9465080053748954, 0.9439348671256601, 0.9412425240287611, 0.9385088383026908, 0.9356403687476614, 0.9327438358414316, 0.9297604876466212, 0.9266278151817843, 0.9234814009963564, 0.9202938492343865, 0.9169672362090517, 0.9135580655421361, 0.9102239382853455, 0.9066324289617655, 0.9029130646844012, 0.8991860118052983, 0.895384006580023, 0.8913506954498905, 0.8874198325023568, 0.883463296471454, 0.8793624004828027, 0.8751859580389716, 0.8710018991859926, 0.8666696153328706, 0.8622258306826932, 0.857763390538702, 0.853231745691007, 0.8486753708103488, 0.8440032098665512, 0.8391909694295612, 0.8344025513900358, 0.8295481084557658, 0.8246425027858515, 0.8196588624759559, 0.8145577378987203, 0.8094610201046752, 0.8043030016846542, 0.7991154830756417, 0.7938363720628067, 0.788542858221557, 0.7831512401010734, 0.777710227487953, 0.7722842415562957, 0.7667396444804984, 0.7610624569705842, 0.7554448001215822, 0.7497309244402409, 0.7440287603624219, 0.7382807039092432, 0.7326120875902901, 0.7267624213238871, 0.7208394395373903, 0.7149290405005565, 0.7089847881971739, 0.7030313132324708, 0.6970202946590227, 0.6910207030296646, 0.6849486296941606, 0.6788526336492259, 0.6726569721630139, 0.6665257834631041, 0.660306113467984, 0.6541344895028599, 0.6479377576149495, 0.6417048462571582, 0.6354663099421051, 0.6292918631501693, 0.6230063850984673, 0.6167105569551578, 0.610405735134495, 0.6040933015507808, 0.5976846208802192, 0.5913725835512578, 0.5850521554692365, 0.5787855472888904, 0.5724472242837382, 0.566066859244786, 0.5597381347128938, 0.5534112827920289, 0.547081484389572, 0.5407647316272014, 0.5345649587374408, 0.5282499451941098, 0.5219515855496236, 0.5155106444239774, 0.5092684181779957, 0.5030566057385669, 0.4968349920383909, 0.4906294669302337, 0.4844053189511932, 0.47824245633247675, 0.4721727073544334, 0.4660421436680204, 0.4599395165087169, 0.45379611535308273, 0.4477621771667273, 0.4419029363066118, 0.43590825495545676, 0.4299534593642535, 0.4238523601236461, 0.41800271512989523, 0.41227777708682795, 0.40648127802415135, 0.4007258000490066, 0.39506599356225447, 0.3893896772308882, 0.3836911830715331, 0.3781202502917192, 0.37259492319929277, 0.3670166130108848, 0.3615994717818257, 0.356316603490489, 0.3509786809519043, 0.3456941828475228, 0.34045425599554013, 0.3352812997447993, 0.33022794520887117, 0.32516061404617486, 0.32015535739079526, 0.3150726926471966, 0.31021106512915975, 0.3054288228227414, 0.3006781094658472, 0.29598818950269745, 0.2914704694109416, 0.2868922117774667, 0.28225469692026894, 0.27783472797504166, 0.27347878880036625, 0.2692082549557505, 0.2649818455615634, 0.26097779878701605, 0.25687084329856796, 0.2528432547073807, 0.24885459519036107, 0.24498964065334647, 0.241154148566494, 0.23744756404502868, 0.23381486986867586, 0.23017661973985903, 0.22670356286505472, 0.22342163253318031, 0.2200766805568213, 0.21681170445234277, 0.21357330528426288, 0.2104749248167513, 0.20745346361225794, 0.20450936175050238, 0.20164301429345657, 0.1987680667786713, 0.19606920048822463, 0.19348416422455664, 0.190928782961221, 0.18845117350231544, 0.1859583142380123, 0.18364904479294408, 0.18147985732384878, 0.17930983111355367, 0.17721859155356637, 0.17522955914841534, 0.17329310926273106, 0.17140678973752213, 0.1696341353377752, 0.16793933782752374, 0.1663022857214334, 0.1647653666233727, 0.16344143243090697, 0.16203963628530157, 0.16072149569737032, 0.1594589993403061, 0.15830762276565374, 0.15710457227122504, 0.15612549537056536, 0.15521570202422882, 0.1543520244738626, 0.15358416282571852, 0.15308122131196006, 0.15242485858447968, 0.15184768032808083, 0.15120120039529147, 0.15079578186300824, 0.15047968356083077, 0.1502029582401121, 0.1499928249240574, 0.14982529302396835, 0.14974931013145246, 0.14971652807031888, 0.1497689080936984, 0.14988214036255157, 0.15016572960741645, 0.1503850456868678, 0.1505628289921629, 0.15092436905568868, 0.15134188989206457, 0.15197145183627003, 0.15247902174406058, 0.15295910670464916, 0.1536010527491348, 0.15429636764936291, 0.1549438092016182, 0.15575491155580812, 0.15665350604400402, 0.15754698883835475, 0.15848610133873675, 0.1595098879721275, 0.1605322324823551, 0.1616260729200102, 0.16273325360648752, 0.1638839018993364, 0.16503636669631874, 0.16627413901577884, 0.16749829384203763, 0.16881396537241147, 0.1701607436565297, 0.17156443492252904, 0.1729673691958168, 0.1743467375720914, 0.17581473015823448, 0.17730695479075043, 0.17887588224313103, 0.18040709343108632, 0.1820226903437735, 0.18359352048287073, 0.1851890620202327, 0.1866939439651816, 0.18834734609987197, 0.1900600058735898, 0.19173174225047607, 0.19341679816766016, 0.19517046478402925, 0.1968707846762667, 0.198543373078849, 0.20027145959909257, 0.20200591086997266, 0.20368526347456797, 0.2054357317512142, 0.2072516059371111, 0.20899013004946446, 0.2107291954787009, 0.21239053915217956, 0.2141357258547776, 0.21595591384388363, 0.2176729534326221, 0.21938451575756004, 0.22108896578152548, 0.22278471236611586, 0.2244435272451523, 0.22612063031813304, 0.22778299932772308, 0.2294294108299895, 0.2310586485205081, 0.23269618300990366, 0.234284085439671, 0.2358493820324695, 0.23739777325238257, 0.23892396376199215, 0.24035329980387998, 0.24184053443830364, 0.2433577104805996, 0.2447765803572963, 0.24616748140495318, 0.2476092819813154, 0.24893065262778502, 0.25006172408032196, 0.25134824441470566, 0.25259535782236664, 0.25384621134211766, 0.2550083413070511, 0.25616602432002517, 0.25724760686310344, 0.258291782365049, 0.2592475182829759, 0.2602202104286081, 0.26125648122248485, 0.26212890939991584, 0.2629631764951679, 0.2637012080168018, 0.26446227353400686, 0.26512145015597277, 0.26579864310957485, 0.26642618845640087, 0.26698727006566514, 0.2675171706541206, 0.2680893475566209, 0.2685051586185913, 0.2688749075138603, 0.26908765077434604, 0.2693765793822416, 0.26972418468482134, 0.2698895594532363, 0.2700069360472874, 0.2700655077672741, 0.27008582636274986, 0.2700554143258006, 0.26997377668339456, 0.2698404757949991, 0.2696017713840345, 0.2693707929783042, 0.2691041698877859, 0.26875954898397375, 0.2683607788613655, 0.2679378945716144, 0.2674271148279266, 0.26685398777342506, 0.2662396264578227, 0.2655720902216341, 0.2648513984493229, 0.26407760717206996, 0.2632107900827507, 0.26233616876983124, 0.26140657928213196, 0.2605525938137334, 0.25949815843534807, 0.25836756344472134, 0.2572240861746439, 0.2560318207448842, 0.2547206845065954, 0.2534396243698659, 0.2521559515213952, 0.25076403428853594, 0.24932375992108333, 0.24772874201392875, 0.2462062787115063, 0.24478066368093684, 0.24313411238097105, 0.2414453462246003, 0.2396610027154727, 0.23789463675930358, 0.2361466979417098, 0.23428315109996506, 0.23237964936481367, 0.2304030832985814, 0.2284246906738107, 0.226432117671785, 0.2243693783931081, 0.2222687996592792, 0.21998757823387632, 0.21783128886178016, 0.21581447053146666, 0.21354900080062292, 0.21125357778004025, 0.20878837359063382, 0.2064515596886726, 0.20424467555601353, 0.20181479821493153, 0.199360688930448, 0.19687919761214356, 0.19437771757252448, 0.19180602619352194, 0.18926393348497544, 0.1866968446245473, 0.18414250986305158, 0.1815240142336203, 0.17892252985386042, 0.17626088474804563, 0.1735833437126596, 0.17083385206195878, 0.16813367789985595, 0.16540322697460252, 0.16267216983188426, 0.15992603691944363, 0.15725961442607994, 0.15447574241755058, 0.1516995640404345, 0.1489033327602164, 0.14610352232940696, 0.1432374351350166, 0.1404405471304168, 0.1378054810628478, 0.13497905359079862, 0.13215981893545323, 0.12940449334723866, 0.12659270676608794, 0.12376514549817046, 0.12097853371468031, 0.1182014850984706, 0.11542452288520987, 0.11266955586749565, 0.10998884428316817, 0.107248546448231, 0.10452454664897635, 0.10186069763008873, 0.09916542188644592, 0.09651070084852079, 0.09385442759204327, 0.09122082080619594, 0.08857036040956837, 0.08598874818524518, 0.08349272315739628, 0.08094865534387809, 0.07843260897261252, 0.07602193543708637, 0.07355426729630114, 0.07116779846609018, 0.06876349783046148, 0.06639695084051157, 0.0640716035562421, 0.06178061975791071, 0.05953165904494242, 0.05731809434006575, 0.055144431914690976, 0.053054645084285056, 0.05095724334126771, 0.048960946398763645, 0.04694566830751248, 0.044979004522212866, 0.043047788936825274, 0.041180679900564704, 0.03936563489686324, 0.0375961564564593, 0.03587684497360198, 0.03414502089652044, 0.032536146560137154, 0.03102274496605976, 0.02950684016727896, 0.028044903218801633, 0.02677450504279744, 0.025405750639103067, 0.02412785606287415, 0.022883837892589715, 0.021705122175458332, 0.020531458460662233, 0.019490391822933405, 0.018507613157814636, 0.017590801658775895, 0.01673662279977497, 0.01596907118381577, 0.01523916461664616, 0.014588506036791366, 0.013989198210005608, 0.013457500535416967, 0.01296712353566224, 0.012575206445141889, 0.012323989479690276, 0.012058111006747134, 0.011864955927689524, 0.01175787597409893, 0.011708567446455613, 0.011712898337500444, 0.011813445239503713, 0.011986615496827948, 0.01224267650415697, 0.0125606237937643, 0.012919211859904224, 0.013389543886167577, 0.01393237940760796, 0.014684912051392838, 0.015356830363047809, 0.015980162443379718, 0.016830733522050785, 0.01775410969688046, 0.01882749471589203, 0.01988824030768488, 0.020937411670422627, 0.022166211588760025, 0.02362800236162658, 0.024982919676362094, 0.026420706137246876, 0.027863757683399677, 0.029474369231474513, 0.031081082841764952, 0.03285406213857935, 0.034698620865809715, 0.036692050577237366, 0.038671747541678465, 0.04080552435416982, 0.04292999162663502, 0.045135564091250496, 0.04732462545030239, 0.04970198993833418, 0.05224589819156356, 0.05475785777771575, 0.05734830583307183, 0.059879733737250085, 0.06264215283056652, 0.06559990830793337, 0.06848397662845844, 0.07144455541486808, 0.07447086389705791, 0.07758343596805739, 0.08071303961756, 0.08397962397866585, 0.0873155558976613, 0.0907974088644745, 0.0942619049467327, 0.0977728431784604, 0.10138606694701155, 0.10506917474802975, 0.10868482997725049, 0.11252316463714887, 0.11647523232997285, 0.12042805112878871, 0.12444505504430131, 0.12859938698088147, 0.13273474962322868, 0.13685418290827941, 0.141133974648849, 0.14547456161971692, 0.149858986098896, 0.1543223539119015, 0.15885453930749552, 0.16343393405951173, 0.1680719665910447, 0.17280477510415523, 0.17755376414661575, 0.1823450060893473, 0.18721299081560777, 0.19213703534025192, 0.19711964503516427, 0.20215288359301384, 0.20713979044942785, 0.21229220460536782, 0.2174909081411846, 0.2227457916986235, 0.22803535954397192, 0.23344115435434448, 0.23881377099404036, 0.2442354683543409, 0.2495883450065163, 0.2551194271403467, 0.2607528928857558, 0.2663538007569651, 0.27199676711564835, 0.27763418745363355, 0.283364400451941, 0.289084548417243, 0.2948933075882151, 0.3007348031006037, 0.30665537792756614, 0.312555313148741, 0.31845927902236953, 0.32443011766059404, 0.33043133457264495, 0.3364454757138294, 0.34250717112425727, 0.34861917893756206, 0.35473109050036766, 0.360869693368851, 0.3669505687948934, 0.3731499365024303, 0.37948485009819005, 0.38570670021605913, 0.39195300906281316, 0.39813221271733, 0.40443429678853343, 0.41081137209002455, 0.4171351192355391, 0.4234757932285347, 0.42970874463345643, 0.43609510730254797, 0.44261446260972775, 0.4489971210493744, 0.4553926121837826, 0.4617594748298545, 0.4681814013656073, 0.4746663945465073, 0.48109289317288034, 0.487526922299549, 0.49393365564701425, 0.5003825802275633, 0.5068128727153297, 0.5132660145825454, 0.5197172846378085, 0.5261224381589192, 0.5325727563357983, 0.5389326837184658, 0.5453789226486875, 0.5518122498029894, 0.5582493295113192, 0.5646545702562062, 0.571040772976015, 0.5774216379315746, 0.5837887221787055, 0.5900680922494557, 0.5964151247271272, 0.6027657146605444, 0.6090700735276362, 0.6153555401852253, 0.6216949225824416, 0.6279315853186996, 0.6340982438369827, 0.6403070295373854, 0.6464935428142946, 0.6525435536504973, 0.6586972924956338, 0.664799770195309, 0.670893529277205, 0.6769547735073204, 0.682950065820464, 0.6889501080743851, 0.6950051848411587, 0.7009236842865912, 0.7068118203047887, 0.7126084749891378, 0.7184401994064811, 0.7243749804243045, 0.7301143801247184, 0.7358233740977017, 0.7414667862705248, 0.7471138029520912, 0.7525599483745609, 0.75815141698687, 0.7636937382980957, 0.769197040458689, 0.7746400506842785, 0.780177889398093, 0.7855053462713675, 0.790791637544697, 0.7959184663671827, 0.801132535438494, 0.8062377121461574, 0.8113541456718066, 0.8164143422921277, 0.8215483208489731, 0.8264793881615358, 0.8312577506261513, 0.8361019044358198, 0.8408883286681337, 0.845626651015633, 0.8502951743329699, 0.8549652928135849, 0.8595087847233186, 0.8639960375284685, 0.8682692182766696, 0.8726605683505715, 0.8770004057069825, 0.881253568716958, 0.8854399522457697, 0.8897062262661065, 0.8937402353461975, 0.897608579154561, 0.9015367355293634, 0.90539716006496, 0.9091694409567126, 0.912895697656746, 0.916581832177844, 0.9201637164897031, 0.9236765027553827