0.021807981965803778, 0.021570105597819064, 0.021369490718916268, 0.021196434575287144, 0.021049175729642634, 0.02085980226493442, 0.020761283611190073, 0.020683826508907193, 0.020606720265257925, 0.020538814261720266, 0.02047760466842621, 0.02042429685794906, 0.020340202054056625, 0.020302148247405557, 0.02026647986787882, 0.020243052824532183, 0.02021072914117276, 0.0201448972526727, 0.02012317766637837, 0.020102601740660125, 0.020124556120186824, 0.02010261957044146, 0.020028203179400687, 0.020023683125275384, 0.020021346321218114, 0.02005175465049881, 0.020052164143780832, 0.02004636481908073, 0.020060595377730094, 0.020080873672303635, 0.020053541885481037, 0.020094199333331713, 0.020119378411002652, 0.020172238222186667, 0.020230051761393662, 0.020301439893968275, 0.02037075976416601, 0.020442363218063916, 0.020528597922694833, 0.020623475582896397, 0.020702122110400623, 0.020819068601194674, 0.020943600420016296, 0.021078674413284936, 0.021223528951844074, 0.02139744660260072, 0.021560931055824892, 0.021681349956638122, 0.021876395716364367, 0.02208092826128754, 0.022303306008177468, 0.02252763806114278, 0.022761358087752856, 0.02300954714505832, 0.023269934789873666, 0.023547267655906937, 0.02383244245228314, 0.024115484426314074, 0.024429497489419708, 0.024756381734947073, 0.025107492070555373, 0.025459611873104155, 0.025827170713244134, 0.026207969397341244, 0.02660346051608484, 0.02697620941121931, 0.027406236929500456, 0.027851459619503062, 0.028307615251860502, 0.02877771876190519, 0.029242233408379125, 0.029743779837902346, 0.030295606801643907, 0.030820622629268192, 0.03136235774616681, 0.0319065325409683, 0.032483785288653935, 0.033071705449235315, 0.03368226559665631, 0.03430914998725099, 0.034923885957951546, 0.035587809817372855, 0.03629038881993115, 0.03698274046232192, 0.03769272918479323, 0.03838962165123495, 0.0391394073811881, 0.03995541741821239, 0.04073235761148001, 0.041529433228523115, 0.04233556836312593, 0.0431742544230863, 0.04401475958190301, 0.04489479835034686, 0.04579358855358789, 0.04667714673995048, 0.0476185668886743, 0.048612942172527186, 0.04958558834921637, 0.05057877693186383, 0.05155396552113428, 0.052593519014855365, 0.053647407946866454, 0.054725462147662655, 0.05582284367769971, 0.056966457017201884, 0.05810025646319594, 0.05927801055231129, 0.06045278919406135, 0.06165078459766229, 0.06282988519030165, 0.06407927179734321, 0.06534257121851351, 0.06663414266639048, 0.067946377108534, 0.06929831514888178, 0.07065023674660632, 0.07201460447387127, 0.0734125799157003, 0.07483241092690643, 0.07628633318975739, 0.07774856524008908, 0.07923463440329048, 0.08074212753893494, 0.0822722860841909, 0.08386149753596202, 0.08543214654604611, 0.08698860060055381, 0.08861272195808972, 0.0902584354356606, 0.0919522591561141, 0.09363778840081448, 0.09531983860947432, 0.0970545499549157, 0.0988103258801223, 0.10059710046550072, 0.10239370041240907, 0.104173170116532, 0.10601760964812149, 0.10788114356920166, 0.10979377007582271, 0.11169216944202635, 0.11360617704122149, 0.115547343616286, 0.11750893358655441, 0.11950183381040443, 0.12150237453431374, 0.12346929557123651, 0.12551744581248117, 0.12758251574287252, 0.12969117755379062, 0.13178713857193108, 0.13392059192992814, 0.13605138343281933, 0.1382015007951468, 0.14033961379281698, 0.14253112587395264, 0.14474459259741687, 0.1469681354134204, 0.14920812869244676, 0.1514499780176363, 0.15372397967197618, 0.15603055958249595, 0.1583319560786051, 0.16064887884071485, 0.16296328189929518, 0.16531238528140907, 0.16768263555846882, 0.17005733924495028, 0.1724453727325335, 0.1748607456209349, 0.17727254498939754, 0.17968964330272166, 0.18212798169416416, 0.18457791099280946, 0.18703236432322118, 0.18950499706057783, 0.19199746617347985, 0.1944882256122462, 0.19698862455817914, 0.19949153149668275, 0.2020105421664843, 0.20453952369248882, 0.207073326398575, 0.2096141053237433, 0.21214922223903143, 0.21470403436511368, 0.21729571844384282, 0.219855734495301, 0.22242155887660875, 0.22494609274696842, 0.22752734764373111, 0.23008768613117112, 0.2326738296411897, 0.23525933868858137, 0.2378628376501973, 0.24044417181074948, 0.24303745201113736, 0.24561638203135977, 0.2481948658290326, 0.25074579963247917, 0.25332498614379323, 0.255890528484837, 0.25846319145213986, 0.26103080369258014, 0.2635885875567195, 0.2661455499279438, 0.2687059866410084, 0.2712483371305775, 0.2738148577604561, 0.2763392106146691, 0.27885742167478045, 0.28134215085190634, 0.283848989305238, 0.28630822729288286, 0.28879920231967343, 0.29127692693674423, 0.2937444485957871, 0.29619440552686405, 0.2986336790451458, 0.301054803606465, 0.3034612535053168, 0.3058459008143104, 0.3082223257503503, 0.31059430833211166, 0.31293550686141264, 0.3152597799976118, 0.31755213418325556, 0.3198424834629328, 0.32209884414841, 0.32435124420852196, 0.32658216563273446, 0.32878013126553085, 0.3309681855876132, 0.33317146253464686, 0.3353073228850461, 0.33742107198989585, 0.339489848434464, 0.34155990155450405, 0.34362426186601613, 0.3456401058989801, 0.3476304185069912, 0.3495812410673333, 0.3515200874251113, 0.3534416619780923, 0.35532192603310764, 0.357173406300426, 0.35900431660905513, 0.3607952488485302, 0.3625317505868306, 0.3642648597800388, 0.36596519778895037, 0.36761908984652364, 0.36925431192151376, 0.3708724406074072, 0.37243556405839434, 0.3739642576666817, 0.3754491967369254, 0.37690870171858454, 0.3783263264449599, 0.3797134311598258, 0.38106309492999746, 0.38238271086592457, 0.38365548697015084, 0.38487917433178054, 0.3860768608835873, 0.3872350802656184, 0.3883634756570701, 0.38944059756336125, 0.39041602544811166, 0.3914209569885794, 0.3923818485213841, 0.3933286741355614, 0.39419808468903283, 0.39502982824509125, 0.3958142769138285, 0.39655642563086224, 0.3972493767618002, 0.39790696578205514, 0.3984901579984416, 0.3990645482213432, 0.39959335632280646, 0.4000733262870829, 0.40051153956736285, 0.4009217659926473, 0.4012664304487473, 0.4015664409184279, 0.40184926614479877, 0.4020560167803698, 0.40220485477820916, 0.4023259718293358, 0.4024020652295896, 0.4023942967427943, 0.4023847585337449, 0.40233974586956295, 0.4022336174607799, 0.4020809319386359, 0.40191159479426947, 0.40166223708611204, 0.4013063337367028, 0.40097529935641957, 0.40059582891235834, 0.40015948136934393, 0.3996854213326513, 0.39920773492392564, 0.3986328269716008, 0.3980133277844562, 0.3972928694294741, 0.3965912933888834, 0.3958983468321649, 0.39509471049033845, 0.3942475043157714, 0.39331805304263995, 0.39238862480526965, 0.39144559194455786, 0.3904212182924505, 0.3893537908842754, 0.38821912895072047, 0.3870690796111959, 0.38587839179978844, 0.3846404178531001, 0.3833594786443346, 0.3820138501388281, 0.38065090568961263, 0.3792857824021815, 0.3778321160003101, 0.3763388117016821, 0.3747696237998079, 0.3732023398967918, 0.3715731249584234, 0.3699272229624574, 0.3682403981708067, 0.36655207652181643, 0.3647807466100435, 0.36293306644796525, 0.3610939950848715, 0.3592168863637974, 0.35731352507562664, 0.35536113059511665, 0.35335910439128, 0.35133858813920055, 0.3492831910366879, 0.34718920544640297, 0.34506672944613587, 0.34295100415757845, 0.34075815948651117, 0.3385359419301035, 0.33624605547839037, 0.3339711476897068, 0.33170017965900267, 0.329361093490192, 0.3269951651585815, 0.3245642046128818, 0.32215095837494145, 0.3197024912979572, 0.3172361173146694, 0.3147435382067481, 0.31224332837074914, 0.30969876738086466, 0.30713603691796143, 0.3045464349229323, 0.3019358879795428, 0.2992840697031461, 0.29663629898345817, 0.29399384657351046, 0.2913035306737484, 0.28859625075518114, 0.2858770559622485, 0.2831371916971574, 0.2803814371456148, 0.2776127762454797, 0.27483055240346943, 0.27205864318215534, 0.2692483917422738, 0.266392575882224, 0.26356690318932874, 0.2607301109674735, 0.25786206865060257, 0.25500827294247286, 0.25219556953679434, 0.24931687996799118, 0.24643328714681578, 0.24352654725204184, 0.24063717094258702, 0.23772585566269994, 0.23483095762217707, 0.23193233149289041, 0.22903529974481177, 0.22613134732015744, 0.2232088870940909, 0.2203063263143049, 0.21740355978609702, 0.21452582954435878, 0.21162234854047737, 0.20871832281893576, 0.20582381040178788, 0.20293424603817667, 0.20004369813851816, 0.19716695866742334, 0.19429577245748886, 0.19143322771464397, 0.18857874483031203, 0.18571315926368306, 0.18287947707662938, 0.18010128744775175, 0.1772807556099042, 0.17447358120421047, 0.1716503477194522, 0.1688749322541192, 0.16615449695177378, 0.16340046417338225, 0.16063334461506246, 0.15791691467078142, 0.15521625589269095, 0.1525286772032212, 0.14986184034533598, 0.1472057972785439, 0.14457526299442114, 0.14196299997481523, 0.13938511913625085, 0.13680934632485503, 0.13424463114051519, 0.1317125773905614, 0.12920187891878618, 0.12674179463117002, 0.12427174937878636, 0.1218129581542127, 0.11939387214813382, 0.11699908133019628, 0.11459251049217502, 0.11225208196585422, 0.1099748334237497, 0.10767684501030653, 0.10540578117927933, 0.10315196133528795, 0.10093679829530436, 0.0987576383435786, 0.09659603031443524, 0.09446276158141294, 0.09232935380738308, 0.09025714437802644, 0.08821240180682519, 0.08619559350373228, 0.08420715160114318, 0.08224084515434998, 0.08031113927273334, 0.07841605619016101, 0.0765442103176222, 0.07470246422101014, 0.0729054357466858, 0.07112280901335515, 0.0693452582063461, 0.06762924346325112, 0.06594346673071545, 0.06429593096577788, 0.06267042283690666, 0.06110391528135231, 0.059537777598083215, 0.05800476657069413, 0.05649478586765767, 0.05502883947088794, 0.05362486563350128, 0.052219374141314966, 0.05084758918320921, 0.04946390473855207, 0.048164375623789356, 0.04691063650439701, 0.04566991196657434, 0.04446058311996148, 0.04328810800169522, 0.04214065883807451, 0.04100257738740622, 0.0399207066612552, 0.038868756222125427, 0.03785447397194871, 0.036861395610760656, 0.03590304263946135, 0.03496988272473485, 0.034066991549078086, 0.03317759157332875, 0.032336712616918104, 0.03157646175057161, 0.03078630275482532, 0.030027518941122423, 0.02923765894103784, 0.028547756469505664, 0.02788632603484429, 0.027248665586786024, 0.026637342144686202, 0.02606772085900599, 0.025506767724890786, 0.025012383606669762, 0.02449965666808395, 0.024015290607310648, 0.02353209870953984, 0.02310583360146997, 0.02271336192444674, 0.022335509893399465, 0.021982347819399475, 0.021622476188859405, 0.02132122645425938, 0.021063654155682416, 0.020802559697155998, 0.020563839230678393, 0.020343734750999914, 0.020148848349561047, 0.020004643511131633, 0.019847252909737313, 0.019711522931541013, 0.019577989095426847, 0.019485938756334385, 0.01939484377158757, 0.019341832862898724, 0.019305531713625958, 0.01929776746697865, 0.01929234698317631, 0.019315433107270973, 0.019340700604750873, 0.019382040951939628, 0.019426717359542607, 0.01950000338274304, 0.019574807420846614, 0.019676517541883827, 0.019790297444735327, 0.019934561961338672, 0.02006898188323274, 0.020223105774267093, 0.020379922823455115, 0.020548023961127784, 0.02070580398400657, 0.020897309266552047, 0.021107074116904455, 0.021313549437656374, 0.02152808334711363, 0.02171923656896342, 0.02195230097765816, 0.022238812738108002, 0.022475144702006063, 0.022718519795629916, 0.022936207781003325, 0.02319568840706086, 0.02346285297935286, 0.023727948664993285, 0.02399583714245706, 0.02423958955319743, 0.024515183827699277, 0.0248096282487843, 0.025082774945132804, 0.02535660614453556, 0.025635135505728338, 0.02590855631226462, 0.026157376928031058, 0.02643284435204966, 0.0267057718169901, 0.02697592039057106, 0.02724303268372181, 0.027507940487921958, 0.027768007688865486, 0.02802424344046738, 0.028309481282541637, 0.028552911223934756, 0.028752524936882764, 0.028994664411074563, 0.029230419768981202, 0.02947505613828729, 0.029695461523335732, 0.0299196464493203, 0.03012610387832346, 0.030326242608950515, 0.030571573967300297, 0.030751263186376106, 0.030889877459840016, 0.03106417232960011, 0.03123031440346131, 0.03137137309987492, 0.03152225873435462, 0.03164758816588309, 0.03178009543369219, 0.031901328009718476, 0.0320819713120231, 0.03217160476305537, 0.03222065292579426, 0.03229897396846087, 0.032366800804008736, 0.032451516147688826, 0.0324941589701737, 0.03251172642672056, 0.03253670957987767, 0.032550456311170296, 0.03259586751080768, 0.03258113798604275, 0.03252503631436783, 0.0324952273039454, 0.03245340437537865, 0.032443667097712334, 0.03237195098231357, 0.03231035168265119, 0.032216176885526096, 0.03211260811201978, 0.03203014067513326, 0.031902611407863234, 0.03174640833365318, 0.03160332427083727, 0.031449421814666624, 0.03131545816930133, 0.031135510556205347, 0.030952706700531216, 0.030752650815250155, 0.030542951810497862, 0.030374213876512596, 0.030138191248750477, 0.029878309405663654, 0.02962934662499673, 0.029405585866426494, 0.029134037365156174, 0.02885511809625098, 0.02860608615794927, 0.028306826985981352, 0.02803034472243282, 0.027715162463538737, 0.02739496540342722, 0.027102470984579696, 0.026766866544629404, 0.026468009039414934, 0.02611855534114679, 0.02576655650439787, 0.025423641434303094, 0.025063567884093613, 0.024754572056876676, 0.02438124765684867, 0.024007452339486625, 0.023644829065116064, 0.023267157264932684, 0.02289629288509217, 0.022515547554859322, 0.02213393608231082, 0.021775670302365678, 0.021389054522348613, 0.021038273469188257, 0.020648095659548584, 0.020260380174311424, 0.019898170577116014, 0.019512068285124785, 0.019141704308534038, 0.018761164061910845, 0.01838484753563573, 0.018096744832313317, 0.017718383650739782, 0.01733046353909523, 0.016972496573908303, 0.01662198016305133, 0.01632199681049456, 0.01598099408662658, 0.015683247729364722, 0.015358161974584443, 0.015044937580704451, 0.01476881738474724, 0.014475705375791492, 0.014195704153734424, 0.013928749677189958, 0.013674883548589763, 0.01345744481383813, 0.01322730813525857, 0.013051981302976304, 0.012847042864275444, 0.012659776412520805, 0.012472493990245456, 0.01232288005999397, 0.01222114420813042, 0.012101893046329604, 0.012002159273588808, 0.011913342478033532, 0.011854545865835403, 0.011830044896494068, 0.011809780320557224, 0.011811259605942164, 0.011849281635663915, 0.011893774320555436, 0.01197438523213162, 0.0120656870390216, 0.012182509515145672, 0.012348447654822067, 0.01251458949622295, 0.012726518961200596, 0.012946948659650603, 0.01319713983345112, 0.013491710594563546, 0.013800422720324725, 0.014122937161094225, 0.014497126265765548, 0.014902410305177513, 0.015364715136996953, 0.01583053003839238, 0.01632161524312246, 0.016857122023385632, 0.017426985866555215, 0.018059320526947305, 0.018695891403341047, 0.01934668070881477, 0.020061338256992217, 0.02081276644879128, 0.02160262956807946, 0.022429139699694515, 0.02330742531002145, 0.024209843097977767, 0.025152624053750114, 0.026128474816554434, 0.027154293267445798, 0.028254538712126735, 0.029359246353138902, 0.0305081358928835, 0.03166499054066497, 0.03290762125949982, 0.03422414186278149, 0.03554936981930744, 0.03692047836086556, 0.038328944824491534, 0.03979389419478596, 0.04129305475785987, 0.042852685864961604, 0.04445882256465677, 0.046118594962000214, 0.047818386668760884, 0.04956097576488416, 0.05135850163977426, 0.05320481077737338, 0.055094790977521825, 0.057040585485637126, 0.059039353625698725, 0.06108445177948403, 0.06318018302456616, 0.06535229644120183, 0.06754706817047053, 0.06976722851017994, 0.07207159788104109, 0.07442759775964715, 0.0768090261957843, 0.07927256833990713, 0.08181033971771665, 0.08437346137748349, 0.08698978961927589, 0.08964625026266634, 0.09237120614565322, 0.09518006566701502, 0.09800727826591923, 0.10088964016803625, 0.10383150337607136, 0.10682340556953454, 0.10982299864345454, 0.1129312203230116, 0.11609179041832193, 0.11931162941291626, 0.12257688291229484, 0.12590442987418307, 0.1292755778036542, 0.13270085260484193, 0.13614818140096685, 0.13968565440969935, 0.14330072342581046, 0.14693951705269573, 0.15063220873679353, 0.15434441334080895, 0.15814881974699743, 0.16201801283818681, 0.1659238874391437, 0.16988216296501227, 0.1738883047525236, 0.17795156561276462, 0.18208422342426278, 0.18624851747010443, 0.19046515777281936, 0.19471609748601698, 0.1990385539707215, 0.20337587523011333, 0.20780299525380025, 0.212277818128478, 0.21683678326578315, 0.22140226829845558, 0.22596421538517497, 0.23063492204240219, 0.23535117151097215, 0.24015708128728933, 0.2449585212048064, 0.24977772081026506, 0.25467750698211084, 0.2596219804047573, 0.2646030210983737, 0.26963665498188527, 0.2747375892957409, 0.279853707965861, 0.2850132970288884, 0.2901957767716603, 0.295442742744205, 0.3007277594221331, 0.306054972922423, 0.3114211890893802, 0.3168490232713445, 0.32228851808089093, 0.32774547983495983, 0.3332637022234307, 0.3388175104947787, 0.3443951764812571, 0.35001949657496995, 0.3556965732195433, 0.36138346285820433, 0.367103006612466, 0.3728344492169744, 0.37861921274278065, 0.3844340050168369, 0.3902757535824053, 0.3961450164243362, 0.40203438205239483, 0.40795714506997627, 0.4139079569983569, 0.4198789801346401, 0.4258733214461441, 0.4318459201281917, 0.4378898811857651, 0.44394872542775615, 0.45002894411338257, 0.45611053108805555, 0.4622257372698086, 0.4683555727240412, 0.4745259367249588, 0.48067975957027, 0.48684435492632566, 0.4930257785546826, 0.4992191002042872, 0.5054001166933361, 0.5116171540070732, 0.5178329002827923, 0.524065293131927, 0.5303029838479607, 0.5365440109847764, 0.5427898298422729, 0.5490061614617892, 0.555260194974843, 0.5615130578825641, 0.5677463240389041, 0.5739967859508656, 0.5802570504621266, 0.5864958197770321, 0.5927292713591947, 0.5989564296499021, 0.6051762882936728, 0.6113447202776765, 0.6175523037730601, 0.6237469998772166, 0.6299391081360167, 0.6361043236465076, 0.6422614823962047, 0.6483954911805485, 0.6545131651503574, 0.6605824615119742, 0.666668050494679, 0.6727012736058726, 0.678747025859677, 0.6847677859025488, 0.6908015071254016, 0.6967651712827778, 0.7026882078348659, 0.7086023185834095, 0.7144880142411036, 0.720316598287956, 0.7261457239365281, 0.7319206300309488, 0.7376850719368339, 0.7434133000342306, 0.7491177896802709, 0.754769514350281, 0.7603556584609796, 0.7659339491581401, 0.7714706886908277, 0.7769617396876861, 0.7824132901878597, 0.7877752228279519, 0.7931429769540778, 0.7984620559708325, 0.8037539778592168, 0.8089711049221759, 0.8140869366783164, 0.8192109786101501, 0.8242808696167302, 0.8293082186941956, 0.83426657025147, 0.8391364835019689, 0.8439876359705563, 0.8487799865829267, 0.8534941526699359, 0.8581694270525076, 0.8628038944132163, 0.8673523285206257, 0.8718389223557801, 0.876237415831619, 0.8806009889114587, 0.8849097645820442, 0.8891395702303, 0.8933027668122868, 0.8973941157950157, 0.9014221890415987, 0.9053599343752471, 0.9092511976754972, 0.9130703518301121, 0.9168355496881067, 0.9205061977403363, 0.9240706970565346, 0.9275987119579122, 0.9310502297883114, 0.9343882548109234, 0.937689774695391, 0.940936519117169, 0.9440741658909362, 0.9471324454409727, 0.9500643860162625, 0.9529681042878497, 0.955827929155574, 0.9585590795208974, 0.9612083595582532, 0.9637365043638002, 0.9662251703982117, 0.968670044215461, 0.9709815967761257, 0.9732092160452018, 0.9752959276752903, 0.9773609699216463, 0.9793636566397536, 0.9812475136768463, 0.9830437906606173, 0.9847123627264971, 0.9863374792036252, 0.9878540934810018, 0.9892998049685425, 0.9906536861579766, 0.9919710859796226, 0.9931345904023414, 0.9941532206511874, 0.9951463820878005, 0.9960470462905231, 0.9968851498592716, 0.9975973358575091, 0.9981869090345334, 0.998721826459776, 0.9991640350934468, 0.9994970823101498, 0.9997563263807038, 0.9999278012302666, 1.0, 0.9999796824977181, 0.9998692299809995, 0.999664113224756, 0.9993527527572604, 0.9989658519236682, 0.9984865908291364, 0.9979406767939142, 0.997274359779889, 0.9965058315659138, 0.9956610303466693, 0.9947257064512125, 0.9936923778887812, 0.992577763526488, 0.9914006316315448, 0.9901026149233625, 0.9887167671581961, 0.9872543171625389, 0.9856919910698898, 0.9840431196798134, 0.982307918106301, 0.9804866509042055, 0.9785608451728298, 0.976570800549937, 0.9744902817443636, 0.9723292765252859, 0.9700831668524401, 0.9677260972580952, 0.9653151373701826, 0.9628229354384544, 0.9602433649852374, 0.9575812578320194, 0.954857380620397, 0.9520303154632459, 0.9491233533023558, 0.9461395615521541, 0.9430783748194044, 0.9399107323214703, 0.9367008686287627, 0.933435313163725, 0.9300704989961103, 0.9266323197433363, 0.9231084069375597, 0.9195278635685004, 0.9158836680020128, 0.9121604196225148, 0.9083683151605937, 0.9044961921950145, 0.9005709019441048, 0.8965636200155527, 0.8925083708675271, 0.8883879918948493, 0.8842424146065744, 0.879990648145093, 0.8756652989401886, 0.8712978315023986, 0.866872211937696, 0.8623862254729202, 0.8578480366151061, 0.8532161823564794, 0.8485740716730178, 0.8438771534140682, 0.8391247218669741, 0.8343229524354229, 0.8295049372734157, 0.82459928623535, 0.8196479345928929, 0.8146376533081381, 0.8096001424194997, 0.8044963840549136, 0.7993770263862017, 0.7942159370062192, 0.789053286469319, 0.7838083144449259, 0.7784994849307555, 0.7731890212630109, 0.7678330582630983, 0.7624565045458696, 0.7570476983335674, 0.7516048123477835, 0.7461363667122697, 0.7406299534120283, 0.7351081895125119, 0.7295607704667066, 0.7240356270556356, 0.718435575725406, 0.712779410114816, 0.7071481090479175, 0.7014983674413938, 0.6958460016166463, 0.6901619057694742, 0.6844622848664926, 0.6787531402925675, 0.6730331654705446, 0.6672749598319733, 0.6615409430620419, 0.6558183603699357, 0.6500664787849385, 0.6443103496377313, 0.6385126433528782, 0.6327569356951999, 0.626994406075519, 0.6212360911680084, 0.6154783577894418, 0.6097625725863448, 0.6040056947564603, 0.5981999188497381, 0.5924662273634855, 0.5867391371831011, 0.5810202637263397, 0.5753111696374558, 0.5696188937429325, 0.5639331570612192, 0.5582619207431729, 0.5526076347502635, 0.5469692644138896, 0.541361557908906, 0.535759921083139, 0.5301799556480633, 0.5246371343605102, 0.5191020113020604, 0.5135661443245989, 0.5080868896380183, 0.5026338564184333, 0.497221489626612, 0.49182275380531715, 0.4864290508098899, 0.4810954278637943, 0.47579282747322266, 0.4705622185957319, 0.4653201689266515, 0.4600805855200131, 0.4549170750632642, 0.44978990724690177, 0.4446791460435054, 0.43963046218347457, 0.4346520709957695, 0.42967697205943584, 0.42474414973665753, 0.4197958285942807, 0.4149573154267392, 0.41018663958091084, 0.4054286323255787, 0.40071580462198697, 0.39602803283300064, 0.39141079471349166, 0.38689089212652783, 0.38236117880242815, 0.3778826467026654, 0.3734181542867539, 0.3690480207622037, 0.36475477215009633, 0.360482753693105, 0.3562640230210815, 0.35208797735478026, 0.34797855062599836, 0.34387448495147965, 0.3398796685638834, 0.3359370883291808, 0.33204096258571264, 0.32820616530879365, 0.3244377200976275, 0.32071048080369063, 0.31703945558151414, 0.3133974965686718, 0.30984377597149715, 0.30639573926660796, 0.3029482245771348, 0.2995605389044483, 0.29624156809308144, 0.29297255457465604, 0.28970431562100113, 0.28656368313568703, 0.2834800471628979, 0.2804681999118454, 0.27749796010090627, 0.2745744644562396, 0.2717236923698258, 0.26893136622389435, 0.2661865943188276, 0.2635129848354281, 0.26090637928302846, 0.25834809740545805, 0.25584866012948443, 0.2534544262671655, 0.25106662770006727, 0.24870025062041212, 0.24643936233744201, 0.24423642015526872, 0.24208131108322423, 0.23999498498357041, 0.2379577228901895, 0.23598580184377568, 0.23406986958947834, 0.2322638928188732, 0.23045252432863453, 0.22868296536147267, 0.2269897392457172, 0.22535254644354374, 0.2237708392953487, 0.2222440689432936, 0.22076394934846683, 0.21934637301351828, 0.21798163361561185, 0.21663055447476576, 0.21537485531230846, 0.21416495563890486, 0.21300766900698484, 0.2118987870427352, 0.2108689378540981, 0.2098519721719804, 0.20884539861156137, 0.20793075880447906, 0.2070616154132588, 0.20624088248334957, 0.20546106340614523, 0.20471895752947222, 0.20402810523948972, 0.20338007567144364, 0.20278645514962218, 0.20222079455310282, 0.2017178264677003, 0.20123214578891596, 0.20078780273160302, 0.20037720855950103, 0.20001351056533745, 0.19964372702501249, 0.19936095946582316, 0.19911205553220782, 0.19889537880722613, 0.19871270160666785, 0.1986029818931918, 0.19847863566466112, 0.19838732740513312, 0.1983213844018098, 0.19829387384095223, 0.1982793618964454, 0.19831213729145303, 0.1983716468643417, 0.19842944946184127, 0.1985434546061997, 0.19872213997798083, 0.19887558678585668, 0.19905277890542067, 0.19923389122198615, 0.19945783890494362, 0.19970912604672322, 0.19997045003592026, 0.20025009402273253, 0.20053939037199595, 0.20085385540063416, 0.20118230847127144, 0.20152623504542136, 0.20188345949302455, 0.20223985851528678, 0.20262276012114647, 0.20299351456433565, 0.2033983488418531, 0.20381034952958454, 0.20423000739154626, 0.20465432653500237, 0.20508062443494285, 0.2055152424164412, 0.20595353302512795, 0.2064334524269496, 0.20687202898347445, 0.20727778410371075, 0.20772718451212877, 0.2081760681168189, 0.20860824489627114, 0.20905587928940841, 0.2095231440237649, 0.20996007790193436, 0.21039348345719225, 0.21083578045164209, 0.2112579442774122, 0.21163726861219684, 0.2120527281242995, 0.21247779246644197, 0.21287195675119655, 0.2132568595145518, 0.21363949848702227, 0.2140026997101669, 0.21436483917719942, 0.214704004338459, 0.21503120944015439, 0.21531249948460468, 0.2156175864647993, 0.21594298476786708, 0.2162107011255713, 0.2164633935348784, 0.21666936271257822, 0.21689367154648723, 0.21711782249307673, 0.21730145620990488, 0.2174663689636403, 0.21760536273270414, 0.2177319874242932, 0.21784450487809057, 0.21792836249518238, 0.21799095839423716, 0.21800971127388963, 0.21803115175046964, 0.21802207412356228, 0.21799633084613826, 0.2179458334926883, 0.2178969050007574, 0.2177929522045008, 0.21768722908851926, 0.2175323228723482, 0.21735397399791476, 0.21713948322367985, 0.2169141992076714, 0.21667655523596513, 0.21639804258581694, 0.2160940556357618, 0.21572555457625384, 0.2153744486452142, 0.21498366256037815, 0.2145767455568082, 0.21414067714409524, 0.21367669280813528, 0.21318255964885177, 0.21265969005008573, 0.21210817234622498, 0.2115280898190061, 0.21095598652327624, 0.2103144039941472, 0.20961228898354567, 0.20892226922223625, 0.20820366668632156, 0.20747651276501858, 0.2066986576219274, 0.2059169720942596, 0.20508210464303483, 0.20422151147730508, 0.20331184205095587, 0.20240233871559973, 0.20149423366558422, 0.20052660713169476, 0.19953361832166422, 0.19848319254925118, 0.19744348127587152, 0.1963921123233423, 0.19529653773619132, 0.19417540059833918, 0.1930068302478663, 0.1918380672429093, 0.19066755351908493, 0.18944405890755622, 0.1881967869617137, 0.18694919935526855, 0.18565223323862545, 0.1843071099469888, 0.1829703537284561, 0.1816107789135565, 0.18024428113936403, 0.17883840067978124, 0.17736325652825752, 0.17592256015637353, 0.17445916874144785, 0.17302025436992327, 0.17150786806524038, 0.16998091597172948, 0.16843266497071024, 0.1668673780649104, 0.16527766200299268, 0.1636803322501703, 0.16206000479016272, 0.1604312546091934, 0.15878673179799863, 0.15709273799286902, 0.1554226715528476, 0.15376089847017083, 0.15205657016001506, 0.1503392465698043, 0.148590733688465, 0.14685156538339628, 0.14512111254477172, 0.14335547368730095, 0.1415801990130935, 0.13979251185459696, 0.13800000572378857, 0.1362103607837837, 0.13440066352893762, 0.1325845654148173, 0.13073493992042434, 0.12891103781808377, 0.12707850336151513, 0.12524278906617728, 0.12340201615642638, 0.12158454402916502, 0.11973234964679058, 0.11788101166811729, 0.11602629590150546, 0.11417129501236133, 0.11229106906874173, 0.11044014706420283, 0.10859891915364833, 0.10674695230339254, 0.10489670373565273, 0.10303883053096523, 0.10119507659129137, 0.09936090421905074, 0.09752288361269403, 0.0956895082269502, 0.0938414750425045, 0.09202165722134184, 0.09023915176925211, 0.0884265463191874, 0.08662243541841165, 0.08478966931553371, 0.08300856367200792, 0.0812517016484798, 0.07948458290394177, 0.077727519195692, 0.07596558913610263, 0.07423222402096383, 0.07255716892279727, 0.07084002857369921, 0.06913760327808, 0.06740148166109641, 0.06573527904186802, 0.06409722385504536, 0.062455083430314064, 0.060827780646633, 0.05921247496127416, 0.0576166763464323, 0.05605680221703981, 0.05449102141647491, 0.052943300764116664, 0.05138628775899439, 0.04987899977203426, 0.04839346972805132, 0.04692080333858767, 0.04546670477741171, 0.04407026436334176, 0.04264964230686957, 0.04124542641149906, 0.03986941497196923, 0.03851514619982774, 0.03715844525695155, 0.035851148127786364, 0.034551399973238237, 0.03328774897299127, 0.03204484698293685, 0.0308032233476059, 0.029605557435185496, 0.02849940184757585, 0.02733486666650612, 0.026196019072255723, 0.02504180317275664, 0.023959013079377263, 0.02287487621612526, 0.021841319092301203, 0.02082980737800209, 0.019868352076130143, 0.018898554934005014, 0.017995372817693436, 0.017069560839604543, 0.016170806092575474, 0.015239128199366033, 0.014401128101639326, 0.013616933849525002, 0.012821010470760782, 0.012050161814569468, 0.011280011363083604, 0.010562181260364017, 0.009874481287776508, 0.009202931998088923, 0.008555462798879282, 0.007971861106678675, 0.007367530133093328, 0.006789482356892773, 0.006237352864518021, 0.00571080005595562, 0.005171933738569202, 0.004700336939220923, 0.00425681725911108, 0.0038296504073997333, 0.003425365893178811, 0.0030328396409982296, 0.0026754743353093026, 0.002348930951358351, 0.002034371930508977, 0.0017488123507651554, 0.0014779894589159446, 0.0012295631322327186, 0.0010353293089927322, 0.0008268937244670692, 0.0006805619359862008, 0.0005135707742312399, 0.00037115342425293453, 0.0002602555679511107, 0.0001636990654154029, 9.989671048481812e-05, 4.700742483834954e-05, 1.614581945516284e-05, 0.0, 1.2033786038248181e-05, 7.143977522888523e-05, 0.0001189767418849726, 0.0001868376671613571, 0.0003119180894787389, 0.00041370482328628467, 0.0005382511323375815, 0.000680008862733746, 0.0008408122938753426, 0.0010044571138022804, 0.0012031603507989337, 0.0014798789690063402, 0.00170257524090173, 0.0019439886962928316, 0.00225956087269326, 0.002528628447844688, 0.0028104409546474926, 0.0031179445827538917, 0.0034422594726673888, 0.0038333272951014546, 0.004182261029123157, 0.004530757931580091, 0.004915337700046269, 0.005314126933443057, 0.005788275234760704, 0.0062055429971988995, 0.0066594984036371955, 0.00710445377255225, 0.007564299496809557, 0.008057915918075333, 0.008542107289488756, 0.009095939423273596, 0.00959869820120306, 0.010116236077422203, 0.010644080940732055, 0.011188255032352608, 0.011795861323783317, 0.012355687393902264, 0.012928456336086656, 0.013517558284135565, 0.014112686227045654, 0.01477240947988204, 0.015380856117653562, 0.01600140307958542, 0.016648513515554474, 0.0172884103808535, 0.017971764412616154, 0.01862728905368361, 0.019293489793166172, 0.019990490685241034, 0.020672892407192823, 0.021400225680587442, 0.022096568642796403, 0.022803102178021742, 0.02353115323350296, 0.024254162843969137, 0.024998048071808367, 0.025736344924265294, 0.026482901334307446, 0.027234966158190915, 0.0279967821627177, 0.02880181834848385, 0.029572239852739764, 0.030350926721907458, 0.031180488881045427, 0.03196888760356719, 0.03274907254305981, 0.033558023447891265, 0.03437431841931004, 0.035234137069912165, 0.03605971912178856, 0.03693379604513248, 0.03777136919574995, 0.03861914684261084, 0.039461078742820475, 0.040329582149377714, 0.04120597838514562, 0.04209008933873222, 0.042981795333540775, 0.04391638749323533, 0.0448186563395352, 0.0457050214412124, 0.04662929646775208, 0.047561267507898464, 0.048560707103365984, 0.04950086884047072, 0.05045689284014433, 0.051419083460658294, 0.05239245029680454, 0.053362448139698725, 0.05435951050775722, 0.05538096536057725, 0.05639638893627738, 0.05742292511698902, 0.058473906813652166, 0.05952125459971123, 0.060565333655184614, 0.06163912097940857, 0.06272444908700438, 0.06381055808590139, 0.06492125377456504, 0.06606037083901203, 0.06719309639299638, 0.06833946519308307, 0.06951525056665618, 0.07068788033537193, 0.07185167842626827, 0.07305856705487607, 0.0742800585930175, 0.07557188211855645, 0.07681703668820491, 0.0780592373913883, 0.07934551270569126, 0.0806498197120723, 0.08199678550593223, 0.08333505895927382, 0.08464402501239594, 0.08602960111197279, 0.08743321115631777, 0.08886214549448235, 0.09030294991282631, 0.091780666880811, 0.09326061232181947, 0.09476294037561792, 0.09630353522856246, 0.09784992781016784, 0.0994009579150984, 0.10099923873862976, 0.10262159282866991, 0.10425196888528464, 0.10592613274005036, 0.10765925743249488, 0.10937915507491257, 0.1111269647810899, 0.11288976644071677, 0.11469611324694193, 0.11651964904780263, 0.11838436434013966, 0.12027768536480478, 0.12220461225134484, 0.12415631373229537, 0.12611094733262046, 0.12812776120370956, 0.13017458863549133, 0.13224662009635724, 0.1343562843311524, 0.13651869076840015, 0.13868985983703971, 0.140895249039846, 0.1431352898646932, 0.14541040670954147, 0.1476989176442348, 0.1500482253994253, 0.15243259918813573, 0.15489239077924447, 0.1573435572686992, 0.15977398766970544, 0.16231073295573503, 0.1648834186893241, 0.1675026684675979, 0.17014796577243596, 0.17283055081268597, 0.17555323653606675, 0.17831515073695514, 0.18110787000437178, 0.18395058105427278, 0.1868398247937961, 0.18976191537899548, 0.19272507354413065, 0.19574948663334765, 0.19879313842920182, 0.20184555251123695, 0.20497964537518093, 0.20815498900259474, 0.21136088797334648, 0.2146211570567733, 0.21795174329470152, 0.22129189833148305, 0.22467589703123794, 0.2280905118043114, 0.23156396287345857, 0.23508832150062903, 0.23864725499049702, 0.2422500024303777, 0.245863423346683, 0.24955800145431936, 0.2533199313897373, 0.25709540502191686, 0.26090803229250137, 0.26477184836248535, 0.26867893416741667, 0.27263256254072904, 0.2766256195350042, 0.2806652526153929, 0.2847442769036541, 0.28886645834693064, 0.2929796648863876, 0.2971941153506329, 0.3014956799898393, 0.3057834975966982, 0.3101138609156952, 0.3144521769550104, 0.31887093401975897, 0.3233314729521497, 0.32782899555373407, 0.3323659692322869, 0.33690461730174515, 0.34152457958662163, 0.3462076628733765, 0.3508974573765528, 0.35562523365623006, 0.36039172788661866, 0.3651941871261677, 0.36998375874987266, 0.37486570004052533, 0.37978070562629057, 0.3847706317190035, 0.3897459844528484, 0.3947119416735958, 0.3997618091482976, 0.4048426225661028, 0.4099595477931053, 0.41510041692655486, 0.4202558179824433, 0.4254580734867946, 0.43068827501702067, 0.43595694210705105, 0.44123999620569593, 0.4465664482246886, 0.4519002902454483, 0.4572603291517682, 0.46263345595085326, 0.4680445526496044, 0.47346169790462195, 0.478919250928191, 0.4843967045950249, 0.4898811101300838, 0.49539748325088745, 0.5009327967077527, 0.5064815541657477, 0.5120455308733216, 0.5176227281256406, 0.5232145690642017, 0.5287911661508469, 0.5344102840579643, 0.5400382524245427, 0.5456687398976213, 0.5513126370959232, 0.5569547717070926, 0.5626106887323675, 0.5682702945191289, 0.5739061446938596, 0.5795736603274609, 0.585249309969665, 0.5909134619674296, 0.5965756751891996, 0.6022117255329485, 0.6078698950717542, 0.6135448512441709, 0.6191863093153883, 0.6248207147978134, 0.6304136905288947, 0.6360344780460232, 0.6416558722114148, 0.6472486648826712, 0.6528274777064409, 0.6583281216417309, 0.6638832958232647, 0.669423898552021, 0.6749350694243597, 0.6804238072405772, 0.6858769924592405, 0.691319449871057, 0.6967280002564371, 0.7021180736960918, 0.7074794552722289, 0.7127856801183886, 0.7180896919991832, 0.723374662858114, 0.7286090771398641, 0.7338088951898076, 0.7389453017720193, 0.7440758178552529, 0.7491587976661161, 0.7542096464497695, 0.7592181311978065, 0.7641610905477167, 0.7690844146655614, 0.7739442584812853, 0.7787748777306206, 0.7835556369076758, 0.7882745443078717, 0.792954103559202, 0.7975658471339993, 0.8021393357336616, 0.8066565557902703, 0.811122085135328, 0.8155231845317071, 0.8198874582837045, 0.824166810092544, 0.8283862501962022, 0.8325212583140843, 0.8366198717418287, 0.8406168942312632, 0.8445887720084871, 0.8484912852366249, 0.852308153796809, 0.8560714241478103, 0.8597663428510021, 0.8633827304198002, 0.8669249969442753, 0.8703734765666016, 0.8737672122977778, 0.8771040697892174, 0.8803386321769046, 0.8834949280323369, 0.8865310876070495, 0.8895330678413619, 0.8924603910744552, 0.8952936302566952, 0.8980425816318945, 0.9006777664977914, 0.9032595181294266, 0.905800615625014, 0.908199495591799, 0.9105117911050908, 0.9127266022329331, 0.9148641538716494, 0.9168919084548188, 0.9188513848591413, 0.9207183121841913, 0.9225053840369113, 0.9241838448298274, 0.9257334645197924, 0.9272287841702679, 0.9286273691512901, 0.9299476942008374, 0.9311494984087165, 0.9322126859790774, 0.9332260709010259, 0.9341395491242476, 0.9349640805841408, 0.9356760614702495, 0.9362851234011966, 0.93679809791271, 0.9372108545725902, 0.9374900704375481, 0.9377060690391688, 0.9378261255379694, 0.9378362679517724, 0.9377444447184723, 0.9375628531414538, 0.9372656889783184, 0.9369159883998393, 0.9364103204453996, 0.935806153187037, 0.9350356900181077, 0.934241936821634, 0.933341618263938, 0.9323421374339526, 0.9312399234303327, 0.9300331406784083, 0.9287268613322299, 0.9273287914519077, 0.9258181818152197, 0.9242071954759019, 0.9225171578921453, 0.9207037778932256, 0.9187524774385304, 0.9167480708941481, 0.9146437899882438, 0.9124590544252196, 0.9101545584012853, 0.9077575785827818, 0.9052592165097186, 0.9026652277503612, 0.8999971288876246, 0.8972108328414006, 0.8942875571719917, 0.8913217400812935, 0.8882616203844296, 0.8850915355355569, 0.8818476459295231, 0.8785433173319834, 0.875111473910508, 0.8715910662192244, 0.8679442162455582, 0.864253987773438, 0.8604931835149959, 0.856625407315635, 0.8526727547780839, 0.8486285316880811, 0.8445102403620244, 0.8403131190519194, 0.8360312671439347, 0.8316819164337551, 0.8272403617129521, 0.8227221318355679, 0.8181039905428308, 0.813438730405141, 0.8087329859935276, 0.8039152682913546, 0.7990274353904139, 0.7940694610369616, 0.7890448122251297, 0.7839500213283581, 0.7787933346535446, 0.7735720611830487, 0.7682554425769371, 0.7629129285244821, 0.7575123791025185, 0.75204600974185, 0.7465206504201155, 0.7409588544791627, 0.7353175356354248, 0.7296009771079105, 0.72385755804857, 0.7180625529534449, 0.7122507167771489, 0.7063531638997644, 0.7003764424045167, 0.694394724742701, 0.6883688703063116, 0.682329279947845, 0.6762165285803796, 0.6700121065142166, 0.6638325695427044, 0.657615338562379, 0.6513766837428331, 0.6450879317103447, 0.6387833801087929, 0.6324318325204883, 0.6260532704973366, 0.6196238341993109, 0.6131991262503903, 0.6067539750419929, 0.6002831084315341, 0.5937922024040768, 0.5872884919754082, 0.5807619249520054, 0.574183148715739, 0.567633676424847, 0.5610707002616494, 0.5545226543418386, 0.5479350188957354, 0.5413652948001746, 0.5347633717514207, 0.5281595711037261, 0.5215486349339427, 0.5149460499790004, 0.5083210705787207, 0.5017268577204834, 0.4951361369258915, 0.4885328986275919, 0.48195638295366106, 0.4754226650893546, 0.4688583005549667, 0.46230680833860605, 0.45574084426296185, 0.449222884720791, 0.4427302862775801, 0.4362435169973282, 0.4297759199170601, 0.42328255917444857, 0.41686357239263294, 0.41046330286663224, 0.4040882374734963, 0.39773748496298766, 0.39140830434324575, 0.3851117138421448, 0.37887720012292114, 0.372635822854817, 0.36642827848488324, 0.3602148637386651, 0.35408368197672724, 0.3479687548141533, 0.3419114933059521, 0.33589109540145995, 0.32992122582169164, 0.32397748079889466, 0.3181120764668934, 0.3122486973096544, 0.3064316432174918, 0.3006341358611138, 0.2949157594603383, 0.28922479709010035, 0.2836045978046588, 0.27803266213843175, 0.27253002637289037, 0.26705549171479853, 0.2616479879925413, 0.2562778083710898, 0.25096275346189917, 0.24566813833016346, 0.24046981488662594, 0.23532551661877302, 0.2302385168604617, 0.22520838341211805, 0.22025142220976937, 0.21533552905838066, 0.21045212024754026, 0.20566051689934473, 0.2009286072857436, 0.19626708834813336, 0.19165551308889903, 0.18708308712573654, 0.1825996747818895, 0.17817832223553615, 0.17386386644640964, 0.16956290411782304, 0.16532270622697012, 0.16115514366390138, 0.15705380192035642, 0.1529658003118714, 0.14900406528254287, 0.1451126355708308, 0.1412779538122374, 0.1375083310705533, 0.1338361637797272, 0.13019361069754987, 0.12657350864700448, 0.12307213245397704, 0.11963583359224715, 0.11631792445725016, 0.11300583594184578, 0.10973040070353547, 0.1065594335937752, 0.10345471846863098, 0.10042503000481978, 0.09745147194393637, 0.09450016701140633, 0.0916648650465815, 0.08889304110996024, 0.0862245492255938, 0.08357481206918921, 0.08095103929933248, 0.07843738796233098, 0.07598637357181208, 0.07361332666566682, 0.07128515879875656, 0.06899781949880696, 0.06679788430610686, 0.06465877298835286, 0.06260228758473425, 0.06058108930240036, 0.05860876530600836, 0.0567105493106473, 0.05487143771294564, 0.05307209626424103, 0.051351889515062185, 0.04972888062615297, 0.04811565133065246, 0.04656002351549072, 0.045046738455813105, 0.04360545045069826, 0.04221054899169998, 0.040877708782334966, 0.03959699566286626, 0.038356620505901794, 0.037179318462010974, 0.03603908644114029, 0.03496105797715802, 0.03393011761956021, 0.032943383647712376, 0.03200484574643036, 0.03111446103224346, 0.030264421892706655, 0.029457857924890377, 0.02871602217215223, 0.027991052528518547, 0.02727725280768618, 0.02663932445935777, 0.026039596171116786, 0.025508174730569263, 0.02497841047711569, 0.024498159823358696, 0.024040420114020907, 0.023618418443538583, 0.023191141429103473, 0.02284196149929439, 0.02251822249326753, 0.022228463570557185, 0.021966574047701453, 0.021770357041243464, 0.02155668082611576, 0.021343843987813676, 0.021186991429627527, 0.02105353814322937, 0.020956857044388065, 0.020865403349189526, 0.02076090369946147, 0.020715069002444315, 0.0206862740729093, 0.020710149155197265, 0.02070829784161276, 0.02069312603587796, 0.020726880831252462, 0.020772003702195146, 0.020829929596918102, 0.02089842512002259, 0.02099976668439853, 0.02108367520777207, 0.021174437115035475, 0.021275615863744886, 0.021383481765738833, 0.021470435915162116, 0.021591805436649743, 0.021740595556385797, 0.02186194463205938, 0.021985074783690838, 0.022063637659930763, 0.022192941497273827, 0.02234050281978027, 0.022458701899717125, 0.022573017283856273, 0.022648338562944736, 0.022756649540126184, 0.022908524804999737, 0.02299296025728454, 0.023070770274383003, 0.0231055552470138, 0.02317149455251809, 0.02320590695949967, 0.02325042133344989, 0.02328084596287757, 0.023346388088188987, 0.023340776430234175, 0.02327916240781243, 0.02325221196692341, 0.023208033583760595, 0.023153814399952625, 0.023072551855118303, 0.022981672461971556, 0.0228617547944982, 0.02272263569805212, 0.022581316079357452, 0.02239954267728471, 0.022186533212156738, 0.021965022155692366, 0.021721218533640837, 0.021443473505328523, 0.021154707792877116, 0.02083798748053696, 0.02049992116450586, 0.020136160350507932, 0.019737476216137816, 0.019322286787597013, 0.01887535085762004, 0.018405782106016056, 0.017908072995353793, 0.017397453376152866, 0.016840791605485177, 0.01623073485202881, 0.015620974134834936, 0.014981128268567134