0.03524074161145691, 0.03504441032074291, 0.034808422538168626, 0.03464780714227148, 0.03449543253898131, 0.03433168184445677, 0.03419456662345932, 0.034043061622275786, 0.0339156176318873, 0.033789977866740185, 0.03376004692112191, 0.03362532483920596, 0.03346487209747829, 0.03334621160345362, 0.033230582340352074, 0.03311993493830322, 0.03300911531747085, 0.03289604467640051, 0.03279033326997635, 0.03268644265119785, 0.032646377583885854, 0.03253826041707167, 0.03237116438194961, 0.032281443003843786, 0.0321926898607144, 0.03205691296712065, 0.03197694710085106, 0.031935046201653425, 0.03184880138404263, 0.031764978553009936, 0.03162177313852197, 0.03155129348158636, 0.03149188500240861, 0.03141982241839176, 0.03134931897175094, 0.03131071322548453, 0.03124092893174444, 0.031148100957954606, 0.031090955602431115, 0.031036994938652893, 0.03100491506802055, 0.030955922536784062, 0.030886737767074696, 0.030851178335324518, 0.030819439313711557, 0.030784905433990418, 0.03076247880355922, 0.030764905906843887, 0.030748475574180967, 0.030737863290095552, 0.030753779585809392, 0.030752294480567655, 0.03077167541588906, 0.030782481337934063, 0.030800902188119077, 0.030785386926692738, 0.03082369600142917, 0.03081395423028605, 0.030868734864907002, 0.030925757863144807, 0.031100497229545124, 0.031149251684233915, 0.03109347697508214, 0.031176930401646222, 0.03126335746703661, 0.031422236162197685, 0.03150751957866209, 0.031536831781141236, 0.03164679749268197, 0.03176122327102586, 0.03194943926242308, 0.03206526782360957, 0.032167568285614484, 0.0323049355402291, 0.03244998757501959, 0.032630295703611395, 0.032787254561424124, 0.03294429759433857, 0.03312077424923446, 0.033241339953941754, 0.03344272336618241, 0.03364882849007571, 0.03389691509003497, 0.034109279394944084, 0.03432750158009842, 0.0345565428691059, 0.03479376372152197, 0.03509898889986105, 0.035345304992455764, 0.03558506037426969, 0.035856947660679823, 0.03613890564957983, 0.03639175364167787, 0.036698437316820015, 0.03704716041209783, 0.03736491364788059, 0.037692693009916844, 0.03792937232770906, 0.038289859920712085, 0.038721231096316214, 0.03908263568730474, 0.039453580444169384, 0.03976525661651916, 0.04016431420130172, 0.04058083573433378, 0.04099103920302897, 0.041409075691237446, 0.04183305578625158, 0.04226822229422066, 0.042732846462336826, 0.04318325416933221, 0.04364414638288114, 0.04416381533534733, 0.044639716588904754, 0.04511055126987641, 0.04561503278471483, 0.04613110273949252, 0.04657821670591838, 0.04712722148308368, 0.047786298107167204, 0.04833616930569896, 0.048899559060913395, 0.04940713217803283, 0.05000506523812014, 0.05061152927567891, 0.051226785308997096, 0.05185105901775832, 0.05250062457973031, 0.053141451544371575, 0.05376972128832451, 0.05443426705300884, 0.055107900187676494, 0.055724156945958905, 0.05642482834525216, 0.057204745571696095, 0.05790820375237536, 0.058622660355751775, 0.0593135118475634, 0.06005388898956044, 0.06084425083973817, 0.061596804878959646, 0.062360553879769416, 0.06312834755919682, 0.06391459666347607, 0.06469943411251011, 0.06550712083320055, 0.06632391361746258, 0.067094613990102, 0.06793638703662085, 0.06884138300898214, 0.06968783206487085, 0.07054394166288995, 0.07134975751002348, 0.07223206848572716, 0.07311773092737281, 0.07401190046962292, 0.07491207571874986, 0.07588276303818235, 0.07678732003573617, 0.07767663573454828, 0.07860398206413567, 0.0795390430280823, 0.08051837117934837, 0.08146360309127898, 0.08240651338427404, 0.0833710254049249, 0.0843430905675473, 0.08525574788937794, 0.08625033709654381, 0.0872431731055621, 0.0882442660999178, 0.08924836824726398, 0.09027862438921613, 0.09128630753941375, 0.09229866108853957, 0.09331553646228283, 0.09433677082004979, 0.09540583610550006, 0.0964297311959363, 0.09742311850056232, 0.09846359928267726, 0.09950718464466049, 0.10050084191075924, 0.1015567201119873, 0.10272239201842617, 0.10376358543568255, 0.10481084448973155, 0.10580594451901704, 0.10687027719005698, 0.10793984503113699, 0.10900471351321873, 0.11007013896199329, 0.11121400258612434, 0.1122699856520305, 0.1131946800659289, 0.1142754284192902, 0.11535115335405276, 0.11653018366237416, 0.11758320907619951, 0.1185738010516306, 0.11963802023384554, 0.12069913403782107, 0.12183514449314899, 0.1228798365348812, 0.12386110496050784, 0.12491493387685589, 0.12596452411675046, 0.12700741642004057, 0.12804831868170571, 0.1290682426455576, 0.13010119764849892, 0.1311279679538277, 0.13222198249117512, 0.13322681272606135, 0.13420398590877006, 0.1352064881695105, 0.13620374162589102, 0.13717462733978517, 0.13816268430645565, 0.13912697305802116, 0.14010145989207015, 0.1410668925988788, 0.1420668054070609, 0.14300824885175067, 0.14393119713967537, 0.14485955079569024, 0.1457792299746745, 0.14665080202553318, 0.14755694250557966, 0.1484901634718155, 0.1493673855322127, 0.15023472549084677, 0.15102056155594068, 0.15187593383186218, 0.15274611078882905, 0.15356779203583693, 0.15437643740957063, 0.15522473317331512, 0.15600015679080284, 0.15677878918180033, 0.15753069716706863, 0.15827159775781516, 0.15890435045990306, 0.15963351431905334, 0.16040645147535731, 0.16109151842913597, 0.16176225401785313, 0.16240221505966387, 0.1630452472845148, 0.16370415968574026, 0.16431036844676097, 0.16490170726512124, 0.16541568941790918, 0.16598377645930762, 0.16656207859778865, 0.1670872097892219, 0.1675945653781016, 0.16801043784745476, 0.16849094827010347, 0.16902937033823193, 0.16945512416118833, 0.16986361228740973, 0.17021768843656543, 0.17059514374197812, 0.17099581301579633, 0.17132685100419462, 0.17163982464153207, 0.17189296865177373, 0.17217382778340795, 0.17251125346108215, 0.17273916124041963, 0.17294990403663069, 0.17308080246952684, 0.17326316249322038, 0.17348743122898513, 0.17361685767226243, 0.17372752396865757, 0.1737362197582808, 0.17381834969279938, 0.173956116908028, 0.1739788583726657, 0.17398192671490895, 0.17393504730253379, 0.17390136310012588, 0.17386821413703665, 0.1737867160112587, 0.17359441537848583, 0.17348162064152184, 0.17334220881218546, 0.17321121137321285, 0.17301586275308475, 0.17278587711665258, 0.17254580175267234, 0.17228216464040205, 0.17206867154240363, 0.1717491792347068, 0.17136023911121592, 0.17100887400648349, 0.17063493396037324, 0.17025228112661622, 0.16983168617957428, 0.1693826397485105, 0.16891977131387304, 0.16843492273008312, 0.16789599585371945, 0.16737145153440466, 0.1668554983494538, 0.16628009377044445, 0.16568359339482627, 0.16512806649998266, 0.1644816777367002, 0.16379257842484152, 0.1631140900070493, 0.16241599153082578, 0.1617005136805128, 0.1609627422110228, 0.160203101434273, 0.15942649420271562, 0.15863025297075267, 0.15778001515424764, 0.15694917475117945, 0.15604428726210565, 0.15517814450591952, 0.15428868572898655, 0.15339741775858826, 0.15246114208142186, 0.15154406859394523, 0.15056364164132402, 0.14956650607984967, 0.14854359835345174, 0.14751460265000096, 0.14648949002286327, 0.1454245491943357, 0.14434448993927393, 0.14324711593731354, 0.1421374406286245, 0.1410174959245526, 0.13987770813370107, 0.13872372635495353, 0.13754885601966976, 0.1363679706274804, 0.1351938340416618, 0.13398279410491223, 0.13275962292578875, 0.13150151384251205, 0.13025751150462075, 0.12906269739939125, 0.12778560959074214, 0.1265000282766747, 0.12514156333584295, 0.12384698773127237, 0.12254028636812465, 0.12122207709743493, 0.11989295906181001, 0.11862702630587976, 0.11726852774349865, 0.11585670674852976, 0.11449409739961908, 0.1131236629527949, 0.11171140091849445, 0.11033104388334401, 0.10894000542282914, 0.10754390898764443, 0.10614074305867394, 0.10475876779654278, 0.10334002734736185, 0.10191775776508342, 0.10049234969984426, 0.09906419934057306, 0.09765438314274505, 0.09621934253000075, 0.09473339783226324, 0.09330426528450608, 0.09187245030149359, 0.09050067722066163, 0.08905772021136908, 0.08759459518515002, 0.08616026692564574, 0.08472772318443932, 0.08326058145617762, 0.08183738241027866, 0.08041275140603846, 0.07899226343137554, 0.07757386030289007, 0.07619724323666112, 0.07477998772434032, 0.07332522225037139, 0.07192601647754904, 0.0705310273573243, 0.06919143317523413, 0.06780037419199855, 0.06644806220749765, 0.06507114397486427, 0.06370511467707109, 0.062349938486192975, 0.061005631831848255, 0.05965617726744097, 0.058335874452831546, 0.05702584921661613, 0.05568275817988599, 0.054399732219813354, 0.05316683340875218, 0.05189681994663787, 0.050639241861867634, 0.049359925100485015, 0.048132438199715535, 0.046925523097285086, 0.04572022565317038, 0.04452796846561884, 0.043395151170400124, 0.0422245132939387, 0.04102027080629338, 0.03988993105786196, 0.03877379833860094, 0.03766548473431219, 0.03658012244891519, 0.035549067365998395, 0.03448976030473281, 0.03344884020518293, 0.03244250365775154, 0.03143668622730694, 0.030471221894168888, 0.02950216968261936, 0.02855402738651434, 0.027592239723978503, 0.026690023183010992, 0.025790524136404792, 0.02492822030604407, 0.024084369698270942, 0.023319095312936935, 0.02250575813987082, 0.02169925553127012, 0.020933625342693406, 0.020189732695936262, 0.01942627140304199, 0.018731227608019888, 0.01815914584113598, 0.017490612533761923, 0.016848250402675135, 0.016178734397870015, 0.015594002711008617, 0.015042708408740203, 0.01450055796279309, 0.013981263433396379, 0.013523911258667254, 0.013045497932519065, 0.012592251940474516, 0.012163908794135175, 0.011760244903932817, 0.011387964088455799, 0.01103225451794682, 0.010724108118480997, 0.010414512388136206, 0.010130496550782735, 0.009972839981686204, 0.009726347791636211, 0.009466683170225799, 0.009285658624586737, 0.009130784836461962, 0.009024625757414173, 0.0089179814017715, 0.00884690705423552, 0.00879142228133091, 0.008762013693355965, 0.008813414524972142, 0.00882804093588911, 0.008907550984947544, 0.008973087499869246, 0.00906750947648962, 0.0092703985603045, 0.009410067562654757, 0.009509765004466247, 0.009719742996544089, 0.009954758726791491, 0.010248952403436672, 0.010528781399239264, 0.01090828124937953, 0.011230667604120838, 0.011582471393980418, 0.011974243436674218, 0.012380745757066297, 0.012840126000160247, 0.013297947632377363, 0.013783486561758524, 0.014273043752094126, 0.014814840083775132, 0.015512109871258764, 0.016086129349165226, 0.016680021175319176, 0.017316955506678857, 0.017982256061225166, 0.018739388420293972, 0.019450832904073137, 0.020166746426206722, 0.020939797338822872, 0.021739179498641275, 0.022614838556966818, 0.023458798527154667, 0.024334987975632456, 0.025232864771318784, 0.02615719706402681, 0.02711426880213072, 0.028088904542702176, 0.029155429948507956, 0.03017174861220965, 0.03121627438887977, 0.03223762026237372, 0.03334252202345378, 0.0344820683894809, 0.03563169820741213, 0.03680488589949507, 0.038008344935752905, 0.03922727208365953, 0.04050644971403471, 0.04176756067928004, 0.04305393681734502, 0.04436057395050954, 0.0456968853402821, 0.04705712754656634, 0.04844106780743442, 0.04984850396970857, 0.05135736664503369, 0.05280141499023634, 0.05422923354187123, 0.055732892039521816, 0.05726012239732573, 0.05882448888045819, 0.06039649240825425, 0.06202213351249349, 0.06363765647718343, 0.06527815951986546, 0.06693402528112766, 0.06862442093453898, 0.07037721030591897, 0.07210914481275515, 0.0738662329472613, 0.07563423008141398, 0.07744204734489844, 0.0792592589685748, 0.08111499278148354, 0.08299279792422629, 0.08489955295798213, 0.08682060009569427, 0.08873652797782579, 0.09070591347011847, 0.09269612752824784, 0.09473494040285767, 0.09676391850936623, 0.09879745297652136, 0.10087455651633363, 0.10297344321831026, 0.1050965176253148, 0.10723899498259692, 0.1094128746413472, 0.11159868634048749, 0.11380736325367517, 0.11602051775499424, 0.11827722671399153, 0.12064535355932314, 0.12293454351264001, 0.12525089082043578, 0.12752948763218466, 0.1299066071169665, 0.13231493969516112, 0.13473509486087096, 0.1371780832148941, 0.1396370785169639, 0.14212680589337187, 0.14466905427815205, 0.14720045341440588, 0.14975645020296185, 0.15234382422141599, 0.15494783571085233, 0.1575214402858914, 0.1601817827416564, 0.1628635967049594, 0.1655649844224034, 0.1682911965102646, 0.17113633565403497, 0.17389556024526534, 0.176683267573322, 0.17941855318969602, 0.18227196322328446, 0.1851848115725145, 0.1880792854992089, 0.1909991713579031, 0.1939008225598411, 0.19687706876483874, 0.19986943096372448, 0.20289295464153925, 0.20593984676877786, 0.20903346112399662, 0.21212529454573814, 0.21523363864989895, 0.21837813380818183, 0.22154801053148684, 0.22473424726372923, 0.2279565386787331, 0.23128915980730191, 0.23455157485284384, 0.2378444876445018, 0.24110765852003854, 0.24446765397619538, 0.24784886748283197, 0.25126122501601816, 0.2546994396982591, 0.2581728744344428, 0.2616621497470246, 0.26512544282201816, 0.2686751682882069, 0.2722489018112512, 0.2759160402642325, 0.2795304588496871, 0.283148758988978, 0.28682444669603524, 0.2905274367023177, 0.2942508609584772, 0.29800939293857964, 0.30178111274209657, 0.30559539347511033, 0.3094359863917387, 0.31331682483692325, 0.31720872386366217, 0.32109592306287427, 0.3250467801484292, 0.32902322402527034, 0.3330300624383257, 0.33705769971541866, 0.34113008531305195, 0.34520820788617884, 0.34931384268100046, 0.35339861793925814, 0.35756498356044614, 0.3617856160878413, 0.3659972557096197, 0.3702354098587217, 0.37442646912698513, 0.37872663883061386, 0.3831177768673995, 0.3874537846642893, 0.39181652438263437, 0.3962172131030306, 0.4006311541756022, 0.4050303053102376, 0.40950222466334296, 0.413997649751521, 0.4185556090647522, 0.42309299762701796, 0.4276030669620953, 0.43219773118522997, 0.4368140782468618, 0.44150954250151886, 0.44616195767870065, 0.45073118383663163, 0.45544622717932354, 0.4601788408110891, 0.4650028566836883, 0.4697621843983464, 0.47453011606199824, 0.4793354371679873, 0.4841613269927302, 0.4889752161170005, 0.4938450731684906, 0.4987324326245719, 0.5036371083932317, 0.5085588707927853, 0.5134423159812306, 0.5184043752335651, 0.5234047772146155, 0.5283898566239116, 0.5333894807279685, 0.5384561903042699, 0.5434772909264708, 0.5484321823691884, 0.5534958782829688, 0.5585697537489049, 0.5636146094522292, 0.5687132740338448, 0.5738698256324634, 0.5789767732241217, 0.5840937689293904, 0.5892316962191751, 0.5943655029102382, 0.5994369074483265, 0.6045965797363948, 0.6097595331917771, 0.6149324532886192, 0.6201004008075771, 0.6253194125278208, 0.6304864299418522, 0.6356579764356028, 0.6407917419023096, 0.6459747018490181, 0.6510811998755653, 0.6562718278679914, 0.6615022333324937, 0.6666746439497808, 0.671843212275668, 0.6769360780662559, 0.6821039873945137, 0.6872436221537995, 0.6923938755191165, 0.6975327263851515, 0.7026369700895861, 0.7077551227254356, 0.7129285111101767, 0.7180102659032989, 0.7230814691296439, 0.7280997140224231, 0.7331518652809225, 0.7381925475551913, 0.7432112478969986, 0.7482126117031852, 0.7531750993041005, 0.7581417802190075, 0.7630620133708843, 0.7679887540997649, 0.7728912994546588, 0.7778264274259425, 0.7826713045083858, 0.7873805210013377, 0.7921921722683635, 0.7969718943338346, 0.8017744933114516, 0.8064823067987995, 0.8111255656367627, 0.8157765148909796, 0.8203933631868252, 0.8249454708467515, 0.829495523938885, 0.8339981617515627, 0.8384722759149631, 0.8429062938423917, 0.8473202075348986, 0.8516693155842529, 0.8559520139878699, 0.8602210460273975, 0.864445522916564, 0.8685901713862852, 0.8727274166374454, 0.8768454951102641, 0.8808802763350625, 0.8848663952180662, 0.8887086954152827, 0.8926064781791518, 0.896422101430967, 0.9002090590610254, 0.9039371293338913, 0.9076727096281785, 0.9112738123110222, 0.9147154296143516, 0.9182163556691192, 0.9216533113633916, 0.9250283938497369, 0.9283364173532479, 0.9315705201106532, 0.9347497565565277, 0.9378627098531721, 0.940970873309106, 0.9439417646870761, 0.9468480962155416, 0.9496886925767493, 0.9524624072454682, 0.9550877191781239, 0.9577345129233408, 0.9602997553743248, 0.9627977170631138, 0.9652198124675047, 0.9676322378616352, 0.9698928628804931, 0.9720156437242459, 0.9741362904638301, 0.9761777116844238, 0.9781164672773898, 0.9800009148937093, 0.9817895939949248, 0.9835114736514151, 0.9851498804110289, 0.9866746600961974, 0.9881489915750264, 0.9896015271967349, 0.9908953512612575, 0.9921063446753609, 0.993217685558416, 0.9942628589683762, 0.9952382515192505, 0.9961091521303087, 0.9968940767346901, 0.9975257930337876, 0.9981453868495581, 0.9986551547045769, 0.9990942018675065, 0.9994407877720483, 0.9997662399895879, 0.9999191985290211, 1.0, 0.9999738915441356, 0.9998593817279464, 0.9996420987867134, 0.9993508272547298, 0.9988723178990064, 0.9984114406035894, 0.9978538393974655, 0.9972322322994082, 0.9964787281879093, 0.9956409967172685, 0.9946996450231932, 0.9936656830854416, 0.9925414776222393, 0.9913222251688084, 0.9900245211382256, 0.988619148244782, 0.9871225179121353, 0.9854910036980495, 0.9838174756028114, 0.9820297328658931, 0.9801722147467856, 0.9782209358975886, 0.9761535474968239, 0.974019498431531, 0.9718174724844958, 0.9694944858574746, 0.9670811389439655, 0.9645733246761545, 0.9619813041134248, 0.9593598699740922, 0.9565825572526708, 0.9537205483529948, 0.9507877058398179, 0.9477548699180061, 0.944569639639912, 0.9413787320318904, 0.9381008901056478, 0.9347392752365152, 0.9312898620212174, 0.927756224747172, 0.9241392031929769, 0.9204396422338217, 0.9166354211422502, 0.9127762494297524, 0.9088404251533541, 0.9048192438933259, 0.9007191935690033, 0.8965412843274423, 0.8922865262079321, 0.8879995790348614, 0.8835886453072225, 0.879106363413798, 0.8745373319840234, 0.8699164775017654, 0.8652278622148007, 0.8604675584733167, 0.8556392681521939, 0.850707229072443, 0.8457506222477524, 0.8407959480237917, 0.8356980287634591, 0.8305397225341627, 0.8252758810126982, 0.8200050617560602, 0.814699118121862, 0.8093056544542095, 0.8038558958354795, 0.7982935544005508, 0.7927419267946877, 0.7871871349537987, 0.7815185139640544, 0.7758002023362327, 0.7700334028839886, 0.764219346142909, 0.7583500995689988, 0.7524464835262984, 0.7464989346229435, 0.7404766893276328, 0.7344495449274362, 0.7283234551666519, 0.7222222285436155, 0.7160796104146963, 0.7099344579697888, 0.7037106372346331, 0.6974466791859045, 0.6911588385517108, 0.684840547064324, 0.6785623431762032, 0.6721792792363825, 0.6657330863621573, 0.6593127066255858, 0.6528703088051033, 0.6463843708081427, 0.6399051964370776, 0.6333978884762764, 0.6268836326057624, 0.6203531881493958, 0.6138587759687845, 0.6072945832043135, 0.6007472780702445, 0.5941643318233464, 0.5874918662160866, 0.5809116857340838, 0.574324386567187, 0.5677616717876968, 0.5611618307176541, 0.5545458506803611, 0.5479493997024011, 0.5413549291093961, 0.5347892996328069, 0.5282003458112339, 0.5215781481667974, 0.5150119607423633, 0.5084542155748888, 0.5018859056706804, 0.49535262541031505, 0.48894408439490894, 0.48242264784759686, 0.4759231065524942, 0.4693336193963869, 0.46289434040389615, 0.4564776012065656, 0.4500754411766896, 0.44369503655566506, 0.4373334373521133, 0.43100200525741944, 0.4247037413482391, 0.4184255242908713, 0.4121769897333477, 0.405980198616622, 0.39979253726208586, 0.3936397730542687, 0.3875230261725061, 0.3814434074922045, 0.37536296466096297, 0.36936583161408315, 0.36345974064640585, 0.35753371812356854, 0.35165157482626735, 0.34580727423532476, 0.3400163334401277, 0.33422552435854996, 0.32853346981956383, 0.32288675396020106, 0.31729354567368, 0.31174041134926905, 0.30623207484116943, 0.3007793692549186, 0.29537788422261346, 0.2900722886810148, 0.2847707486281765, 0.2795740626847352, 0.27438019942394215, 0.2692467681814241, 0.26409124552593183, 0.2590897169489722, 0.25410560112792246, 0.24922291319413786, 0.2443963889536846, 0.23969612788857103, 0.2349766771384512, 0.2302723079514823, 0.22568598927463962, 0.22116105517031712, 0.21664543575948214, 0.21225219697667172, 0.20792411138262187, 0.20365244500504398, 0.199443567449327, 0.19537639232094575, 0.19128555827431112, 0.18728705511681185, 0.18333198852193844, 0.17944749348080444, 0.17558741965721464, 0.17184929080013053, 0.16819011084082813, 0.16458569534956005, 0.1610498384986284, 0.15750222666464336, 0.15411390572024244, 0.15091160291376055, 0.14763709977130368, 0.14443496255709803, 0.14125416734867072, 0.13820173539191827, 0.13521518755409356, 0.13229942507304956, 0.12945171868086727, 0.1266697485792874, 0.12395834702425455, 0.12125498685103105, 0.11868658386492976, 0.1161823823220773, 0.11381392353541211, 0.11143001258117118, 0.10908975171465683, 0.10684638374768202, 0.1046695351186335, 0.10256121463810643, 0.10051622128158028, 0.09855071244342035, 0.09663499167468784, 0.09478494951785468, 0.09294491022022636, 0.09123156278932794, 0.08958604167418996, 0.08799356752963115, 0.08646210068682592, 0.08498674145326324, 0.08357690552171236, 0.08223365161101791, 0.08094191967212236, 0.07970941034071853, 0.07857233410175445, 0.07745195557334049, 0.07634289352096212, 0.07534680416450422, 0.07440572205861815, 0.07349845270738035, 0.07266840058218399, 0.07189970730477492, 0.07117236667440455, 0.07049672588401501, 0.06996633049440136, 0.06938022165451085, 0.06876407503381271, 0.0682971393020231, 0.0678774721086772, 0.06750438954165137, 0.06717717670021477, 0.06695252134997108, 0.06670753059475128, 0.06650932704200581, 0.0663359591502511, 0.06623015246106312, 0.06610192896899152, 0.06608705740200997, 0.06610846824662159, 0.06614730119881979, 0.06624209301872813, 0.06639807989985506, 0.06655614271063362, 0.06674831778831315, 0.06703349166825533, 0.06728379032966134, 0.06753220362218106, 0.06785550540747791, 0.06820888755305313, 0.06855458675463681, 0.06896975380403185, 0.06945585880167493, 0.06991448958506256, 0.07039922924720686, 0.07093879119321987, 0.07146853793813643, 0.07198821024086839, 0.07256974099804832, 0.07317108394362916, 0.07376599011015354, 0.07440721741790914, 0.07509147655336396, 0.07575938137763072, 0.07644274314922288, 0.07710377741943822, 0.07781962596543586, 0.07861703101605967, 0.07934385935663897, 0.08008360062635089, 0.08084182612991068, 0.08160261258851265, 0.0823499170026745, 0.08313135731973467, 0.08391858366665454, 0.08471983022639157, 0.08551462035889289, 0.0862669558439178, 0.08707355800742363, 0.08787914137683314, 0.0887061178388756, 0.08950505344907131, 0.09036683228133582, 0.09115386905005515, 0.09194143111962996, 0.09264091714902357, 0.09343672236641395, 0.09422674708948799, 0.09500570491894196, 0.09577588109600914, 0.09657585304796512, 0.09732208126071555, 0.09810618141366595, 0.0988296157383632, 0.09954590654107699, 0.10023782116099286, 0.10093847451860646, 0.10159567589808136, 0.1022769925108448, 0.10294361059659307, 0.10358585699083378, 0.10422279107497393, 0.10487982663333956, 0.10547840857472152, 0.10604552369382399, 0.10661467183517774, 0.10716617926161277, 0.10768117518187292, 0.10819826356722571, 0.1087205226079306, 0.1091939241426339, 0.10964805585184151, 0.11010768944915529, 0.11051861978053824, 0.11083447601455017, 0.11121583851896721, 0.11157248510192545, 0.11188382221895661, 0.11219386321469937, 0.11252871853822817, 0.1127810825643056, 0.11301084382566026, 0.11317863096639508, 0.11336719052850051, 0.11353925185010849, 0.1136753323627383, 0.11378633696717032, 0.11388370124825051, 0.11394294717652166, 0.11400517101682536, 0.11401160888326764, 0.11399473053749366, 0.11398176696436192, 0.11391380627084212, 0.11377954878142599, 0.11367137405126557, 0.11353729594887944, 0.11336586830800774, 0.11318156754022739, 0.11295249612597083, 0.1127179015303929, 0.11245621939730137, 0.11217695706057661, 0.11186087793306691, 0.11162711002983511, 0.11124626896551044, 0.11084624661965688, 0.11030004089108883, 0.10987578212843345, 0.10942361679924757, 0.108944214832091, 0.1084382054950515, 0.10793834361294512, 0.10737680198317538, 0.10681741776644603, 0.10620670929752841, 0.10557482416906484, 0.10486210751156765, 0.10419567815568297, 0.10357396573096163, 0.1028510786122332, 0.10210914259922531, 0.101334421443905, 0.10055631825541934, 0.09976556110445986, 0.09894778136421555, 0.0981114376103808, 0.09719937290559949, 0.09633401111108433, 0.09545465257022762, 0.09454745034979044, 0.09362132520067562, 0.09279411915925996, 0.09181736063952395, 0.0907980774190114, 0.08980434151577503, 0.08879790521684977, 0.08773066271031398, 0.0867053860045551, 0.0857158005240084, 0.08465510304656786, 0.08358371526643885, 0.08243296073732967, 0.08134967077313685, 0.08032847659826897, 0.07920908415316037, 0.07808201318010712, 0.07686479000611544, 0.07573354354764159, 0.07467348636160115, 0.07350977086048302, 0.07234115515392521, 0.07110356496642148, 0.06993406742513673, 0.0688373252390007, 0.06764323935078059, 0.06644773031699949, 0.06521420230521784, 0.06402102497378297, 0.06286404122390223, 0.06166079860848376, 0.06045807066657875, 0.05917572949628026, 0.05798506057356346, 0.056818893809466545, 0.055619629488423625, 0.05442083140066724, 0.05323008315723126, 0.0520334026101904, 0.050795946540372665, 0.04961111078084838, 0.04842785183698087, 0.04724708354575452, 0.04606966697753472, 0.044979115738581744, 0.043800340709088566, 0.04263186914835232, 0.04139562201975757, 0.04025776328614137, 0.03913064134883204, 0.03800527171736105, 0.03688782909232875, 0.035799652731007, 0.03469740955266083, 0.03364750091286911, 0.03256240530233312, 0.031491424544642245, 0.03043462385532844, 0.029392104583901176, 0.028283596374631705, 0.027280233171159275, 0.026287117995543077, 0.025307399855389174, 0.024336982874791736, 0.023473502179732077, 0.02251733539766803, 0.021580478459660997, 0.0205892343971635, 0.019699790942860763, 0.01884351210247131, 0.01798187016209902, 0.017137114373453437, 0.016261337826346162, 0.015457446566369739, 0.014728429251958516, 0.013947962070590555, 0.013187301659244957, 0.012478698321520668, 0.01175386045085487, 0.011062411726648003, 0.010379779225709188, 0.009719434120695824, 0.0090191782341018, 0.008410771291287145, 0.007924140627092277, 0.007339892292204356, 0.006780666852006706, 0.006197749846151652, 0.00569332395710742, 0.005145678976618815, 0.004691698022962394, 0.004255420346910619, 0.003821385349833874, 0.0034243403878555126, 0.003133054782132917, 0.0027624628431654782, 0.002416289363060963, 0.0021057484074538894, 0.001806171802913009, 0.0014987627257505565, 0.0012516209255340393, 0.0010264538240028936, 0.0008347719449543854, 0.0006521647765868941, 0.0004600578633995665, 0.00032674127280767854, 0.00021408369367921306, 0.0001773783555147836, 9.951238906631289e-05, 3.429298639498126e-05, 5.7667650979569655e-06, 0.0, 9.027025880890102e-05, 0.00012003462930235809, 9.790176417147409e-05, 0.00018915761019536208, 0.0003007122153159996, 0.00042334854802052597, 0.0005765613943564933, 0.0008206374129236468, 0.0010041400254404314, 0.0012112569305411775, 0.0014574458407394819, 0.001707938647480274, 0.0019973028288143933, 0.002290723712496471, 0.0026066477636331256, 0.0029444201390676477, 0.003303441025317932, 0.0036808619738738836, 0.004081059474232364, 0.004500845865951945, 0.00501331310082794, 0.005461749397600913, 0.005909743389526385, 0.006405202008173758, 0.006920106086615835, 0.007476839594347699, 0.008026012611907048, 0.00862185998063898, 0.009205116266698274, 0.009819276103068125, 0.010439150593618855, 0.011077628728510891, 0.01177303925130857, 0.01244168002494165, 0.01320034891891452, 0.01389675147196184, 0.014614326645821752, 0.01537477346192253, 0.016128106979286017, 0.016907372943863783, 0.017696829532164764, 0.01850366023367934, 0.019338436785158113, 0.02017592205894815, 0.021107083622508054, 0.02196509942709389, 0.022841683015743464, 0.023705763212663475, 0.024619778812080648, 0.02550152920177862, 0.02644812526802696, 0.02740471537274802, 0.028481477652965364, 0.029443852144048894, 0.030456617454572038, 0.03144553770681201, 0.03245051148028225, 0.033493482284732604, 0.034524694018234506, 0.03561416298118164, 0.0366681901641277, 0.037737615591164037, 0.038846679464978474, 0.03994074779006664, 0.041074189342920904, 0.042192385956185206, 0.043324453479916, 0.04437763568257132, 0.04554658069677061, 0.0468391371619997, 0.04800635799775029, 0.0491869662520385, 0.05037099588685697, 0.051577315487856976, 0.05284961559422266, 0.054070238654237254, 0.05530403030183304, 0.056552549209923836, 0.05781027798536412, 0.05905872023003546, 0.06034136831784347, 0.06163337753214454, 0.06297364049429727, 0.06427899267214669, 0.06552201933661268, 0.0668586695094965, 0.06820170713301464, 0.06962728598848998, 0.07097452590956249, 0.0723287836451732, 0.07369950333915942, 0.07508098394848794, 0.07645926308212536, 0.0778635133855358, 0.07928422730146781, 0.08070679477632244, 0.0821394267107063, 0.08361889913766268, 0.08506709299798071, 0.08658266625448864, 0.08804815943218287, 0.0895286024640181, 0.09096829608625992, 0.0924840107613171, 0.09408367899555137, 0.09561112496234023, 0.09715343989553883, 0.09866196510351864, 0.10023895455858407, 0.10189143038332536, 0.10348282100774604, 0.10508941440167588, 0.10673390241936535, 0.10836723171152729, 0.1100003530248398, 0.11166720369443825, 0.11334858883069744, 0.11499169323618165, 0.11670893921361405, 0.1184816026842526, 0.12021744259958778, 0.12196862842921743, 0.12371696702730739, 0.12550174957384366, 0.12726242527861575, 0.1290824421438908, 0.13091602151600348, 0.13282360926341627, 0.1346788748883631, 0.1365117423479089, 0.13841026988468713, 0.14032571728500534, 0.14226549446333542, 0.14421544758087781, 0.14621177880914202, 0.14819628466457355, 0.1502019745893204, 0.15220376187899287, 0.1542555864300808, 0.1563576553737137, 0.15844691172791694, 0.16055911019844218, 0.16262092939849349, 0.16478890003066815, 0.16704753689590876, 0.16924624758490714, 0.1714700308570129, 0.17366161435678984, 0.17594330391647264, 0.17826576505742198, 0.18059060171830846, 0.18294018966217385, 0.18535633726955433, 0.18775155823333994, 0.1901177492769358, 0.19257711704636557, 0.19506185793135353, 0.19755189610106924, 0.20009176083979233, 0.20267821075335676, 0.20526795142902726, 0.20788605518714623, 0.21052374630332887, 0.21320095890754254, 0.2159623373216528, 0.21869107777090294, 0.22145279026170814, 0.22422674548946428, 0.2270568885342416, 0.22987743072786837, 0.23277650563888758, 0.23570542160011068, 0.23868309840198812, 0.24167095796283763, 0.24468890016940864, 0.24774209178291562, 0.25082808422014274, 0.2539632314241044, 0.257113596914604, 0.2602777654434292, 0.26349980170070214, 0.26675535854518734, 0.27011592039202675, 0.273430303466635, 0.2766956578904038, 0.28009725027937377, 0.2835315403797364, 0.2870609934499004, 0.2905541094798963, 0.2940317511267685, 0.29760608358728763, 0.30121445999564733, 0.3049168893363868, 0.30858660824787704, 0.3122117598752788, 0.31596790190990964, 0.3197569647792324, 0.3235265302948666, 0.32738930869629285, 0.33132906144023727, 0.33524875979162866, 0.33920330391947323, 0.3432364459583756, 0.3472554363803526, 0.35129813468498017, 0.3553934919486907, 0.35952486076737306, 0.3636414735493163, 0.3678505635123182, 0.37206914886496323, 0.37634623291946206, 0.3806547435150298, 0.38497422870107023, 0.3893488017232616, 0.39378625451846866, 0.3982183810639006, 0.4026833185295342, 0.40718313785305865, 0.41171269363609325, 0.41628359924933894, 0.420875974604029, 0.42550032049843384, 0.43011022853345243, 0.4348029204761773, 0.4395580320658506, 0.44430215502136194, 0.4490758460126033, 0.4538969593976748, 0.4587258767693798, 0.4635355353480387, 0.4684278030858534, 0.47337478333814287, 0.4783126506677853, 0.4832763533469987, 0.48826294296422873, 0.493276642923386, 0.49825433618258813, 0.5033223668825563, 0.5084094250894677, 0.5135267862321263, 0.5186497421499795, 0.5237777422795361, 0.5289395923194185, 0.5341184435371914, 0.5393643556177626, 0.5445693281978591, 0.5497443056415264, 0.5549908424048641, 0.5602508700222064, 0.5654778202986361, 0.5707687272512462, 0.5760685551287152, 0.5813769345150063, 0.5866934174142883, 0.5920105924534179, 0.5973425295435417, 0.602673542720468, 0.6080176437746181, 0.6133659837617739, 0.6187040846780073, 0.6240605086204651, 0.6293882960167783, 0.6347502226796585, 0.6401101908204336, 0.6454928804874163, 0.650843894666431, 0.6561303621775011, 0.6614831855366953, 0.6668279966641655, 0.6722354643984862, 0.6775535258358348, 0.6828496107588878, 0.6881565691210929, 0.6934540507698705, 0.6987018085253689, 0.7039816864014277, 0.7092623776194664, 0.7145087928820646, 0.7197390121747753, 0.7249082850989963, 0.7301083058629968, 0.7352633516641548, 0.7404214755197628, 0.745554660311791, 0.7506024628612713, 0.7556911106105673, 0.7607996705210774, 0.7658202614355234, 0.7708121309767804, 0.7757053430184588, 0.7806453932554718, 0.7855497010359296, 0.7904177133056217, 0.7952487870126758, 0.8000284158062051, 0.8047851159240503, 0.8094879486901647, 0.8141654248255866, 0.8188003847387649, 0.8233920263258129, 0.8279394878594937, 0.8324786118496673, 0.836930281458686, 0.8413369672608599, 0.8456858604966375, 0.8500000737698524, 0.854221075930571, 0.8584404856474224, 0.8626054940940324, 0.8667014799592991, 0.8707568775448292, 0.8747567772853462, 0.8786954715940741, 0.8825748191939601, 0.8863502665089675, 0.890113699369644, 0.8938194478609315, 0.8974522486752773, 0.9010195899122022, 0.9044885472870182, 0.9079267152200716, 0.911322806885451, 0.9146176195302782, 0.9178431210200065, 0.9209065274754261, 0.9240023356347321, 0.927110568612261, 0.9300405477919287, 0.9328979671205209, 0.9356128575640952, 0.938330738289046, 0.9409507268128379, 0.9435114749176702, 0.9459907777884715, 0.9483997607518296, 0.9507135897168332, 0.9529040473329423, 0.9550584864900116, 0.9571274160373575, 0.9591909691072639, 0.9610778547570394, 0.9628184746382873, 0.9645485711902179, 0.9661910973348523, 0.9677134796368986, 0.9691836818600063, 0.970643640597698, 0.9719222027864396, 0.973114237797433, 0.9741085930996454, 0.9751389209807266, 0.9761222978634757, 0.9769563136589192, 0.9776981342863277, 0.9782991983371025, 0.9788617779424126, 0.9793331168587243, 0.9797035437139099, 0.9799785565729557, 0.9801949121139476, 0.9802744355514291, 0.9802513768066234, 0.9801449462341788, 0.979943981804176, 0.9795770811988633, 0.979195514525529, 0.9787953323016569, 0.9782060227140593, 0.9775230850726653, 0.9767278762961651, 0.9758592614921687, 0.9748631808245609, 0.9738080531986257, 0.9726559030938124, 0.9713909933993752, 0.9700478583353819, 0.968594036970737, 0.967059309387946, 0.9654278351730604, 0.9637047718718339, 0.9618808954999191, 0.9599277139853811, 0.9579189894421778, 0.9558144603390144, 0.9536447585868416, 0.9513471190025012, 0.9489506822341973, 0.9464705617573099, 0.9438990833324482, 0.9413057138598453, 0.9385444677552612, 0.9355940453760285, 0.9326743089762526, 0.929663136257691, 0.9266144011088678, 0.9234167594987893, 0.920138275686744, 0.9167697250172351, 0.9133171255423094, 0.9097397130347522, 0.9061260442129395, 0.9024209956924265, 0.898640260534406, 0.8947767226018593, 0.8909003865561885, 0.8868657853040921, 0.8827371176133556, 0.8785539863096591, 0.8742952518909607, 0.8699180733958489, 0.865516114047628, 0.8610891869497538, 0.8565311020485072, 0.8519028965764854, 0.8471732694346277, 0.8424115176161036, 0.837610424747371, 0.8327077389227555, 0.8277400355954743, 0.8226532077120956, 0.8175655584021583, 0.8124290690012346, 0.8072111205376102, 0.8019322807345302, 0.7965870589834108, 0.7911915093082009, 0.7857940142222641, 0.7802787895611002, 0.7747124835373214, 0.7690823149813208, 0.7634186483830677, 0.7576925036707424, 0.7519344488094951, 0.7461179830722403, 0.7402689520491765, 0.7343752026182743, 0.7284612382276445, 0.7224797372613285, 0.7164318243098217, 0.71037745724969, 0.7042853963967717, 0.6981802150325851, 0.6920146548461362, 0.6857876003591504, 0.6795639457999986, 0.6733097808344929, 0.6670474408105581, 0.6607346045256156, 0.6543720798677285, 0.6480150489375344, 0.6416350843229718, 0.6351833119254474, 0.6287688461844071, 0.6224139525745839, 0.6159496755824398, 0.6094730491873327, 0.6029416721651127, 0.5964496310031305, 0.5899534973856972, 0.583440283756118, 0.5769197818541526, 0.570365987648619, 0.5638390682579355, 0.5573768750894342, 0.5508346016946764, 0.5442954486327448, 0.5376663397811251, 0.5311487030773375, 0.5247104386605842, 0.5181874175293377, 0.5116738931869845, 0.5051297106378992, 0.49864401230444444, 0.4921852083178189, 0.4857206777792266, 0.4792709797809582, 0.4728329040330464, 0.4664175929270415, 0.46002097383127344, 0.45364443219068784, 0.44728933652237135, 0.4408789321542462, 0.4345806417736531, 0.4283930102830749, 0.4221274535763382, 0.4158917542139991, 0.4096708585915154, 0.40349999769450295, 0.39740254886298426, 0.3912917605114829, 0.38521769605883777, 0.37916049846435723, 0.37316497750867883, 0.36712485057995187, 0.36121702774323594, 0.35534475605973864, 0.34953730463224875, 0.3437376642899435, 0.3379386088918306, 0.33222929118552685, 0.3265619892781662, 0.3209519523904418, 0.31537125365387264, 0.3098512821850291, 0.3043638521114319, 0.2989263344734666, 0.2935878827704227, 0.2882467923140724, 0.2829012321283355, 0.2776786414149762, 0.27250883785528884, 0.2674042531882932, 0.26234136067305414, 0.25732311019308735, 0.2523746444054181, 0.24748306894012162, 0.2426491364692174, 0.23787356048939157, 0.2331202610701354, 0.2284680371987376, 0.22387402799849196, 0.21936437022047756, 0.21488612759293146, 0.21048829475933023, 0.20613226285891653, 0.20184020466437871, 0.19763994938035412, 0.19347312956867366, 0.18938636885858848, 0.18535036465996338, 0.18138143850460434, 0.17747032368372267, 0.17363650406461117, 0.1698185353165561, 0.1661239349356977, 0.16249298633536785, 0.15897897954358547, 0.15546995978722397, 0.15194375865868537, 0.14858099235915076, 0.1452810247578909, 0.14206050155884803, 0.13888570856785207, 0.13583579230576548, 0.13278394377566055, 0.1298009429299527, 0.12681749122329608, 0.1239797691162675, 0.12127713476608974, 0.11855835865155964, 0.11590779604688504, 0.11321238974658716, 0.11071102463027448, 0.10829768706272962, 0.10591420495355333, 0.10359351840962813, 0.10134713447514326, 0.09915058633872995, 0.09703114011606238, 0.09495923916914699, 0.09295089741861343, 0.09096892586221414, 0.08909102990051276, 0.08725718915011611, 0.08550140059154385, 0.0838043947482889, 0.08215910467142211, 0.08057994635240069, 0.07907225600273296, 0.07760642815414283, 0.07619841039049638, 0.07491430824671168, 0.07361191046733484, 0.07236712344334115, 0.07118369000241524, 0.07005779193989704, 0.06900676024603253, 0.06799049825780006, 0.06701596473685041, 0.06611135392887792, 0.06525928908522623, 0.06449099938293519, 0.06373717957487558, 0.06300969049322624, 0.06236111733129715, 0.06176046963137469, 0.061154042889632235, 0.06065332963307212, 0.06024093623268844, 0.059818736049468094, 0.059440583579904116, 0.05908491007498424, 0.0587947897274712, 0.05854718210299691, 0.05833648178023506, 0.05816466494425147, 0.058079196323133436, 0.057976699981617384, 0.05779625969869579, 0.05778580084123032, 0.057805604527864936, 0.05796114678145379, 0.05802743511001696, 0.05803717985341159, 0.05818449262454577, 0.058359462525505335, 0.05858229396898754, 0.058808493214937405, 0.05905273905917511, 0.05933377602780014, 0.059639920776714234, 0.05996122235579008, 0.06031643281863952, 0.06070076707390682, 0.06109881415416699, 0.06151794166953025, 0.06202850391993972, 0.06247819501595129, 0.06291588898793674, 0.06341339686905495, 0.06392857102726503, 0.06441899940571047, 0.06497156969460516, 0.06556163033198542, 0.06613477571418476, 0.06672019384335191, 0.06731466909508758, 0.0679221758447, 0.06852071704917648, 0.06914849661140947, 0.06978291220330671, 0.07041865452380082, 0.07106476756314976, 0.07172427229651306, 0.07237692435707561, 0.07303287622184508, 0.07376943923464856, 0.07441973474940435, 0.07499493933393801, 0.07566461924121817, 0.07631858712383999, 0.07698555478018923, 0.0776486159656804, 0.07840605003998477, 0.07904728431690689, 0.07966332917217205, 0.08030657836328749, 0.08094589774812765, 0.08158261865070275, 0.08221094069259946, 0.08276838903303997, 0.08339089831997455, 0.08400160174796018, 0.08465538841838452, 0.08523474773336974, 0.0858390421417579, 0.0863942395084348, 0.08694036995018732, 0.0874580956799578, 0.08798560500998194, 0.08849344523973594, 0.08899564933521241, 0.08948348114429981, 0.08993117334406027, 0.09039198687804866, 0.09083329110465616, 0.09125974533553875, 0.09166840287726251, 0.09209810246503569, 0.09246558212808094, 0.09282139922636203, 0.0931552499392033, 0.09347207368311074, 0.09374151309623313, 0.09402661905017518, 0.09425949775014479, 0.09450839689024218, 0.09473514489781593, 0.09490310908908818, 0.09509054398336897, 0.09538959269354325, 0.09551239101636433, 0.09561951459768711, 0.095645799918873, 0.09572727986678686, 0.09576655570441112, 0.095807531355481, 0.09582570646470032, 0.09582580113244517, 0.09579816092819887, 0.09578967715762836, 0.09571248600476917, 0.09561555292708297, 0.09544807470172542, 0.09531730084595912, 0.09516788245121506, 0.09499031706874353, 0.09479029131353008, 0.09459787434160448, 0.09434976244682733, 0.09405849718298982, 0.09377288463011661, 0.09346574515936028, 0.09315106187058934, 0.09279972871008411, 0.09243284834037298, 0.09204075407340426, 0.091629002326795, 0.0911586453217826, 0.09071285532566647, 0.09028924727213208, 0.08979549176583942, 0.08928367002471563, 0.08879063619400383, 0.0882383593894646, 0.08756249133444699, 0.0869925110446953, 0.08640068449922711, 0.08577869337338406, 0.08514689102131776, 0.08456638817109904, 0.08388654294629681, 0.08319231303754276, 0.08244017720010002, 0.08172310825552263, 0.08096211240112604, 0.08021637665465585, 0.07945385145621509, 0.07871204885401373, 0.07791352524291104, 0.07712310136024056, 0.07629716514639719, 0.07546052752393625, 0.07466393186246066, 0.07380014295278128, 0.0729452683334912, 0.07206499384815046, 0.07117829047221608, 0.07020235009192195, 0.06931300025427252, 0.06841248144652327, 0.06750155995627957, 0.0665809758536719, 0.0657134709168254, 0.0647678462164666, 0.0637538026005339, 0.06280827657716204, 0.06185540588332666, 0.06092122101560903, 0.059952720623099955, 0.05898279243894743, 0.058007032754948507, 0.0570286433282105, 0.05603201331606444, 0.05505181199365842, 0.05405571810908907, 0.05307365224546206, 0.052089911842045346, 0.051187892932932286, 0.05019240736049961, 0.049204197484509736, 0.04821833901233718, 0.04723757224311653, 0.04627114797519956, 0.04529964125046218, 0.04426746049404346, 0.043316398930589445, 0.04236785017352912, 0.041491483338308884, 0.04054147128759682, 0.03956324941316779, 0.03863508851728595, 0.03771367774957576, 0.036751263756335646, 0.03585091574598933, 0.03494457946052553, 0.03405754335347442, 0.033177034095589995, 0.03232687640800923, 0.031459015667601425, 0.03060825185004566, 0.029760438921582793, 0.028924213840205812, 0.028171202643813443, 0.027350371688939352, 0.026459029299201492, 0.02568260797808446, 0.02491774070548385, 0.024224775775332667, 0.023477285182059375, 0.022718878303619426, 0.022008204578141163, 0.021312722745551294, 0.020637331683195842, 0.019972559703950482, 0.019280484015696934, 0.01865416615049184, 0.018042234961589902, 0.017488930084285346, 0.016901981940697766, 0.016328912319364647, 0.01577960008454679, 0.015248726983882147, 0.014766313788173556, 0.01426901171425278, 0.013817560303083327, 0.013358136528972648, 0.012920561510503106, 0.012444865365831259, 0.012057860253425255, 0.01171402691523786, 0.011359989108484262, 0.011025958481351152, 0.010714330195945854, 0.010420316199159745, 0.010192672898102741, 0.009933775067786354, 0.00969802761094868, 0.009482834202183113, 0.00929282347578831, 0.009092898553683526, 0.008951280840511246, 0.008829795580556793