0.027888000886531827, 0.02772649920431244, 0.02758171347612426, 0.02745679497012455, 0.027348851943043446, 0.027255368226128333, 0.027161521286362636, 0.027092328662575285, 0.02700956115721012, 0.02695806482999516, 0.026911161507986434, 0.02688984472309454, 0.026847476502047322, 0.026767727072933185, 0.026738467802916263, 0.026710203102574707, 0.02669565434139945, 0.026668057111832896, 0.02664975738370915, 0.02662548847559546, 0.026603934676192494, 0.026579791443711604, 0.026564732615596533, 0.026527237325406773, 0.026521330022452553, 0.02651736168828868, 0.02652122319253519, 0.026521843052035633, 0.026529676462218897, 0.026537411435815204, 0.02654967756084879, 0.026574014852912334, 0.026595361636103786, 0.02664965322647934, 0.02667949373215556, 0.026717148151345238, 0.026744551067185415, 0.02680013799664499, 0.02683368434167929, 0.02690685556544238, 0.02698567186495586, 0.02710127238723843, 0.027188750633264435, 0.02724324083403318, 0.027353186660665683, 0.02746955226183835, 0.027598194161410704, 0.027727988343690103, 0.027871129578736414, 0.028016386637846457, 0.02817043947290226, 0.02832807692441375, 0.02850101954029093, 0.028686657667853138, 0.028877529422437834, 0.02907811510308419, 0.029292195049291272, 0.029512247769743667, 0.029697539960076732, 0.029944228155172555, 0.030199028531455015, 0.03048591148985503, 0.030755381537819603, 0.0310699359320967, 0.03135676815832939, 0.03165663903552861, 0.03192247007829537, 0.032254055573646793, 0.03258134679717783, 0.03293542259884459, 0.033292290687213434, 0.03366773466551688, 0.03405359397413594, 0.03444124867776491, 0.0348502838891252, 0.03529746336313671, 0.03572556033748811, 0.03616697938832287, 0.036625447052797244, 0.03709339529040736, 0.03756798682522208, 0.0380646758215634, 0.038575011454451476, 0.03910276423836155, 0.03964040684274167, 0.04020139780763049, 0.040766653602364054, 0.04134698132117136, 0.04189546812446697, 0.042512055760107754, 0.0431376648328866, 0.043780440688802186, 0.04443653431911334, 0.04513887936013085, 0.04581871282867163, 0.046520255999220425, 0.04723204341084143, 0.047960548517157676, 0.0486859266067183, 0.049450469226795746, 0.050210851841626526, 0.05100954240650393, 0.05182324195764573, 0.052668556227986996, 0.05351122936893891, 0.05437438863100484, 0.05525048263374376, 0.05614390775117859, 0.05700417037147365, 0.057938912812222944, 0.058877561820483905, 0.05984364941849394, 0.060824787744005876, 0.06183589604688163, 0.06284665517827458, 0.06387451625574687, 0.06491967812630019, 0.06598231228618048, 0.06703546817980026, 0.06813688992102024, 0.06927089487201772, 0.07040321273247586, 0.07155332745926696, 0.07272132579125007, 0.0739072742501184, 0.07510218857975584, 0.0763253068853522, 0.07756596385799022, 0.0788115887281685, 0.08008912360587692, 0.08138003428845096, 0.08269211936083086, 0.08402119275181678, 0.08537095609788124, 0.08673378734681711, 0.08810676824092929, 0.08950524698076909, 0.09092064364126086, 0.09239270778084473, 0.09383691487476516, 0.0952821633362277, 0.09676649449441758, 0.09826819651372769, 0.09974192395515391, 0.10128352710331173, 0.10286470601511784, 0.10443185986462315, 0.1060150282340911, 0.10758158093794337, 0.10920053524370897, 0.11085316993153653, 0.11249733995333375, 0.11415661057048873, 0.11584168764098202, 0.1175293737255835, 0.1192269026014534, 0.12094553290368593, 0.12267858829878098, 0.12440235831956009, 0.12616654634389424, 0.12795759093481218, 0.1297447009247203, 0.1315448756845201, 0.13335607397677712, 0.13518189122789284, 0.1370379995620137, 0.1388857338403191, 0.14074619414228423, 0.14262257543709841, 0.14450678545236073, 0.1463936619924915, 0.14830198653104734, 0.15022066110079943, 0.15213128418943034, 0.15407192959433738, 0.1559829556337922, 0.15794482916062633, 0.15991246504963572, 0.1619184406900104, 0.16389361575400158, 0.16589084711153584, 0.16787904789620298, 0.16987494187034544, 0.17184371391655723, 0.17385786307860326, 0.1758528340167774, 0.17787836170526083, 0.17990644079070459, 0.1819496427869933, 0.1839809548528572, 0.1860332272700563, 0.18806773586116948, 0.19010550843093924, 0.19209907467229345, 0.19414780589670322, 0.19624262195507125, 0.19828351794307178, 0.20032585882482867, 0.20235278746293575, 0.2043982847921104, 0.20645879846041867, 0.2084993091316509, 0.21053858572437956, 0.2125417078103282, 0.21458107151995848, 0.21661369882110934, 0.21864313070935593, 0.22066690204030925, 0.22269912451063736, 0.224708702222273, 0.22670511188054104, 0.2287031951243792, 0.23069387952851741, 0.23264959556770776, 0.23462748125829122, 0.23662209873498588, 0.23857554677827594, 0.24051955475998096, 0.24241923711192065, 0.24434701700429817, 0.24627077553403284, 0.24817102008127456, 0.2500581127249714, 0.2519352447856885, 0.25379429443824564, 0.2556463056730538, 0.2574754162794354, 0.259289666624913, 0.261075842029415, 0.26286026439424504, 0.2646671569724562, 0.2664115489343679, 0.26813996750155933, 0.2698371629127237, 0.27153310108242984, 0.2731900861837267, 0.2748497827497696, 0.2764881128698535, 0.2781407975183099, 0.27973059159861224, 0.2812781166317278, 0.2828287457316241, 0.2843561511360498, 0.2858869397949988, 0.2873630057170982, 0.28879242762715385, 0.2902244490288184, 0.29163063626439917, 0.29304306180463274, 0.29439214100096395, 0.29565447012527385, 0.2969599615912574, 0.29823532539156605, 0.299489464047872, 0.3007030105457089, 0.3018593618971826, 0.30301585487496346, 0.3041401501885139, 0.30523577330162377, 0.3062949188332627, 0.30738312598703005, 0.3083695795456445, 0.30932668398842816, 0.3102266038437097, 0.311126268842391, 0.3120146665350727, 0.3128453135504295, 0.3136434693599746, 0.3143634335473501, 0.3151007342930594, 0.31580329650963357, 0.31646719554095865, 0.3170944662263844, 0.3176795578219795, 0.31823385203043997, 0.3187634341824674, 0.31924130035489257, 0.31964615006451164, 0.32005457570924967, 0.32042362372893946, 0.32079852517893964, 0.32108328718671736, 0.32132049439887606, 0.32153282859820875, 0.3217071340711138, 0.3218124766533721, 0.3219139501755784, 0.322056335338216, 0.32206683900739397, 0.32204164551076736, 0.3219584639955601, 0.32186284905185925, 0.32170159277069366, 0.3215320750282328, 0.32132204613879967, 0.3210896154652093, 0.3207964177013314, 0.32041509327853357, 0.3200492712233171, 0.3196412085568845, 0.31922015956122995, 0.3187249861919521, 0.3181721042783597, 0.3175999756493681, 0.316987298202566, 0.3162963539832283, 0.31560802373968955, 0.31496978472345016, 0.3141862394881221, 0.31336681111697945, 0.31244255390426084, 0.31155920321822894, 0.3106841786976843, 0.3097141929857952, 0.308707336692581, 0.3076094203048604, 0.30653572566879617, 0.30544391800918136, 0.30428844418412054, 0.30309545861867454, 0.30189238317671774, 0.3006219268751854, 0.2992478222734043, 0.29791616360339934, 0.296545929092396, 0.2952046976945258, 0.29375103990451856, 0.29224479301078593, 0.2907283121651212, 0.28917824016756877, 0.28756059402411843, 0.2859487156505719, 0.2843367109634398, 0.2826522573056219, 0.28093658745552147, 0.2792008918589351, 0.2774224946009629, 0.2756272505529211, 0.27378859404234024, 0.27192183169603334, 0.2699459503104245, 0.2680341266763852, 0.2661610321539281, 0.26417789024690763, 0.2621690003884871, 0.26006789635845523, 0.25801711128220295, 0.25599945413610975, 0.2538853123028727, 0.2517482693908572, 0.24959416392409942, 0.24741191868719095, 0.2451831244258043, 0.2429620130080321, 0.2407191571623808, 0.23843539463738128, 0.23615368730474245, 0.2338927907936135, 0.23156521849990958, 0.2292209489560246, 0.2268171195407811, 0.22444644121168286, 0.22205999207985228, 0.21965484266584734, 0.2172340174683246, 0.21483630507987253, 0.21238187274949288, 0.20985317596544908, 0.20738516427451298, 0.20490359634410604, 0.20243843520987573, 0.19992923687455857, 0.1974129680886335, 0.1948865014534315, 0.1923526856532591, 0.18982486273028276, 0.18727684083760404, 0.1846917558049729, 0.18213934972209825, 0.1795817808776167, 0.1770343854153006, 0.1744672951674373, 0.17190566912673866, 0.16933485084788913, 0.1667640925239622, 0.16416694426164172, 0.16160167889765345, 0.1590242641583384, 0.15646246798037527, 0.15390219088306042, 0.1513967545537943, 0.14883566084245145, 0.1462456030502093, 0.1437038309464563, 0.14116806904265564, 0.13861379085576642, 0.1360955246069011, 0.13365996990003182, 0.13114671551832044, 0.12864637283256655, 0.12610679832078014, 0.12363967958303893, 0.12116171474373379, 0.1187197830746598, 0.11628901047940139, 0.1139046345542455, 0.11149454298683806, 0.1091182249724503, 0.10673779150664, 0.10437513157390246, 0.10202520777294433, 0.09969994413933866, 0.09738250830224289, 0.09509642002509128, 0.0928293384784277, 0.09063241242620458, 0.0883986428753146, 0.08620465365923197, 0.08401600733500944, 0.08185210632525527, 0.0796949674026325, 0.07758313317926968, 0.0754701209470631, 0.07341006133453594, 0.07137341110125432, 0.06939326440257189, 0.06740103656814288, 0.06538514082746709, 0.06345339756846556, 0.06154626831660424, 0.05973309394248366, 0.05786855611384438, 0.056059737411512496, 0.0542528842322505, 0.05247796333491278, 0.050724020658837195, 0.04901403894041372, 0.04736408222069718, 0.045712791533577504, 0.04409447118046398, 0.04252167582425165, 0.04096746819985807, 0.039441371800647114, 0.03795482948711799, 0.036501390203500655, 0.035160573413032525, 0.0337634169127534, 0.0323949599611526, 0.031073861434589303, 0.029788982809585578, 0.028559890563351197, 0.027344086040717253, 0.02619197438934053, 0.02504563025609692, 0.023936851201645973, 0.022863417206857275, 0.02182882641433163, 0.020884854756055417, 0.01991604695231286, 0.018986319767686416, 0.018080651514710725, 0.017229287876666756, 0.016512277384227152, 0.01572195667586495, 0.01497349523851403, 0.01422982576555962, 0.013566963730344887, 0.012981226097939825, 0.012387791180105917, 0.011833394537283347, 0.011371690914919085, 0.01088697523279993, 0.010428484206468821, 0.010026169733805504, 0.009662264623678309, 0.009348942471370834, 0.009058905401350615, 0.008841076291370504, 0.008622060190138914, 0.008478218217778572, 0.008332134273185401, 0.00822601616023774, 0.008166343986818023, 0.008137096020328204, 0.008196820598058504, 0.00823739195990945, 0.008318123959888468, 0.008474295506479528, 0.008628328846171658, 0.008764479071218677, 0.009004792697980196, 0.009280134972493392, 0.009675190535617077, 0.01000921732467533, 0.010348114971318862, 0.010764017725965563, 0.011215578809620865, 0.011749367056761578, 0.012265145772071183, 0.012821741433112245, 0.013410791473893648, 0.014035957688159403, 0.01470208017027063, 0.015397111743535334, 0.0161504711217109, 0.016911745181094895, 0.017708271603851328, 0.018552109217992326, 0.019415836284583272, 0.020339212420441954, 0.021267913417425, 0.022231350062770616, 0.023254155077084115, 0.024281953558404897, 0.02529533694685347, 0.026397324843252277, 0.0275296080249611, 0.028724523916033678, 0.029912752321186214, 0.031166894945978768, 0.03241353118461618, 0.033692847052985676, 0.035004191580714834, 0.03634697230076389, 0.037735100539542245, 0.03913735112240688, 0.04057036065112146, 0.04204804736847453, 0.043539193152084245, 0.04505682891593923, 0.04660811131410548, 0.04818828828064701, 0.04976985345097701, 0.05141005078697179, 0.05311442500455929, 0.05480220379041467, 0.05651814038829341, 0.05827988191955746, 0.060048630654844906, 0.06181107182434427, 0.06363971808885557, 0.06549354893508802, 0.0673995430448372, 0.06929996077234124, 0.07123214510483517, 0.0731842326820481, 0.07516231886857387, 0.0771678764394939, 0.07919675669934649, 0.08129236131581476, 0.08336606269885151, 0.08546673982622781, 0.08756130644416617, 0.08971839604955471, 0.09190813051003253, 0.09411115453472414, 0.0963380116738197, 0.09857224287337991, 0.10084823707392186, 0.10315021335608629, 0.10547046633683116, 0.10781324239455024, 0.11020016092929168, 0.1125850682774052, 0.11496102649296125, 0.11739694998703545, 0.11985417849634046, 0.12236710928944569, 0.12486281712067974, 0.12738735868747786, 0.12992897157524827, 0.13249385101318426, 0.1351088597472687, 0.13771616938247377, 0.14032054266846966, 0.1429792199315823, 0.14565982417831513, 0.148387573367075, 0.1511086274319097, 0.1538474240796628, 0.15661524316423983, 0.15940546565106367, 0.16221795557114155, 0.16505259929769778, 0.16788401265238848, 0.17076589907702858, 0.17366829149404625, 0.1766202518340356, 0.1795604645326945, 0.18251421238615806, 0.18550059467435356, 0.1885088421823088, 0.19152269893287296, 0.19457674616144138, 0.19766622432136507, 0.20076055355981606, 0.2038769634079787, 0.20701004715230903, 0.2101713463162431, 0.2133400219204831, 0.21654687354110227, 0.21977487746888022, 0.2230495046520347, 0.22631713989603625, 0.22960242017792493, 0.23291680131598505, 0.236253819023989, 0.23959902093768257, 0.24298314200327564, 0.24644148811091898, 0.2498627880072893, 0.25330911010574764, 0.2567241390205679, 0.2602266845790947, 0.26372680429697143, 0.267274685529796, 0.2708427807579117, 0.2744603823621544, 0.2780663720420807, 0.2816717477194711, 0.2853264786733533, 0.2890028193481207, 0.29271543056250166, 0.296433761697345, 0.300185895579942, 0.3039487977180051, 0.307735291681478, 0.3115579344900731, 0.3153897523900186, 0.31920948869058474, 0.3230937902422291, 0.3269997658378499, 0.3309600688689871, 0.33490566648228703, 0.3388498088244152, 0.34284607975609577, 0.34686438859885116, 0.3509174112679629, 0.35497827233471063, 0.3589968908502421, 0.363111437121025, 0.3672448853116635, 0.37146086187620636, 0.3756252514731239, 0.379764318541555, 0.3839814847470254, 0.3882187871300112, 0.39248176255656075, 0.3967589634288206, 0.4010207076774827, 0.40534378247179387, 0.40968539563582446, 0.4140764556100549, 0.41845179838464186, 0.4228460187068781, 0.42726274624008315, 0.4316996182641201, 0.4361220858500921, 0.4406028937053079, 0.4451048104051945, 0.4496201600538076, 0.45415317469184135, 0.4587127737474956, 0.4632796012261284, 0.4678370586350498, 0.4724424800656458, 0.4770635157080277, 0.4816982525660884, 0.48635038108451395, 0.49098325020555783, 0.4956696307140954, 0.5003686820754267, 0.5051002661083351, 0.5098220531905195, 0.5145447625391167, 0.5192949351288075, 0.524057238716318, 0.5288187236706342, 0.5336059371343117, 0.538365611998263, 0.5431781088260853, 0.5479982159084635, 0.5528384945151308, 0.5576718977649457, 0.5625312201728202, 0.5673776619355033, 0.5721978339674341, 0.5770641094314573, 0.5819352695083274, 0.586809137857291, 0.5916891370398554, 0.5965600221333723, 0.6014481932385723, 0.6063381684020142, 0.6111897433686126, 0.6160869212350075, 0.6209893825637071, 0.6258814966508529, 0.6307714698520253, 0.6356552259639918, 0.64053993149979, 0.6453936527084274, 0.650273431494622, 0.6551466027284301, 0.6600452410045149, 0.664899698310821, 0.6697153516122958, 0.6745604746534583, 0.6793957314683438, 0.6841861659228454, 0.6890040881815331, 0.6938118084251436, 0.6986011717200199, 0.7033759133793573, 0.7081028921288854, 0.712850578663704, 0.7176014804306712, 0.7223090058793366, 0.7269982276130703, 0.7316520903652967, 0.7363043371524752, 0.7409041738878066, 0.7455161514785692, 0.7501031630390853, 0.754650179216408, 0.759187292651047, 0.7636967210002805, 0.7681778401718132, 0.7726299691822706, 0.7770885061787247, 0.7814758483677433, 0.7858411323249611, 0.7901678537915382, 0.7944634256688764, 0.7986652447722837, 0.8029027488372705, 0.8070913120753221, 0.8112533361653208, 0.8153753093609594, 0.8194999379800386, 0.8235343328888736, 0.8275290260860758, 0.8314828944846981, 0.835394826814326, 0.8392546914927834, 0.8430806083353104, 0.8468102400854687, 0.8505501549018415, 0.8542395509399862, 0.8579085625509256, 0.8614912656948321, 0.865016090363232, 0.8684974602616, 0.8719258897675349, 0.8752896601048198, 0.8786109361265413, 0.8818507248321318, 0.8850620076839838, 0.888214070403896, 0.8913478520507323, 0.8943743622788993, 0.8972571667847233, 0.9001757904311412, 0.9030288344187705, 0.9058647853860724, 0.9085795774126951, 0.9112304869689252, 0.9138166733852304, 0.9163373052561724, 0.9187644646273971, 0.9211549627132034, 0.9234470556140896, 0.9257016400636957, 0.9278839583726305, 0.9300243663599701, 0.9320571720835283, 0.934007435321232, 0.9358975158572308, 0.9377139195359971, 0.9394434247373934, 0.9411123482640115, 0.9426816852008075, 0.9442009156063313, 0.9456418074149792, 0.9470456374992117, 0.9483237618483121, 0.9495340380067561, 0.9506566047613878, 0.9517015227915738, 0.9526572934094074, 0.9535463468755265, 0.9543426430820946, 0.9550726208320814, 0.9557209030594087, 0.956278163212343, 0.956763328633985, 0.9571220990218138, 0.9574464926611008, 0.9576850736771451, 0.9578741648823926, 0.9579371013674033, 0.9579167451566839, 0.9578129224685075, 0.9576254801814179, 0.9573506737533367, 0.9569960765980761, 0.9565519104403235, 0.9560296656135591, 0.9554229200729659, 0.9547244994856148, 0.9539498373927087, 0.9530561514827839, 0.9521165898961396, 0.9510907382638406, 0.9500007385116651, 0.9488009395371307, 0.9475011488613029, 0.9461361847233857, 0.9446870818547828, 0.9431560549002659, 0.9415396720773614, 0.9398549351101149, 0.9380715188496574, 0.936206929634967, 0.9342307697723677, 0.932208682891737, 0.9300956889309269, 0.9279116383495394, 0.9256464908621627, 0.9233352833653286, 0.9209057379219747, 0.918415406826022, 0.9158301472842633, 0.9131696522121467, 0.9103837123232553, 0.9075803088302418, 0.9047163566663572, 0.9017582085661878, 0.898726009530717, 0.8956223505448162, 0.8924441900885511, 0.8891348665284997, 0.885821962196385, 0.8824358166382111, 0.8789795704330875, 0.8754506757646552, 0.8718958832220893, 0.8682242155932638, 0.8644881361343818, 0.8606487287894798, 0.8567913586664602, 0.8528717179147435, 0.8488871954382677, 0.844841144744535, 0.8407510169518464, 0.8365834274748809, 0.83235698092394, 0.8280765719070308, 0.8237411346845416, 0.8193626104875421, 0.8149190691153655, 0.8103630414517701, 0.8058261952404413, 0.8012369852188737, 0.796602436854338, 0.7919125943912335, 0.7871772084720432, 0.7823939009972658, 0.7775662522669397, 0.7726776108297088, 0.7677677917686376, 0.7628637928842457, 0.7578672688871491, 0.7528352690065235, 0.7477327723933308, 0.7426377442509043, 0.7374652694447241, 0.7323090217606336, 0.7271191996180614, 0.7219156741414786, 0.716661785683656, 0.7114113140005497, 0.706100476237326, 0.7007670899870722, 0.6954123929177135, 0.6900376388176698, 0.6846151928243662, 0.6792077990867121, 0.6738060566692567, 0.668361566910795, 0.6629036218190436, 0.6573829552281916, 0.6519084482683448, 0.6464396805849241, 0.6409399814996063, 0.635432411174331, 0.6299329324093277, 0.624412305667152, 0.6188638034462345, 0.6133425445724218, 0.607819959689694, 0.6022686847176429, 0.5967516929607283, 0.5912435157528069, 0.5857304813232698, 0.5802227767483789, 0.57476890692039, 0.5692704968520422, 0.5637538459197364, 0.5582853150204667, 0.5528296632665661, 0.5473936475232688, 0.5419670630626598, 0.5365558140300647, 0.5311649830391507, 0.5257936638653271, 0.5204123794859499, 0.5150876523077641, 0.5098331463042209, 0.5045465835254416, 0.49928703709902417, 0.4940265635947784, 0.48882759406762616, 0.48361898832238537, 0.4784826271896886, 0.473374834505816, 0.468325977812412, 0.46327599591168267, 0.4582549908325288, 0.4532755402122601, 0.4483322657995206, 0.44340454128800255, 0.43853948645551527, 0.4336943977457922, 0.4289088326802763, 0.42416252490774076, 0.4194440254039114, 0.4147813590510626, 0.410204005829169, 0.4056208999440695, 0.40108437573875516, 0.39655896073949665, 0.39212212743759256, 0.38774442887278454, 0.38339988572803246, 0.37910431204774997, 0.37485661276091786, 0.37066130859962126, 0.36654220241441055, 0.36244614833913774, 0.35840365634961563, 0.3544114826724917, 0.3504776753907396, 0.3465278691685983, 0.34271225808019445, 0.33894789637173905, 0.3352935121715109, 0.3316270181130547, 0.3280193380882491, 0.32446684965461975, 0.3209718971699102, 0.3175581465851604, 0.314175831181164, 0.31081133233931696, 0.3075529582483897, 0.3043515412210818, 0.3012037747222636, 0.29811760961360045, 0.2950546815109478, 0.29208820049728434, 0.2891777635510394, 0.28634908619367433, 0.2835487445001802, 0.2807888711453266, 0.2781079050157467, 0.2754844767538642, 0.27295121044455384, 0.27043902141152354, 0.2679538603997901, 0.2655645822935705, 0.26323243683389574, 0.26094112042191464, 0.25872511732552184, 0.25660300894317983, 0.25449409120056204, 0.25244313767943616, 0.25042441595886067, 0.24849125519459425, 0.246634966765604, 0.24480918951951017, 0.24303925832514042, 0.2413264716399681, 0.2396664699509375, 0.2380391829883794, 0.23649015247082592, 0.23499317889707072, 0.23355328122449692, 0.23215850249659487, 0.23077323888850992, 0.2294853049739875, 0.22824500761303215, 0.2271189396421929, 0.22596466219111794, 0.22482652804870165, 0.2237765671106655, 0.2227732525981007, 0.22177619543223107, 0.22086923727433894, 0.2200119176476407, 0.21918848251721051, 0.21840703020860983, 0.21771397103499832, 0.2170088303001623, 0.2163302551035154, 0.2157117678756361, 0.2151331074716538, 0.21460060883768486, 0.21409801089377029, 0.2136293454430468, 0.21320133226686105, 0.21280873866818406, 0.21243799034036656, 0.21211504578440085, 0.21179692089697372, 0.21154040217793493, 0.21131259686761436, 0.2111417637894336, 0.21096575696947648, 0.2107999717882646, 0.21068183709322366, 0.21058900528785204, 0.2105152170735117, 0.2104711387130431, 0.2104476811739504, 0.21044784146021397, 0.21046862113037598, 0.21053444752718006, 0.21059066300372156, 0.21062654073577705, 0.2107254836354053, 0.21083940240642837, 0.2109639265184119, 0.21110595521672562, 0.21130918473783075, 0.21146910200980915, 0.2116425693950642, 0.2118283608916299, 0.21202528463113418, 0.21217798632074983, 0.2124005761821831, 0.2126278636001689, 0.21289533690445991, 0.2131254983118094, 0.21334411847063142, 0.21358476078558997, 0.21382720737884986, 0.2141157761976393, 0.21435358991057105, 0.21452456723072197, 0.2147734775152974, 0.21501798937836827, 0.21528825655265096, 0.2155183935124916, 0.21570978886194744, 0.21593455781082746, 0.21615125585103312, 0.2163846090607897, 0.21658025488231697, 0.216774727733919, 0.2169518474036263, 0.2171193599445499, 0.21724210123771756, 0.2173922392291685, 0.21755368058289518, 0.21767214958580197, 0.21777704492170694, 0.21786041914588067, 0.21793693478579856, 0.21801362090600537, 0.21805529806205576, 0.21808059706256014, 0.21809783653660397, 0.21808712539391878, 0.21801332717977012, 0.21797177469317652, 0.21790839585984484, 0.2178373738652243, 0.21772769665356106, 0.21761242183030483, 0.2174565635641746, 0.21726991247332078, 0.21707115249521805, 0.21684910776777566, 0.21658170609233895, 0.21631466686446577, 0.2160490930407203, 0.21572719758873352, 0.21538085436715476, 0.21500064200723287, 0.2146054062222572, 0.21418232532884438, 0.21373500582431929, 0.2132610933484657, 0.2127640142857777, 0.21223591479963938, 0.21166465378815869, 0.2110846350968671, 0.210476483915214, 0.20984020223692293, 0.20917579547616463, 0.20850495165239397, 0.20778159112040553, 0.2070313731644099, 0.20623609153333644, 0.2054340494206964, 0.20460922317624186, 0.20375018222574157, 0.20286343848619964, 0.20195809429058814, 0.20101502929373033, 0.20001973707262127, 0.19902604334252116, 0.19800411257129433, 0.1969452122334172, 0.19586884724874126, 0.1947971509631155, 0.19366135122370715, 0.19250026688182875, 0.19130857928371842, 0.19009794357147525, 0.1888530784932914, 0.1875934217181775, 0.18630854353521845, 0.18500240109138458, 0.18366766619008765, 0.1823378800612704, 0.18095192795864104, 0.17954435165812738, 0.17809361710797897, 0.17664600710064068, 0.17517791927353019, 0.17368594970425844, 0.1721726846696207, 0.1706421848126144, 0.16908722874325952, 0.1675071439478188, 0.16591391235388295, 0.16430159862933683, 0.1626418308641026, 0.1609966107795631, 0.15934675809983662, 0.1576623302490715, 0.15596118432498937, 0.15423311357559344, 0.15250179616657522, 0.15076588203839889, 0.1490030380951582, 0.14722678591495986, 0.1454503782104768, 0.14364753558904753, 0.1417976952884034, 0.1399781984750719, 0.13814684939185887, 0.1363460310826946, 0.13448820366789846, 0.1326106467399992, 0.13074068849939993, 0.12886383902087092, 0.12699152565349361, 0.12510129702204484, 0.12319392961772185, 0.12129683677096709, 0.11939560529572407, 0.11748186013345273, 0.1155754661127128, 0.11362846433262756, 0.11172225409095883, 0.10981269517182797, 0.10790261118655188, 0.10598913144699493, 0.10405906216588566, 0.10214785045197847, 0.1002371112198817, 0.09836933465851005, 0.0964570667233644, 0.09452862069846912, 0.09263057925141628, 0.09073780175299484, 0.0888834805915416, 0.08699913175197375, 0.08510036980243087, 0.08323750360711217, 0.08138315285371836, 0.07957404437108297, 0.07773394028831741, 0.07585014635340419, 0.07404202735406754, 0.07224366991514977, 0.07048115001048164, 0.06870143940018159, 0.06693335784480683, 0.0651812320271666, 0.06344340827118405, 0.0617348321159243, 0.06002526071370783, 0.05833768543569453, 0.05666094138087769, 0.05500180399530499, 0.053340730822651616, 0.05172031486750983, 0.050126434947902365, 0.04854039462545412, 0.046973369219660006, 0.045405892812864834, 0.04388061868296923, 0.042434052461141014, 0.04093997200929665, 0.039469388254387255, 0.0379952123021058, 0.03657510649344577, 0.03519335636470433, 0.03381570367370885, 0.03246168277363745, 0.031138689986029235, 0.029831538788354903, 0.02857063698202459, 0.027310019348959057, 0.02607546140793125, 0.02489403332315205, 0.023708114167054057, 0.02259854441925196, 0.021461430140246103, 0.020354315421339662, 0.019273096930840762, 0.018225047015607135, 0.017220005082536245, 0.01622699125590432, 0.015262896805411477, 0.014359966622074132, 0.013448836179116366, 0.012553330641426871, 0.011703781591416529, 0.010882764031973005, 0.010164180656100637, 0.009390407165610017, 0.008623639377566765, 0.007916984037395986, 0.007239953905590912, 0.006606705848774293, 0.005986259962950763, 0.005417173983852668, 0.004853058262811818, 0.004319296196554814, 0.003904014426278988, 0.0034186473799741684, 0.0029567381094148895, 0.002540366005816422, 0.002155864783445161, 0.0018387084951456264, 0.0015114973473609524, 0.0012164561908127693, 0.0009528570524277636, 0.0007200622062884919, 0.0005319647151486725, 0.0003573438022037798, 0.00029595718631733755, 0.0001706077979608025, 7.912762417834547e-05, 2.768920520962134e-05, 0.0, 1.4628428089042616e-05, 4.775118643870379e-05, 0.00011150421257843064, 0.0002268784039377045, 0.0003471730079262958, 0.00046136089336571616, 0.0006456242242024336, 0.0008566678818000547, 0.0011304071438535464, 0.0013898211533690161, 0.0017316517968884303, 0.0020402028840857695, 0.0023791519267838965, 0.00274407882235203, 0.0031419462328280538, 0.0036093873129775995, 0.004057504252326016, 0.004534939991719269, 0.005068015002925064, 0.0055984157437738, 0.006152147129332459, 0.006739960581083073, 0.00735475843047313, 0.00804113123301384, 0.008702533659224852, 0.009352170734548425, 0.01007377576732711, 0.010848562701381055, 0.01161477231858689, 0.012406313756303054, 0.01325702913642886, 0.014093499630284865, 0.014964955436866299, 0.015851559414748893, 0.016763428686660503, 0.01773611467173633, 0.018692273229185874, 0.01967055370719158, 0.02067793330754315, 0.021709512228482195, 0.02275753598370571, 0.023836899678985803, 0.024983801520833994, 0.026101892949940867, 0.027244299177434858, 0.02843208289051106, 0.029618603636599995, 0.030798305499092155, 0.03203589254798803, 0.03329452100821701, 0.03463720106356463, 0.035929295504241156, 0.0372074711231264, 0.038551742176679005, 0.0399166738320634, 0.04135807095764329, 0.04275668297834825, 0.04414787947434678, 0.045596390104900596, 0.04706539957000218, 0.048580013419513055, 0.05008629699435797, 0.05159054419170272, 0.0531423828378495, 0.05471377740041044, 0.056302886895515644, 0.05791353127313535, 0.05961582348848592, 0.06125612455339407, 0.06291990775221949, 0.06460300896349425, 0.06631263794841243, 0.06800979679550331, 0.06976716148177542, 0.07154388685193878, 0.07336171850837152, 0.07517463721523815, 0.07703184739263695, 0.07888332950516527, 0.08075680110719158, 0.08262675419357028, 0.08454679646725706, 0.08647424515180001, 0.08843610050526376, 0.09041752772248869, 0.09243320657054102, 0.09445262806042404, 0.09653284106200613, 0.09858943105474562, 0.10066950120663024, 0.10280175039680368, 0.10492456050735711, 0.10701419176992581, 0.10919326181097544, 0.11139316879582299, 0.11366658171394893, 0.11590237723509973, 0.11813206793899425, 0.12042080220500014, 0.12273215684569559, 0.12508076693311349, 0.12743609311232246, 0.12977929461551088, 0.13218728714442055, 0.13461745372206257, 0.13710453357420646, 0.13957593679629196, 0.14208708143584617, 0.14460732115104585, 0.1471538493998229, 0.1497013796168833, 0.15230372427935657, 0.15493103555551657, 0.1575836000496347, 0.16026170002503698, 0.16300535599126925, 0.16573033219593272, 0.1684658318044762, 0.1712502152163271, 0.17406210248527879, 0.17689081461874923, 0.1797595700140999, 0.18264850435590352, 0.1855732568162031, 0.18852555147372613, 0.19152738851427673, 0.19453298218631676, 0.19753394369668795, 0.20060337265557524, 0.20370080502411936, 0.20684832872721398, 0.2100002314070287, 0.21317347531269465, 0.2163874297544771, 0.21963157644542197, 0.2228754406892692, 0.2261845509009614, 0.22954087100790332, 0.2329064404348986, 0.23630303484845253, 0.23973991770169395, 0.24319809744475, 0.2466758102855281, 0.2502000590600937, 0.25375599868105203, 0.2573221568923243, 0.26094481746695836, 0.26460212868498784, 0.2682867363157454, 0.272003204221234, 0.27578066394648004, 0.2795578535956793, 0.283358288072281, 0.2872049322483266, 0.2910848911781331, 0.2950144373861197, 0.29895900534444897, 0.3028800130103603, 0.3069002435901463, 0.3109512041615753, 0.3150693621110917, 0.3191781747276296, 0.3233025374037871, 0.3274807623338493, 0.331691379044719, 0.3359253855190857, 0.34020199338919177, 0.3445267602921614, 0.3488651443351512, 0.35323637127068375, 0.3576276353897805, 0.36206565451967154, 0.3665136140456312, 0.3710175171621397, 0.3755516112465309, 0.3800960584328902, 0.3846931028419134, 0.38934087132796336, 0.3939933369597542, 0.39867614844992527, 0.4033818676456615, 0.40812562155456167, 0.4129040213668894, 0.4177053143945531, 0.4225356512019515, 0.4273694114212521, 0.43226002322934154, 0.437193466218837, 0.4421349810358979, 0.44710356292675973, 0.45210061569823207, 0.4571218734751023, 0.4621021874286832, 0.46718320730650487, 0.4722853931441886, 0.47743947659604175, 0.48258009266898355, 0.4877145155825124, 0.4929037511085178, 0.4981131291021238, 0.5033387472305636, 0.5085879403352602, 0.51385964721114, 0.5191457631269417, 0.5244500895109439, 0.5297395645110612, 0.5350827491618656, 0.5404604434986826, 0.545830003102237, 0.5512144749657544, 0.556582480365172, 0.5619986212860658, 0.5674186244331718, 0.5728573435071043, 0.5783056655792121, 0.5837792878736593, 0.5892430232154781, 0.5946738848720134, 0.600159384236219, 0.6056495227452809, 0.6111401341336985, 0.6166382854621144, 0.6221480643306564, 0.6276495694214568, 0.6331527373787296, 0.6385952853007498, 0.6441069241526813, 0.6496195159808388, 0.6551210793087302, 0.660597608882889, 0.6660906960179378, 0.671576113969573, 0.6770713014963993, 0.682537147309993, 0.6880213490432112, 0.6934653214829157, 0.6989001102865317, 0.7042449848301345, 0.709667719624088, 0.7150477843695536, 0.7204383540629867, 0.7258088393416059, 0.7312056604755411, 0.7365283067522477, 0.7417954777862418, 0.7470828395946669, 0.7523464905194762, 0.7575656604231261, 0.762781658550423, 0.7679627732077754, 0.7731235063869498, 0.7782543981531654, 0.7834141601556105, 0.788475079046537, 0.7934416289471569, 0.7984505944419451, 0.803423594551391, 0.8083398324342556, 0.8132405983533936, 0.8181628150752743, 0.822975008735549, 0.8277488999695388, 0.8324595600250149, 0.8371555098699943, 0.8417570068964583, 0.8463704334392983, 0.8509347996167165, 0.8554511462858249, 0.8599148196064664, 0.8643415543363402, 0.8686997165778901, 0.8730054650484846, 0.8772414700962654, 0.8814412271928405, 0.8855609460490799, 0.8896496142467466, 0.893678495110379, 0.8976431872939307, 0.9015505528769923, 0.9054153428407113, 0.9091944612736734, 0.9129105444662771, 0.916540875113545, 0.9201305162848891, 0.9236383558958983, 0.9270942834037198, 0.9304803565901996, 0.9337795738011788, 0.9370257450434277, 0.940193447723989, 0.9432935489920744, 0.9463189596752175, 0.949278056684994, 0.9521509581931005, 0.9549422360256602, 0.9576626407714611, 0.9603049921978659, 0.9628450828623939, 0.9653321286450658, 0.9677665442618739, 0.9700863461143638, 0.9723251781368853, 0.9744515516350708, 0.9765300136761901, 0.9785199023004307, 0.9804284385871878, 0.9822508824483431, 0.9839885994294421, 0.985637304467686, 0.9871950776811356, 0.9886691475786109, 0.9900547954885993, 0.9913606470688514, 0.9925670977549387, 0.9937115394517098, 0.994735906128497, 0.9956718203648042, 0.9964608609131478, 0.9972253897581763, 0.9979164069944922, 0.9984916603809983, 0.9989746408360287, 0.9993543351685376, 0.999653633939181, 0.9998704190346854, 0.9999816095253625, 1.0, 0.999856846084588, 0.9996980451876553, 0.9994622413171599, 0.9991077074457603, 0.9986584277306617, 0.998093014473799, 0.99745784462014, 0.996734784282308, 0.9959089159613932, 0.9949892126500623, 0.9939706099204568, 0.9928649838195146, 0.9916807298873591, 0.9903875171659704, 0.989002836943648, 0.9875251722389246, 0.9859586756089631, 0.9842834800647214, 0.9825383714493866, 0.9807023822053729, 0.9788031734142072, 0.9767836952313642, 0.9746837969418678, 0.9724884859584197, 0.9702067203122354, 0.9677648285383303, 0.9653207453536435, 0.9627963989954522, 0.9601737024572704, 0.9574644232783689, 0.9546641278668523, 0.9517853125567013, 0.9488153052359758, 0.9457704712537288, 0.9426432570428608, 0.9394274811766152, 0.9361395442690472, 0.9328134796082062, 0.9293620209615696, 0.9258353803594247, 0.9221999750575638, 0.9185295715158607, 0.9147609161557191, 0.9109450793408066, 0.9070554240026727, 0.9031257933503356, 0.8990883516038614, 0.8949665875669998, 0.8907960955791293, 0.8865586960545525, 0.8822447517801435, 0.8778785199896072, 0.8734484007370636, 0.8689557081889409, 0.8644017558759053, 0.859766180624775, 0.8550963956057878, 0.8503482149389768, 0.8455653928303934, 0.8407259135251829, 0.8358711490624149, 0.8309181888329848, 0.8258830870763554, 0.8208362193234883, 0.8157403845782878, 0.8106314387651855, 0.8054379157167926, 0.8001892676932151, 0.7949136079883762, 0.7895972337048065, 0.7842270709721828, 0.7788352395628435, 0.7734186942344391, 0.7679520713629643, 0.7624518459240902, 0.7568814975437532, 0.7513231195976735, 0.7457387035737549, 0.7401184718627505, 0.734470549158818, 0.7288309033438037, 0.7231281742531473, 0.7173503647617847, 0.7116140318740283, 0.705856423800583, 0.7001154593875251, 0.6943160626416917, 0.6884972556715017, 0.6826719566942611, 0.6768351581272309, 0.6709738589176366, 0.6651202401558214, 0.659291177600643, 0.6534190909672889, 0.6475439808184017, 0.6415984720943991, 0.6357298247159546, 0.6298690028119491, 0.6239948256027676, 0.6181219196017709, 0.6122609851176207, 0.6063944443595468, 0.6005219260065559, 0.5946718057164279, 0.5888089153154676, 0.5829808942137074, 0.5771636168192197, 0.5713966713454113, 0.5656009903045714, 0.5597904720331144, 0.5540354650727011, 0.5482987173668221, 0.5426123965812101, 0.5369126195557005, 0.531188312257724, 0.5255442950882023, 0.5199239914449086, 0.5143686355621075, 0.5087951568005536, 0.5032031680568646, 0.49769741020274316, 0.4922212246077222, 0.48684827767348793, 0.48142626782974635, 0.47601304338841083, 0.4706707386375387, 0.4653658729272383, 0.4600831423401038, 0.454858062940911, 0.4496687277610004, 0.44452386999944155, 0.4394202379318507, 0.4343444005628475, 0.4293280774472889, 0.42433887765848893, 0.419412416426626, 0.41453046609469035, 0.40973024325833873, 0.4049359513471187, 0.40012445315133643, 0.3954385148832778, 0.39079971890766096, 0.38621643928416327, 0.38167437792894787, 0.3771866848844306, 0.3727465411906213, 0.36835902475668875, 0.3640645996308447, 0.3597794298306006, 0.35555114184305847, 0.35138000226072263, 0.3472662767996296, 0.34320480897237565, 0.33920738121122346, 0.3352317072916185, 0.3313549019447264, 0.3275345126515882, 0.32376747379377036, 0.3200619627760351, 0.3164466685056248, 0.3128528733559255, 0.30931940843985184, 0.30584273201410517, 0.30243058690706104, 0.29904803845773215, 0.295760453431858, 0.2925315613156953, 0.289356217157625, 0.2862461700890468, 0.28317712476576223, 0.28018767192292254, 0.27725657831413075, 0.27440213801226127, 0.271586105926365, 0.268824536786712, 0.2661288676889045, 0.26349257092723793, 0.2609426376868469, 0.2584213070317908, 0.2559044484810469, 0.25351072084221615, 0.2511734734402054, 0.24892704818286202, 0.2466984165363471, 0.24453529329205217, 0.24242188380993807, 0.24036628860784606, 0.23834269915377515, 0.2364043684636145, 0.23452085417897636, 0.23269181555859977, 0.23091687678166634, 0.22919020950497304, 0.2275228976116457, 0.2259423856735708, 0.22437523407330334, 0.22286154630063373, 0.22134453051119854, 0.21994248369296143, 0.21861369176058074, 0.21730404816918422, 0.21604307871627826, 0.2148427935161151, 0.21367564697872232, 0.21251075515777051, 0.21144335552750165, 0.21041923984789132, 0.20944518973732384, 0.20850534463599693, 0.20762035314423416, 0.206762683231583, 0.20594661433314218, 0.2051297922161371, 0.20439974840103212, 0.20372458065039317, 0.20306536409712334, 0.20244289721983214, 0.20185280980922504, 0.20130200194046344, 0.20081971860071923, 0.20033217706909412, 0.19987914739657348, 0.1994504827731305, 0.1990642922660987, 0.19869616687892433, 0.19837200040034292, 0.19807584721389807, 0.19779778854589405, 0.19755613575621608, 0.19738446619026323, 0.19718590877261716, 0.1970130183515641, 0.19682663157071512, 0.19670622348129632, 0.19659854441346575, 0.1965181309764472, 0.19645559766929538, 0.19645892695450826, 0.19642359433330117, 0.1963775539387154, 0.19638104256331843, 0.19639869408766175, 0.1963862353502612, 0.19643494521754862, 0.19647819225074353, 0.19654615091732908, 0.19662113625440844, 0.196749603978014, 0.19683112221141041, 0.1968863153681083, 0.1969871623889068, 0.19709208491010194, 0.19722567712562866, 0.19733344615542583, 0.19748612036814872, 0.19759440575251092, 0.19770651004717477, 0.19776157578005052, 0.19788518153929507, 0.19806711833558235, 0.1981761768151692, 0.19828437383960784, 0.1983147175353017, 0.1984274781689593, 0.1985337220472824, 0.19862924650465852, 0.19871579368540299, 0.19883086268839764, 0.19889332604373852, 0.19893853545274282, 0.19898490035394542, 0.19902096810338635, 0.19906412997930553, 0.199075314570759, 0.1990535647710124, 0.19904420561312078, 0.19902086492362614, 0.19897398013684728, 0.19892223733755365, 0.1988688966173122, 0.19878280039204138, 0.19868061474824183, 0.19856722319812534, 0.19843058584241474, 0.19826216376795608, 0.19809216812931715, 0.19790301419226072, 0.1976961543573069, 0.19746740259879791, 0.1972004959890503, 0.19693351007545326, 0.19664475768465223, 0.19635033167761762, 0.1960154908492109, 0.19564122633753073, 0.19526565100526333, 0.19486712000281092, 0.19449790268019315, 0.19404648212770376, 0.19355843670486797, 0.19306780685142563, 0.19255489248571964, 0.1919724364237113, 0.19142005943520676, 0.19082393213546198, 0.19022265477410183, 0.18959503411270986, 0.1889395641366476, 0.18826035745800218, 0.18760791218720652, 0.18687106974772097, 0.18609935873122446, 0.18531945507281397, 0.184516232141551, 0.18367159265395744, 0.1828239416100155, 0.18198806074215984, 0.18108730590627592, 0.18016458964597123, 0.1792162014745712, 0.17824976922285235, 0.17727365093082573, 0.17626100916178705, 0.17522688175183102, 0.1741351517309947, 0.17306269976617664, 0.17195063410664524, 0.17083394464834523, 0.16969381980046871, 0.16859944950743977, 0.16740538978939062, 0.1661445575478709, 0.1649206199453221, 0.16367590765990428, 0.16243797411473376, 0.16114965687993785, 0.15981274999765252, 0.15849280173619795, 0.15715377126697827, 0.15577453153322185, 0.15440172489324633, 0.15305542078048198, 0.15164029998899056, 0.15021046079553194, 0.14872827588570167, 0.1472747498863167, 0.14583609307617687, 0.14434769279093243, 0.14284654005435862, 0.14133846830712066, 0.13981238630589907, 0.13828057261515023, 0.1367319262969527, 0.13517329985783835, 0.13359246708913192, 0.13201675938979973, 0.13044252453049568, 0.1288472978099313, 0.12724448495048019, 0.12561110712232368, 0.12399762196604559, 0.12235692006678738, 0.12073199007063899, 0.1191000538817213, 0.11748004490719641, 0.11583438762466176, 0.11419067432756907, 0.11253802082696436, 0.11088347098897541, 0.10920232122606566, 0.10754893874993297, 0.10591929570156808, 0.10426040624649024, 0.10260294639884866, 0.10096552339989938, 0.09931027087207812, 0.09761032772642107, 0.09596981960062435, 0.0943314969145059, 0.09271245751517332, 0.09107893597582568, 0.08944912880963721, 0.08782749560528033, 0.0862125090313823, 0.08461381604038734, 0.08301281414082722, 0.08143161798412551, 0.07984769198765544, 0.07827436629752071, 0.07669580751066388, 0.07514702229696399, 0.07362909800240777, 0.07210035942493256, 0.0705848740849123, 0.06909026601912101, 0.06760157722610721, 0.06613860658516586, 0.06467866884425333, 0.063234956139177, 0.061755377625934464, 0.060351647688918854, 0.058956725582233714, 0.05758289917321618, 0.05622448116871352, 0.05490206835907771, 0.05357408914727257, 0.05227552525672012, 0.0509837762285222, 0.0497120929932692, 0.04845358189058163, 0.04722393764960757, 0.04597881121497604, 0.044795408550089406, 0.04363137058379026, 0.04250721243730391, 0.041381274456385286, 0.040311928750652204, 0.0392265383725564, 0.03816602226099362, 0.037144868323660214, 0.03613239888173007, 0.035142158647458184, 0.03418179367931081, 0.03324701887931139, 0.03235232310849129, 0.0314670263964926, 0.030550473609882525, 0.029725542421745094, 0.028923847369691082, 0.028136812725774007, 0.027384058115736257, 0.026680564660015674, 0.02597295927779537, 0.02529151039017869, 0.0246345269190934, 0.024005951581397275, 0.023439865155827036, 0.022859529052540087, 0.022307741874277545, 0.02179691714852307, 0.021299955241180342, 0.0208623284390994, 0.020418456159521908, 0.02000440300833533, 0.01958175631140078, 0.019230756963680224, 0.01894048201846898, 0.01863790379892046, 0.0183635640897668, 0.018127972500239304, 0.017907778938530815, 0.01769565099591231, 0.01753349716003271, 0.017397499018830545, 0.017365198103641486, 0.017271278896022802, 0.017250817218451002, 0.01721085474057405, 0.017201969834361806, 0.017196090418289976, 0.017249962745519216, 0.017366887972529024, 0.0174695518469168, 0.017600235536576168, 0.017812436097510306, 0.01799028383232522, 0.018181039140509156, 0.018418321718691576, 0.018682052178992, 0.019013145155316553, 0.019322676719077857, 0.019671907146391047, 0.020033140523201223, 0.02042060586915083, 0.02085883920441371, 0.021293382521338534, 0.021795079768143884, 0.02227482198432185, 0.022781061215822532, 0.023296589766352276, 0.02385512990747141, 0.024512565287999274, 0.02510700540250356, 0.02572767166773485, 0.026382530082781127, 0.02705142196451662, 0.027767662411806247, 0.028480480626731593, 0.029216902985076506, 0.02994897615081838, 0.030733555619531682, 0.0316011398302664, 0.032416885823866246, 0.033255202344799485, 0.03411705706465042, 0.034997858001572915, 0.03594242414312579, 0.036857944566804794, 0.03779513343058144, 0.03875133424749871, 0.03972962929085961, 0.04075430092324417, 0.04176713611496969