0.030806256639518744, 0.03040206940088338, 0.030034830183330953, 0.029668952392379506, 0.029348139234046784, 0.028978851923497976, 0.02861286171169742, 0.02824968798290094, 0.027888914212225523, 0.027519501752349754, 0.027163853745074636, 0.02677941391391819, 0.026429132578494368, 0.026077820743153516, 0.02576597932870545, 0.025407960564943103, 0.025043306649508826, 0.02468948547218448, 0.024336510889571367, 0.023971262106036197, 0.023621445406409362, 0.023298882284818235, 0.02294561874450006, 0.02259401162150619, 0.022220188011051207, 0.021874499908504447, 0.021581001832916082, 0.021228785105056474, 0.0208797064310335, 0.02047530655722401, 0.020138961966173322, 0.01984084549135215, 0.01949796561954217, 0.01915688442424373, 0.018829384406688958, 0.018490166174581543, 0.018099813128667305, 0.017771743817279452, 0.017442702649498907, 0.017141511857807015, 0.016807919486295803, 0.016493680893694025, 0.016160965309148286, 0.015830843774760225, 0.01547590410253975, 0.015154083303818594, 0.01485675652511308, 0.014533609693828614, 0.014212848005407171, 0.013877795037354302, 0.013563726856351106, 0.013254518072590314, 0.012942702954482417, 0.012632588104537754, 0.012292195116135069, 0.011989712377942505, 0.011770372421357138, 0.011457852523771572, 0.011150659763824244, 0.010811587019301756, 0.01051849221446207, 0.01024891781050559, 0.009957469288072096, 0.009669435589551202, 0.009365692175897564, 0.00908649887933033, 0.008809311597629915, 0.008534211124832098, 0.008261276972109237, 0.008055853238935033, 0.007779233548339372, 0.007492061689725641, 0.007229215141951801, 0.006970662842556071, 0.006755370677912994, 0.006499910605843778, 0.006214865648912424, 0.0059755239860715065, 0.005739439640644431, 0.005568315156725603, 0.005330950235858719, 0.005078983840968558, 0.004857380702766162, 0.004640498889429321, 0.004474471774104173, 0.004260780215495637, 0.004058822929090981, 0.0038580878115002178, 0.0036638411766462737, 0.0035469615599247333, 0.0033557905699931456, 0.003199242677787956, 0.003023603025542897, 0.0028577310802468726, 0.0027317732982214066, 0.002579533718274645, 0.0024737997521555523, 0.002335709539977832, 0.0022082407999158417, 0.0021179686738513307, 0.0020062659424270298, 0.0019476508005553327, 0.0018506880688497387, 0.0017654179422655068, 0.0016875629449844304, 0.0016241101347465286, 0.0016142924530378625, 0.0015644178490758498, 0.0015261695973142844, 0.001510902504938532, 0.0014929849017832244, 0.0015170046008259575, 0.0015170499467966308, 0.0015293910273611515, 0.0016094159035524018, 0.0016382429528015304, 0.0017065495701801894, 0.0017607781695552136, 0.0018299536593816405, 0.0019242208392990635, 0.0020204559434113508, 0.002202181310288212, 0.002317699427222552, 0.002451004324285675, 0.002595470235163438, 0.002763164819461341, 0.0029917427024815577, 0.0031850557617789503, 0.003396261091420433, 0.0036225373201409167, 0.0038685997329930767, 0.004159892996608405, 0.004435738330041254, 0.004729773004867368, 0.0050346738704392085, 0.00536546441392084, 0.00575996379441609, 0.006119844964888211, 0.006499969873790301, 0.006906077283587781, 0.0073254394542251085, 0.007765035055832573, 0.008224842780270018, 0.00870490311280305, 0.009271762920391753, 0.00978425660524005, 0.01031284351711185, 0.010874869822668267, 0.011460291441299529, 0.012064292556940878, 0.012696964163892837, 0.013391908963019242, 0.01406600272322047, 0.014765739884036589, 0.015462546721888747, 0.016216957916005335, 0.016983463077386508, 0.01778761235859317, 0.01861570746623246, 0.01949904581113024, 0.020372465003767052, 0.02125390700138323, 0.02218393761290881, 0.023140323882956393, 0.02412702139433923, 0.025136856891501937, 0.026208849901839856, 0.02727019094963973, 0.02840822405646903, 0.02952463301911429, 0.03067427470341037, 0.031829643664006924, 0.03304863737059154, 0.03429771961693868, 0.03557961722859224, 0.03689315478715784, 0.038232657505442705, 0.03961101742285782, 0.040975228275818336, 0.04242404923036991, 0.04390310478651129, 0.045447534715166514, 0.04698484417618796, 0.0485860353242108, 0.05018835074181229, 0.05182719799181849, 0.053506222949787366, 0.05521796957859578, 0.056927626920905666, 0.05871859676282029, 0.06054472459609857, 0.062417178246252585, 0.06431371327635545, 0.06622011084770568, 0.06819474663442032, 0.07020567591055223, 0.07227598720914324, 0.07435824411416912, 0.07649501010835136, 0.07865374533082657, 0.08085295095574747, 0.0830654632967635, 0.08534945842937362, 0.08768467497869079, 0.09004625345427991, 0.09244857885188305, 0.09492036723660893, 0.09740128774514657, 0.09990150823582143, 0.10247148133150731, 0.10508314821959457, 0.10776639102754004, 0.11045833414935843, 0.11316577979686014, 0.11594924105817783, 0.11877501316847652, 0.12158991774430734, 0.1245077124949772, 0.1275224030902261, 0.13051347969683522, 0.13354884431691888, 0.13663326938270964, 0.1397566883702888, 0.14286540853985868, 0.14608558401342062, 0.14934704013409847, 0.1527012703983381, 0.15604017949904245, 0.15940784918344805, 0.16283949929993274, 0.16631538132899962, 0.1698177293940841, 0.173384412410681, 0.17696946552098022, 0.18062601144464274, 0.1843246817508171, 0.18810372003529838, 0.19188259719013212, 0.19570876041568577, 0.1995769814543925, 0.20348988141650953, 0.20745199793381947, 0.21145302607193586, 0.21549243075918315, 0.219582571471164, 0.22371617449444908, 0.2278906557252825, 0.23211084286896813, 0.2363653952360444, 0.24067175870447208, 0.2450198810393912, 0.24938941477404505, 0.2538230618722973, 0.2582825121235654, 0.2627979739461633, 0.26735249746386935, 0.27197097000870013, 0.27660032092945963, 0.2812414142710465, 0.28595444291405175, 0.29070534686655786, 0.29551057331052394, 0.30033458774930916, 0.30521102939436623, 0.31010920201198666, 0.31504551186347274, 0.31999328866765436, 0.32500748027909315, 0.33004715308900234, 0.33513213207878556, 0.34025079900982075, 0.3454123030199333, 0.3505960771465995, 0.3557749607851679, 0.361029178763777, 0.3663132837813853, 0.3716554992441718, 0.3769949526492779, 0.38235071896442946, 0.3877524377315526, 0.3931826136172839, 0.39864543705446115, 0.404130230250195, 0.40965267546946915, 0.41518938930817434, 0.420752309877006, 0.42630148327577483, 0.4319193795983983, 0.4375565111528548, 0.44321742718354984, 0.44889877824308366, 0.45462729171295674, 0.4603443244616727, 0.4660850682230787, 0.4718410555004956, 0.4776155943307962, 0.48335672376519134, 0.48917201117216735, 0.49503815026514253, 0.5008738643753311, 0.5067234754506647, 0.5125516334870277, 0.5184305714155596, 0.5243613630025743, 0.5302524879711131, 0.5361537441102134, 0.5420272445380231, 0.5479501208882813, 0.5538504940553398, 0.5597856185051024, 0.5657224049337327, 0.5717124428498926, 0.5776440288390069, 0.5835366496313603, 0.5894774333860842, 0.5954160886205584, 0.6013434769420303, 0.607276398151206, 0.6131792171956585, 0.6191040723917952, 0.6250206109993399, 0.6309233740540425, 0.6368216916632456, 0.6426877818521826, 0.6485662524645607, 0.6544309903627372, 0.6602872090812407, 0.6661215175728256, 0.6719211226109564, 0.6777254830759165, 0.6835111990323663, 0.689303553102909, 0.6950461639311147, 0.7007689968164804, 0.7064709006473107, 0.7121507203439595, 0.7177574588338195, 0.723395937075321, 0.7290036840854333, 0.7345849878774581, 0.7401362348910262, 0.7456720210300963, 0.7511586725677027, 0.7565743675756383, 0.7620013167578186, 0.7673921414491343, 0.7727567574832459, 0.7780716453868187, 0.7833201059643722, 0.788561729848098, 0.7937618496209898, 0.7989268097581594, 0.8040406537309935, 0.8090646697775974, 0.8140963281722341, 0.8190799419516586, 0.8240647482228747, 0.828944106418519, 0.8337050443547419, 0.8384978066349336, 0.8432370522880218, 0.8479376487674747, 0.8525661760615569, 0.8571520767777869, 0.8616692839384773, 0.8661309755575214, 0.8705231313313974, 0.8748725396380056, 0.8791521173220843, 0.883383715495475, 0.887494505239526, 0.8916098674721356, 0.8956588389054391, 0.8996482076643205, 0.9035624363430301, 0.9073477843644668, 0.9111349043556295, 0.9148502294722866, 0.9185624562934436, 0.9221250169649502, 0.9255501878617073, 0.9289834167899992, 0.9323424208541689, 0.9356233159199324, 0.9388332956380836, 0.9419736628224235, 0.9450313718588187, 0.9480129763805876, 0.9509191250768493, 0.9537467408858706, 0.9564468228623317, 0.9591247697257538, 0.9617210598822573, 0.9642580578030974, 0.9666875926499083, 0.9690443680332667, 0.9713102429725902, 0.9734945605551204, 0.9755694822915039, 0.9775925119423908, 0.979498815746943, 0.9813562405884776, 0.9831266048030668, 0.9848158004185864, 0.9864111354077462, 0.9879207097713896, 0.989341827472462, 0.9906757083461895, 0.9919043530602407, 0.9930654104732449, 0.9941162719665677, 0.9951023055371179, 0.995998189304243, 0.996799278986378, 0.997515746043285, 0.9981432232839192, 0.9986792709201189, 0.9991253616125546, 0.9994447592657997, 0.9997157328395979, 0.9999149979522657, 1.0, 0.9999949052741589, 0.9998725435196915, 0.9996910742615037, 0.9994420808365466, 0.9990754476387177, 0.9986195727473506, 0.9980567841079107, 0.9974250736085821, 0.9967023628834959, 0.9958914930687216, 0.9949913793642082, 0.9940260863640525, 0.9929454838402795, 0.9917661148754865, 0.9905133754761186, 0.9891734304348624, 0.9877383005602685, 0.9862259984179782, 0.9846341924290538, 0.9829482035347795, 0.9811769271303181, 0.9793302906434233, 0.9773885653566756, 0.9753005667638722, 0.9732004607777636, 0.9710143351512879, 0.9687431889632575, 0.96638798927963, 0.9640007023609047, 0.961473742945616, 0.958868352934703, 0.9561470362815621, 0.9533910571596932, 0.9505584398421577, 0.9476450359408572, 0.9446545478227167, 0.9415795452871633, 0.9384385719554165, 0.9352037039999744, 0.931916273753165, 0.9285547869829907, 0.9251405289095586, 0.9216316988916263, 0.9180117032800771, 0.9143697701240363, 0.9106577084325135, 0.906912388741735, 0.9030593541303302, 0.8991644693492132, 0.8951807052990142, 0.891135658422335, 0.887012301214677, 0.8828492975934407, 0.8786240778440259, 0.874342721154603, 0.8700034700256069, 0.8655551959883443, 0.8611100231680966, 0.8566061303488537, 0.8520475828528616, 0.847434479334824, 0.8428181353794869, 0.8380940150428463, 0.8333046728887228, 0.8284889505614591, 0.8236268191411624, 0.8187004825057254, 0.8137515116639191, 0.8087574723044424, 0.8037222525032074, 0.7986458019213225, 0.7934986199620873, 0.7883476558298698, 0.7831791177523562, 0.777949160319959, 0.7726845804922156, 0.7673641651477404, 0.7620371828770993, 0.7567352488305208, 0.7513387365883977, 0.7459164704123233, 0.7404385818887645, 0.7349716974265613, 0.7294732632051456, 0.7239597475576836, 0.7184240543151041, 0.7128711197726109, 0.7072947390042226, 0.7016850500916211, 0.6960761728282456, 0.6904511753909753, 0.684809113994421, 0.6791564442069651, 0.6735024291577697, 0.6678257500760274, 0.6621404090344722, 0.6564227555443359, 0.6507270431393155, 0.645002514030044, 0.6392985634419391, 0.6335899496765132, 0.6278912989687985, 0.622176378376468, 0.6164870222502359, 0.6107715726077638, 0.6050608054034684, 0.5993249509439686, 0.5936307021071139, 0.5879450346057005, 0.5822642382104118, 0.5765924248020325, 0.5709462779800979, 0.5652942265941759, 0.5596296157396765, 0.5540090212229868, 0.5484026271981884, 0.542815253334731, 0.5372405562087162, 0.5316637680063142, 0.5261289227862437, 0.5206132776324526, 0.5151560571698074, 0.5096777240167394, 0.5042136733513598, 0.4987874429673812, 0.4933872342274349, 0.48802939193283523, 0.48268202045522085, 0.47735713939030583, 0.47207065019302286, 0.4668148981532253, 0.4615218812522167, 0.45633876926557676, 0.451201592261995, 0.446076374466486, 0.4409840335927688, 0.4359019013730833, 0.43088145771501757, 0.4259466277806872, 0.4209900184687344, 0.41607301544866654, 0.4111582189674794, 0.4063269428866831, 0.4015312821205169, 0.39677966384376917, 0.3920686885808315, 0.38743356433224524, 0.3828018646868022, 0.37818176706765444, 0.373644317174236, 0.36918383850302944, 0.3647303296535652, 0.3603236961494876, 0.3559227152284689, 0.3516160122035151, 0.34736901729561576, 0.34315208511636386, 0.338982642508909, 0.33486586463407253, 0.3307920590649969, 0.32678382636619324, 0.3228061502887606, 0.3188789672064994, 0.3149810544190943, 0.31115796594741135, 0.30733591928966, 0.3036186662215344, 0.2999489382775421, 0.29632380492985555, 0.2927513901091909, 0.2892362744440989, 0.2857612422106924, 0.2823365002903678, 0.2789943463500348, 0.2756668619654902, 0.27237549119519955, 0.269155431387204, 0.2659869013770099, 0.26287582627356343, 0.259809557533981, 0.2567748839260999, 0.25381457804543794, 0.25090464472679813, 0.24803085192677435, 0.24522345241668805, 0.24245486662026655, 0.23974782759308258, 0.23708968518280624, 0.23449826382521796, 0.23193568969900302, 0.22947752957781106, 0.22700745717994827, 0.2245897505783834, 0.2222070657280317, 0.21989403466878907, 0.21763034855084046, 0.2154155058160792, 0.21324901239980626, 0.2110805404903502, 0.2090155856297688, 0.20697099432823313, 0.20499715206057834, 0.20306586145726135, 0.20119256136262068, 0.19934439385441277, 0.19755965881699797, 0.19579516341597739, 0.19407443131830557, 0.19236845531256241, 0.19073725732975763, 0.18915373008809153, 0.18760240436259082, 0.18609133293580798, 0.18465447003156174, 0.18321815579867293, 0.18181902018348775, 0.18046383083699177, 0.17914759118135523, 0.17787193031585716, 0.17663106613690718, 0.17537723802071514, 0.1742156856754689, 0.17308673842240568, 0.17202804367302368, 0.17095848532185168, 0.16991069284248111, 0.16890914913520827, 0.16793907599226884, 0.16697372164257895, 0.16606794623404258, 0.1652186967259173, 0.1643649560572898, 0.1635399144147828, 0.16273095920355013, 0.16196258049144968, 0.16123780461517273, 0.16051813903397502, 0.1598239814737433, 0.15916164934771018, 0.15851521111374806, 0.15786738553478138, 0.15727033375476135, 0.1566937738595279, 0.15612405480820776, 0.15558832421769495, 0.1550752736439502, 0.15457428725162944, 0.15409043545438786, 0.153651599256713, 0.1531966092603194, 0.15269682008863847, 0.1522825903872019, 0.1518801164367825, 0.15150094831525993, 0.15111949387812976, 0.15078973588576972, 0.15042535632399764, 0.15007352544212982, 0.1497025103012957, 0.14937706596592512, 0.14904801531203252, 0.14874003938017252, 0.14843854563406889, 0.1481537439472355, 0.14786243835126056, 0.14758981232915017, 0.1473075131943127, 0.1470303831016164, 0.14673043312824863, 0.1464650208982189, 0.14619764805342347, 0.14593545696309074, 0.14567379835580266, 0.14545022484771333, 0.14518355865545238, 0.14488385260741227, 0.14462353252341828, 0.14436118552950977, 0.14411894843490616, 0.143848463685369, 0.14359614984984134, 0.14331851093237688, 0.14303882638413543, 0.14272196675832444, 0.14244043349050936, 0.14216476091342592, 0.14186939126398904, 0.1415680323473954, 0.14125433104812662, 0.14094049769887526, 0.14063454938580322, 0.14030335078178546, 0.1399648200078996, 0.13959952989893054, 0.1392474367232277, 0.13892247951932393, 0.1385462144530036, 0.13816192485010426, 0.13770858011794174, 0.13731439933752942, 0.1369311142624785, 0.13650834569262854, 0.13607421912239914, 0.1355965399498094, 0.13514328622972455, 0.13472626037929486, 0.1342395961952, 0.1337423192165093, 0.13322816058648443, 0.1327094319641415, 0.1321349346305569, 0.13159783073422948, 0.13104601708395014, 0.13052121666499072, 0.12993527739575378, 0.12934220383102357, 0.12873169337656531, 0.12810917598913624, 0.12747920176054792, 0.12683150921974973, 0.126162077003, 0.12549093771701228, 0.12480673968752101, 0.12406436795248554, 0.12335970279990746, 0.1226785873878693, 0.12193813703288674, 0.12118501472762899, 0.12038482042588339, 0.11961075927571163, 0.11883641910095222, 0.11803185410852755, 0.11721421758206743, 0.11634809181020739, 0.11550935787416138, 0.11473085736542593, 0.11385408846605131, 0.11296789327907283, 0.11206733042802168, 0.11116234781739336, 0.1102056995550644, 0.10928568252278208, 0.10835319558571106, 0.10738488448371679, 0.10643158194973273, 0.10552016325748857, 0.10453509142577734, 0.10354142284374152, 0.10251427678525224, 0.10150671240839348, 0.10047986438077298, 0.09945424219234018, 0.09841894114032593, 0.09735774530517373, 0.0963063689172412, 0.09531437099946996, 0.09423590386509563, 0.09310774895607601, 0.0920257039158706, 0.09093640597422237, 0.08987107928329838, 0.08876448593088584, 0.08761787880172349, 0.08650707556980079, 0.08539012478899191, 0.08426155325836597, 0.08313442652229756, 0.08206268624316579, 0.0809181199614937, 0.07977275933651135, 0.07855774404084694, 0.07741944230434444, 0.07634534845725809, 0.0751897613664498, 0.07403469168343213, 0.07281728442505855, 0.0716713557938504, 0.07055350139774873, 0.0693987703226456, 0.06824427118516425, 0.06706186968995799, 0.06591247462810361, 0.06475445190428605, 0.0636060470297252, 0.062457992088890364, 0.061325123895920465, 0.0601777283342147, 0.059060475417610996, 0.05791572575729958, 0.056776143007466966, 0.05559204788492798, 0.0544695996528922, 0.053380909170883, 0.05226098098958788, 0.05114687522029372, 0.050043631723924197, 0.04894145058247583, 0.04782013181109484, 0.04673544323019055, 0.04565677061314656, 0.04461781093204992, 0.043548357624808263, 0.04248100769648031, 0.04143103877621837, 0.04039018312103992, 0.039366969013308044, 0.038343958554388866, 0.037350189519750415, 0.03634545222371542, 0.035352372615393306, 0.03431164698124062, 0.03334949646688241, 0.03238871326600945, 0.03144500969995151, 0.030510495510556297, 0.029599957612831372, 0.028683619411548126, 0.027801330040174484, 0.026905458114615, 0.026022958411422503, 0.02517765681512202, 0.024319184901173775, 0.023428245009278915, 0.02260568583256783, 0.02179531701510665, 0.021047323157821644, 0.020256041879678912, 0.019468836986891322, 0.01871080995290922, 0.0179678236479478, 0.017248200005397462, 0.01653430041702721, 0.01583598034467561, 0.015153211662336732, 0.01448597927729535, 0.013798679422795397, 0.013167016829283573, 0.012528731404715252, 0.011927022743122462, 0.011338305995406243, 0.010758237882268921, 0.010197267069954326, 0.009657211383798475, 0.009123239229566099, 0.00860403645861002, 0.008123506188275242, 0.007631323253674404, 0.007131935648333888, 0.006675710427193443, 0.006234483414928464, 0.005803600886679168, 0.005393225446179664, 0.005042884185063386, 0.004656755905083565, 0.00428820796504281, 0.003909606252047772, 0.003578671776832828, 0.003277075577673542, 0.0029744836932565823, 0.00268767200272414, 0.002450866290004598, 0.0021907082641423985, 0.0019061835251978805, 0.0016851590804210313, 0.0014781071848921923, 0.0013004082682444979, 0.0011192006671957644, 0.0009680836717084366, 0.00081404901578774, 0.0006751394634508879, 0.0004893290653678105, 0.0003875294467078803, 0.00034038969940589715, 0.00025476976230297835, 0.00018276489112956123, 0.00015737674602796182, 0.0001077297005430199, 1.5936062411206955e-05, 2.629657301897078e-06, 0.0, 3.41882924778908e-05, 4.968574103459362e-05, 4.411521590875872e-05, 8.787158667525114e-05, 0.00014140675751620694, 0.00025457295659608056, 0.00032137129914497147, 0.0003995057127862117, 0.0004910255111854082, 0.0005940794323339293, 0.0007046925105743139, 0.0008300395853558803, 0.0009477335783941009, 0.0010952914762518268, 0.0012513413562001794, 0.001450125750011551, 0.0016182879610314508, 0.0017892146839405, 0.001977572645565064, 0.0021744957563962822, 0.002328592972289354, 0.002548017163202019, 0.0028112486681878815, 0.0030351009232973316, 0.003265925174358171, 0.003477306235362607, 0.0037244542105129724, 0.00397263846835812, 0.0042293448251177895, 0.004490257126874017, 0.00476595760320789, 0.005033617107752714, 0.005322339990933056, 0.0055965582276853955, 0.005875671967994152, 0.006135564976043102, 0.006426334123057263, 0.006726676025714116, 0.0070212951894415366, 0.007318442736900069, 0.007595334869895488, 0.007899674430153604, 0.008233035526946274, 0.008534794261311315, 0.008838541894302191, 0.009171233910183672, 0.009474506000798634, 0.009749462746708027, 0.010061182540151278, 0.01037268735267871, 0.010702751711996939, 0.011010789572456159, 0.011322600543240973, 0.01163024928825548, 0.011937599855852327, 0.01225853571130094, 0.012562440762441892, 0.012810064447171995, 0.013119588891056034, 0.013424674764749307, 0.013731345801052777, 0.01402704492227166, 0.014322380480748971, 0.014609742099323987, 0.014893283293146483, 0.015169345141718572, 0.01544539003083795, 0.015704039948569587, 0.015972959042214525, 0.01623660995978817, 0.016525842090105203, 0.01677502619679155, 0.01706332834216848, 0.01729960765885897, 0.017534100697501113, 0.017708054346645012, 0.017944564247418273, 0.01821946841673432, 0.018436903087814833, 0.01859680402324269, 0.018812357953661017, 0.01902008867443871, 0.019297261504963137, 0.01947996887202827, 0.0195906870246795, 0.01977521959381312, 0.019951686625647745, 0.02010952705313595, 0.020271551095098796, 0.020486918786367842, 0.020624571787709985, 0.02075761307975396, 0.020844125719153377, 0.020972085942246435, 0.021116997685151632, 0.021225940332458917, 0.02132844426313368, 0.021454029999100385, 0.02153948746833496, 0.021547404079684817, 0.021631372156169167, 0.021705504380608986, 0.021818788644417816, 0.021868067864709233, 0.02187673185748836, 0.02191780596446764, 0.021950466578961922, 0.021996242907775507, 0.022009869603065325, 0.02202624079803415, 0.022025128638123396, 0.02201772979800857, 0.021964789671822638, 0.021949502787869123, 0.0219527960249646, 0.02191690619026322, 0.02187435863822265, 0.02184652241138685, 0.02178799530581552, 0.021689649539124514, 0.021624523813759434, 0.0215518132122329, 0.021455097474813615, 0.02136988547154536, 0.02129806359896119, 0.021194509667337248, 0.021084756920311205, 0.021008046175896456, 0.02088119128581481, 0.020714987920130327, 0.020584911116880406, 0.020448679118620503, 0.020304059630588473, 0.020156239439134353, 0.020014417959529678, 0.019853519973897088, 0.019687733961295664, 0.019481518466422754, 0.019310641633546618, 0.019188854651677575, 0.0189979323650693, 0.01880417325835115, 0.018592021900212682, 0.018394186087130587, 0.018176931317316382, 0.01797314702047297, 0.01776468587924592, 0.017607548387988645, 0.01738335799359072, 0.017109629912806037, 0.016889580053272363, 0.016665482718785155, 0.016451822791682794, 0.016218557357274607, 0.015950716026827825, 0.01571653735276108, 0.015478248811190516, 0.01525996392822857, 0.015011570523738868, 0.014740105565186267, 0.014491107898449394, 0.014239441281253233, 0.013985403880075086, 0.013729275697325665, 0.013508106462927232, 0.013243921397410189, 0.012980457648171191, 0.012704589619255685, 0.01244402733556786, 0.012170257994504677, 0.011911140533748213, 0.011651346653998659, 0.01143856010977644, 0.011172056496767708, 0.01089986191217541, 0.010639452267458918, 0.010380857793066021, 0.010086062149051096, 0.00983579298640761, 0.009560227882603752, 0.009312683442532362, 0.009063995912131063, 0.008836010835090882, 0.00858375091827493, 0.008376785033605413, 0.008121946146587518, 0.007871341380912503, 0.007615300269107791, 0.007373866901685224, 0.007117903709769591, 0.006885253333541834, 0.006654874367799736, 0.0064340511035221645, 0.0062078019241021375, 0.00598944577867253, 0.005768979137889713, 0.0055521066484290615, 0.005324642979983666, 0.005116928000558454, 0.0049442261316507505, 0.004738589644284074, 0.004538078417556559, 0.004344968954701515, 0.0041541399241215885, 0.004002755834494786, 0.003817583383151267, 0.0036392791893178574, 0.003468730428926534, 0.003303162413914501, 0.003123596971652301, 0.0029727511178492387, 0.0028266242937315007, 0.0027054379408350446, 0.0025663508399749067, 0.002461759790198469, 0.0023310084833699104, 0.00220770320309961, 0.002124789486845479, 0.00201137973547626, 0.0019267463145519938, 0.0018275695441166142, 0.0017373479838864983, 0.0016425675371398083, 0.0015705960089532722, 0.0015210988990406067, 0.0014611097441199093, 0.001408745412996628, 0.0014385477272602263, 0.0013913731019616618, 0.0013282008458613723, 0.0013063659712305308, 0.0012929950344836103, 0.0013554413468587856, 0.001349644260823553, 0.0013910090789866457, 0.001403153569877768, 0.0014275992625869996, 0.0014742565038870013, 0.0015197644146323097, 0.0016331667704473877, 0.0016928065721362713, 0.0017655987984540207, 0.0018625927907072071, 0.001957868328348759, 0.0020625140118631377, 0.002181012924570817, 0.002310097478607882, 0.002477895944370315, 0.0026235742241716136, 0.0028304443703904038, 0.0029921504522598336, 0.003167334647519525, 0.0033494375076443725, 0.003550560521266377, 0.0037881899214683343, 0.004009052873782369, 0.004242405789936759, 0.004562656196959149, 0.004810560667432828, 0.005060082030423703, 0.005340755342632071, 0.005635123062893763, 0.005946354047888984, 0.006266572579414951, 0.006636544058723418, 0.0069778515372595235, 0.007333864321853259, 0.007745740133283651, 0.00812486987388648, 0.008514215921425917, 0.008925905802299301, 0.009352531246881478, 0.009814007217062201, 0.010267248817564236, 0.0107739579799249, 0.01125315273524065, 0.011749569979778723, 0.012285341460453895, 0.012812198472318799, 0.013350623948602133, 0.01391287687746895, 0.014491666916107402, 0.015067855371230435, 0.015681722506917756, 0.01634637389496526, 0.01698626573943964, 0.017623500126378786, 0.018300881028418193, 0.018994508965289973, 0.01975319819465246, 0.020473670981546663, 0.02119466936169518, 0.02195638153280389, 0.02273622800886329, 0.023544965918963916, 0.024359989137010502, 0.025218973925586904, 0.026068991361763327, 0.026939599458797515, 0.027814098158325376, 0.028727773215343047, 0.029682338122083454, 0.03063254212807021, 0.0316038289500896, 0.032559438302354415, 0.033577651782696644, 0.034629293854507574, 0.03568449152521965, 0.03676047643456864, 0.03789429856883009, 0.03900799938837567, 0.0401216132323413, 0.0412855768245895, 0.04247183078940511, 0.043712644291067485, 0.04494012218607256, 0.04613187339046329, 0.047416573585110186, 0.04872267534210456, 0.050080382366324054, 0.051427115852139646, 0.05278063280624617, 0.05417899208030672, 0.05560135770217474, 0.057054023145124116, 0.0585247174581483, 0.06005638912790168, 0.061573610860493254, 0.06311874907844307, 0.0646917809881246, 0.06629271511880024, 0.06792277484901159, 0.06957949888383094, 0.07126437520707671, 0.07296207268888458, 0.07470550910634234, 0.07646470641609547, 0.07826516785663779, 0.08009312784331697, 0.08195725274088185, 0.08384022412301131, 0.08571303646033593, 0.08765921089811225, 0.08963268580895349, 0.09167080459998163, 0.09369585767128956, 0.09570672834232039, 0.09779944569812721, 0.09992083054546265, 0.10208444674426509, 0.10426300527833357, 0.10649847710313966, 0.10873563665766996, 0.11100562456927403, 0.11329424163362718, 0.11563181802336767, 0.11800750593509594, 0.12040886854941278, 0.1228430939103475, 0.1252723251204816, 0.12777742301752887, 0.13032546067944803, 0.13289161888982115, 0.13549030371808235, 0.13813718189191915, 0.14079966761295495, 0.1434772137116799, 0.14621024653142228, 0.1489763634927503, 0.1517876304118137, 0.1546189907096567, 0.15747869980473597, 0.1603794152268177, 0.16331415483717207, 0.16625807428134443, 0.1692642262577989, 0.17233641837980448, 0.17540423606996935, 0.17850717398799668, 0.18162258790779057, 0.18479832547012331, 0.1879933897004974, 0.1912381471606677, 0.1945158215755078, 0.1978158886241162, 0.20116117881175366, 0.20459017650610015, 0.20799452180372205, 0.21143466096175811, 0.2148639737528271, 0.21838054723342332, 0.2219388384806994, 0.2255187374460355, 0.22913151142862415, 0.2327960784148364, 0.23647197516680904, 0.24017798421266973, 0.2439213936693678, 0.2476977124132946, 0.2515173672758794, 0.2553573903395276, 0.2592206546936404, 0.2631269920176441, 0.26706482523083974, 0.27105524230500466, 0.2750525433631729, 0.2790484730855481, 0.28311321621655433, 0.2872070241527954, 0.29132378373398193, 0.29547590606699015, 0.2996442781248411, 0.30385392744661477, 0.30809058698675124, 0.3123362912732867, 0.31662868729920635, 0.32096072758261235, 0.32530200442591234, 0.32966918126457107, 0.3340714161971567, 0.33848816030649104, 0.3428899060570393, 0.34736195894975863, 0.3518561060931472, 0.35640301064786817, 0.3609368233868063, 0.36547593908145837, 0.3700576243899254, 0.37466023635887247, 0.3792714478216233, 0.38391600391038544, 0.388614957439004, 0.39329216600060807, 0.3979892519615357, 0.4026816887175354, 0.40741915603688555, 0.4121799264551118, 0.41694827317698585, 0.42173200856780024, 0.42648654262356217, 0.43130454376921473, 0.4361677974701388, 0.4410027635460806, 0.44584972009646084, 0.4506841911286657, 0.4555558896821526, 0.46046327910021995, 0.4653477397448642, 0.4702409314543013, 0.47508858964900885, 0.4800033986305449, 0.4849071037336047, 0.4898295456001734, 0.4947533902054259, 0.49970075347233245, 0.5046232015909047, 0.5095088793096473, 0.5144377579677265, 0.5193641346209477, 0.5243325891749627, 0.5292466659131431, 0.5341590702983741, 0.5390687751258051, 0.5439747573709717, 0.5488214120015347, 0.5537237971276184, 0.5586424559494516, 0.5635213049965718, 0.5683905952002974, 0.5732435159992646, 0.578091791388276, 0.5828586727700258, 0.587689642770935, 0.5925024230742103, 0.5973002240621598, 0.6020750443203563, 0.6068270288151694, 0.6115631481056051, 0.6162785375356745, 0.6210045613067441, 0.6256723668639135, 0.6302882259859953, 0.634916687390182, 0.6395202075234772, 0.6441169636550835, 0.6486657445066074, 0.6531216873645854, 0.6576250621780664, 0.6621318480636869, 0.666565844143004, 0.6709685846083885, 0.6753356027677074, 0.6796735478630646, 0.6839428649972075, 0.6882158184040695, 0.6924507898495561, 0.696638818303538, 0.7007968723753832, 0.7049250791857503, 0.7090000355920316, 0.7130336441182313, 0.7169491170176533, 0.7209070915405285, 0.7248477426146837, 0.7287051974329303, 0.7325155935268495, 0.7362319833749691, 0.7399520762386904, 0.7436548282502083, 0.7472666829101046, 0.7508278909170047, 0.7542937684845907, 0.7577568867431704, 0.7612096134946008, 0.7645556037535423, 0.7678476758827202, 0.7710196537812031, 0.7742094205336437, 0.7773614524771542, 0.7804274537849132, 0.7834336829224335, 0.7863712039525395, 0.7892570358011138, 0.7920557801634078, 0.7948198305484508, 0.7975191085569782, 0.8001199696289865, 0.8026926181181182, 0.8051723678289928, 0.8076119807930332, 0.8099817107132843, 0.8123146649053481, 0.8145400110308949, 0.8166529046607951, 0.8187461682123941, 0.8207673355019451, 0.8227577472937574, 0.8246288537141575, 0.8263832231730938, 0.8281186369547364, 0.8297797571844562, 0.8313817927934316, 0.8328916979929553, 0.8343488133560997, 0.8357073184347602, 0.8369920773069472, 0.8382025310878666, 0.8393381522782534, 0.8403818315429838, 0.8413684304930775, 0.842277868895786, 0.8430885168963852, 0.8438455381255179, 0.8445151253720019, 0.8451148881827443, 0.8456349454632845, 0.8460385182885136, 0.8464038302804165, 0.8467360285674677, 0.8469319473540718, 0.8470493775775614, 0.8470573026976557, 0.8470211909683272, 0.8469139369501418, 0.8467155141420168, 0.8464373038599574, 0.846048529758012, 0.8456148852077218, 0.84509642294339, 0.8445010719181687, 0.8438249645459766, 0.8430601525507465, 0.8422246451288027, 0.8413315027866031, 0.8403331807308347, 0.8392567295708747, 0.8380631899110935, 0.8368360507336534, 0.8355446683600913, 0.834156812445038, 0.8326912802829629, 0.8311176352757299, 0.8295019054090478, 0.8278187131353181, 0.8260460329436171, 0.8241971582949115, 0.8223070639502549, 0.8203031335347677, 0.8182479836946619, 0.8160964830826415, 0.8138742196809307, 0.8115042568719459, 0.8091508655226741, 0.8067789132955364, 0.8042707833181344, 0.801693381624839, 0.7990519345469378, 0.7963368646887288, 0.7935555224890571, 0.790705930333073, 0.7877900737855804, 0.7847610942143303, 0.7817205665671667, 0.7786189663250281, 0.775444762427331, 0.7722060385435505, 0.7689346519742958, 0.7655659939794089, 0.7621375437801778, 0.7586500448520672, 0.7551042707357482, 0.7514903436466233, 0.7478318027717953, 0.7441109401082163, 0.7403413373426538, 0.7365169554870276, 0.7326566317554443, 0.7287235598145166, 0.7246840666836608, 0.7206576633323846, 0.7165793341427963, 0.7125074485901388, 0.7083222629266455, 0.7040853617942637, 0.6998127484351331, 0.6954969006681565, 0.6911340584784473, 0.6867353242156139, 0.6822818748123012, 0.6778050777931997, 0.6732891945365603, 0.6687366394388333, 0.6641461144152027, 0.659527366051345, 0.6548664668718949, 0.6501730494898725, 0.6453936841592371, 0.6406456083139139, 0.6358796815919306, 0.6310672400557291, 0.6262266907308086, 0.6213274033839009, 0.6164388921225197, 0.6115756554564873, 0.6066307882045223, 0.6016661798343736, 0.5966781767456705, 0.5916779756225568, 0.5866219165957017, 0.5815944292148373, 0.5765503673242062, 0.5715327432149477, 0.5664546827425118, 0.5613773901036425, 0.5562792006476075, 0.5511738034076963, 0.5460479447527607, 0.5409329126320457, 0.5357630553289922, 0.5306455112353143, 0.5255225007877372, 0.5203991423836464, 0.5152693735303983, 0.5101305582737148, 0.5050017491116422, 0.49987447615284547, 0.49473825946453376, 0.4896196799005885, 0.4845178825449663, 0.47940900754018856, 0.4743084186573652, 0.46925765845719525, 0.46417210576390705, 0.45905552935429755, 0.4540046205071279, 0.4489668791230569, 0.44396130957589214, 0.438951236271515, 0.4339113886059548, 0.4289436764585782, 0.4239929371912636, 0.4191139123883635, 0.4141943385201097, 0.4092357061328098, 0.404372510425737, 0.39953114440198445, 0.39474374031418685, 0.3899459128233306, 0.38515751542679677, 0.38041726834849143, 0.37570735031374924, 0.3710236971410998, 0.36637006502094993, 0.3617722731579705, 0.3571782040345384, 0.3525802006366055, 0.3480596316028186, 0.34357221464728044, 0.3391176905284121, 0.33469946998920536, 0.330357345618188, 0.32600634769368503, 0.32169497693740945, 0.3174153586601883, 0.31318559706784277, 0.3089666501930072, 0.30482211964774564, 0.30071743508866167, 0.2966604590484969, 0.29263675584881843, 0.28862574678895475, 0.2846910910806921, 0.2807982560478831, 0.27700496327835605, 0.2731908005290457, 0.2694095428337473, 0.26569162201880786, 0.2620203625418386, 0.2583663856354218, 0.2547930545120009, 0.25123826490376283, 0.24776055280583972, 0.24432810125455953, 0.24094985611579708, 0.23760872933133553, 0.2343542191263586, 0.2311034488923921, 0.22790307720373207, 0.2247068192903192, 0.22161308046603462, 0.21861459268422892, 0.2156107858738408, 0.21265810489737308, 0.20973507525522814, 0.20688700576352162, 0.2040885276227285, 0.20133970267810863, 0.19864056971584584, 0.19598283849655374, 0.1933841667790717, 0.19085725096011127, 0.18835416657593432, 0.18590156640415476, 0.18346007272262205, 0.18111273360681454, 0.17880233366251908, 0.17655166438619602, 0.17434813150082018, 0.17222029258127922, 0.17010761445035047, 0.16806392860941538, 0.1660460450743239, 0.16407751404156984, 0.16212106917338523, 0.16025446153037937, 0.1584182961552849, 0.1566452093886761, 0.1549167571101692, 0.15323757624497888, 0.15159741810984387, 0.14998271174871294, 0.14843355543166756, 0.14692718970005633, 0.14547411052463272, 0.14405137749016886, 0.14266422711384047, 0.14132740109823158, 0.1400320558628975, 0.13879797419717083, 0.137581840135932, 0.13637146410570936, 0.13524191360845894, 0.13415045484527377, 0.13315013527316114, 0.132127014618406, 0.13115805570160669, 0.13021209290958047, 0.12930510470323464, 0.12837680508831417, 0.127552441196296, 0.12674197256993325, 0.12598538628592282, 0.12525980781819937, 0.12461833454373003, 0.12394706577691686, 0.12331350147751786, 0.12270668485137329, 0.12213138290368293, 0.12153807423362603, 0.12102936566458278, 0.12057774219385982, 0.12011716994378036, 0.11968367235114692, 0.11929905436810016, 0.11891463361479544, 0.11854802936629856, 0.11821598949413738, 0.1179078002255517, 0.11760486023307211, 0.11734423012142095, 0.1170732291853961, 0.11685683869057939, 0.11665793896210215, 0.1164702026295651, 0.11630581457175304, 0.1161572927083682, 0.11602418880446162, 0.11590602176473509, 0.11580821455796075, 0.11571761441940438, 0.1156288125246036, 0.11556641603757795, 0.11551575467377166, 0.1155095033274118, 0.11547643792983843, 0.1154588233893897, 0.11544822181785085, 0.11544799691400937, 0.11543593483389446, 0.11545662471388186, 0.11549349160458675, 0.11552573222931092, 0.115563954746671, 0.11563713065025552, 0.11568149193559157, 0.11570059352566602, 0.11575913978876269, 0.1158197827702388, 0.11590449132307559, 0.11596474825334664, 0.11600647350373161, 0.11607181812903461, 0.11613620851330606, 0.11619318197520287, 0.11625483031505875, 0.11631480395022234, 0.11637011302091667, 0.11642169446878826, 0.11644890052939517, 0.11649415653577662, 0.11655331236409794, 0.11658317088227466, 0.11660727297384266, 0.11663106285298044, 0.11664144538238047, 0.11664140944393192, 0.1166380208698431, 0.11662658285140676, 0.11658054752581636, 0.1165549996243095, 0.11656374380294991, 0.11651070022620337, 0.11644898780683337, 0.11639701435384928, 0.11631386498097475, 0.1161941927212243, 0.11609540805208655, 0.11598465899254373, 0.11582840845106869, 0.11569701462539339, 0.11558531835321254, 0.11542014471288269, 0.1152421723499464, 0.11507007899341724, 0.11486320415630388, 0.11458084150818779, 0.11435632875695736, 0.11411493045647651, 0.11388411903759428, 0.11360600750652318, 0.1132868891593061, 0.11298216003023426, 0.11266083886596262, 0.11233134189240802, 0.11197609860213377, 0.11163467725826805, 0.11124399549859319, 0.11083913615570537, 0.11044240897984918, 0.11000566597014241, 0.10949606266685391, 0.10903943895640544, 0.10856535295327126, 0.10807404958408762, 0.10756575693047084, 0.10704424883607212, 0.10650215742006254, 0.1059438851367809, 0.10539094822635234, 0.10479808111189642, 0.10420374997916153, 0.10358018098788979, 0.10294281623071891, 0.10225835246493294, 0.10159739997603326, 0.10096456129199599, 0.10026675794201281, 0.0995170315022907, 0.0987985745891901, 0.09806504207319078, 0.09734641594014437, 0.09657992426851267, 0.09581757084887346, 0.09502409718342293, 0.09421924616185656, 0.09335079505552014, 0.09252980171835573, 0.09173612301992598, 0.09088196493182406, 0.09001694484830863, 0.08913646680727996, 0.0882508004288089, 0.08730350632918961, 0.08640334738724068, 0.08549025652697771, 0.08456967822372588, 0.08363217857654348, 0.08270060881892642, 0.08174019821576824, 0.08077112598413543, 0.07976766526289775, 0.07878570754169872, 0.07785527696982765, 0.07684827008030327, 0.07583681537985763, 0.0748316444615806, 0.07381013920827742, 0.07272097856448863, 0.07170049869346641, 0.07067303882600613, 0.06964876059691405, 0.06860811503562302, 0.06758548478775832, 0.06653343511524612, 0.06547912404937, 0.06444065405753431, 0.0633804897845572, 0.06227847328188984, 0.061223113582129285, 0.060165514279082934, 0.05911455795463701, 0.05805313701041821, 0.05704857103854659, 0.05598019370880152, 0.054915809741688346, 0.05377708299114829, 0.052730587220032016, 0.05170870412029459, 0.05065919246170024, 0.04961222817674967, 0.04859794589078364, 0.047553720367038685, 0.04651745573821569, 0.04548430664704685, 0.04445730208899269, 0.04343310409995411, 0.04241952339490495, 0.04137226096450341, 0.04037740988550877, 0.03938756639096208, 0.03842472919365418, 0.037444082400217106, 0.03645484403462979, 0.03549271136962663, 0.034538402643885725, 0.03360783572470543, 0.03266867569226596, 0.03173842573245404, 0.030819912432829753, 0.02991203255595949, 0.0290008523418241, 0.028116952853300032, 0.027275830075514127, 0.02640975888209319, 0.025557013395800385, 0.024705836703100476, 0.023881586516865894, 0.02308460679380814, 0.022284860605429026, 0.021499427670962672, 0.020691644285524294, 0.01993986667826815, 0.01922921383089201, 0.01849956927572855, 0.017785024110125516, 0.017104718947807667, 0.016418435864602413, 0.0156989438662127, 0.015052225683090887, 0.01441936326805156, 0.013851817954109481, 0.013241484438223875, 0.012626521449943334, 0.012054794230579086, 0.011499583397705276, 0.010930178541213092, 0.010412322036487115, 0.00990609687362066, 0.009419441892406918, 0.008948477582934567, 0.008558793165976887, 0.008111892151791308, 0.007653169258076761, 0.007250452749872766, 0.006865588542086344, 0.006476054607373505, 0.006129815068194909, 0.005841756950984133, 0.005523756930212526, 0.005225096363006663, 0.0049254095198465655, 0.004667418361078728, 0.004410494519117219, 0.004189980526014295, 0.003986237050439617, 0.003806515099265921, 0.0036357801830593514, 0.0034825336928368724, 0.003346777806478276, 0.003228500982172634, 0.00314666507247054, 0.0030608597522997485, 0.003014848691287523, 0.00296299953618401, 0.0029303675879568812, 0.0029237043815694267, 0.0029275287415364173, 0.0029321434732125663, 0.00297504532036326, 0.003034857095542305, 0.003106669571335814, 0.0032004150489091414, 0.0033043867210717035, 0.003431078815431837, 0.0035733467692584528, 0.00370855784939536, 0.0038845570745605434, 0.004099491721016658, 0.004300431829105399, 0.004516873430094721, 0.004711826590125005, 0.004963307716522725, 0.005245404149433866, 0.005520347233167061, 0.005809227235674459, 0.006110718524289219, 0.006427189525522329, 0.006767747255240165, 0.007109508207051856, 0.007464914971804427, 0.007841988951169098, 0.008222781010127493, 0.0086251342977858, 0.009031031641715067, 0.00944994986459661, 0.009853003175763996, 0.010300359748929294, 0.010797121042375422, 0.01125987806760381, 0.011734782276628357, 0.012214225630212761, 0.012712884147436739, 0.01320765600401044, 0.013728455660024374, 0.014258088454049028, 0.014779709648414087, 0.015328408242065349, 0.01589260138818409, 0.016454510578787857, 0.01702382227362341, 0.017634726750444148, 0.018213815551728, 0.0187861177538254, 0.01938391326148757, 0.01998846382799368, 0.02058043681076966, 0.021199866930442724, 0.021825156431510583, 0.02245360895032253, 0.02308644149556525, 0.02374480612725758, 0.024383065772580807, 0.025032187630185977, 0.025679151006283738, 0.02633058344346938, 0.02695164936821444, 0.027615121506010004, 0.02827754418471592, 0.028943869039233187, 0.029611174286172468, 0.030288838972407476, 0.030956543848808683, 0.03162536635496678, 0.03229506698586345, 0.03296540311614775, 0.03365392952137317, 0.03432254949499288, 0.03501461110354587, 0.035681780011944955, 0.036338479264150805, 0.037009405002979084, 0.03768002532429452, 0.03837014460912432, 0.03903651768078958, 0.03967181770432213, 0.04034117677405388, 0.04100767073567317, 0.041654528428446115, 0.042316917547446126, 0.04296672580330186, 0.04362158991698402, 0.04427164354228061, 0.0449168952814024, 0.04555733241288127, 0.046219029712428306, 0.046846425707224415, 0.04747033029270221, 0.048127245162616475, 0.048738677996877894, 0.04930278381490963, 0.049914913618307404, 0.05052125648865461, 0.05111461427643474, 0.05171004526188868, 0.05235125797003074, 0.052927196516848865, 0.05349956827504213, 0.0540085769948213, 0.054579972135433995, 0.05517050722000072, 0.0557222857357927, 0.056267699606656583, 0.056780518283611754, 0.057316139368996835, 0.05786731579722394, 0.058383690523952626, 0.058893420374057134, 0.059404695992626676, 0.05989974759224018, 0.06038948752767905, 0.06087123720147955, 0.06134626139744776, 0.06180493450483209, 0.06226732659860397, 0.0627138028915897, 0.06316201476492737, 0.06360213051323789, 0.06409117089752231, 0.06450807261572444, 0.06491194011789052, 0.06532002959191695, 0.06572216572702383, 0.06610624647306176, 0.06649730692683414, 0.0668906431285726, 0.06726603038268898, 0.06763467333580732, 0.06798699580292375, 0.06834312463666949, 0.0686478885531178, 0.06899470733260402, 0.0693317232739655, 0.06970089278680984, 0.0700142852436734, 0.07027508870201549, 0.07058170162681505, 0.07087939829271216, 0.07119348568727005, 0.07147132685533317, 0.0717391533728276, 0.07200463019163353, 0.07226364292106476, 0.07253648960238705, 0.07278039616365242, 0.07303239266668524, 0.07326468031466275, 0.07349267282278509, 0.07369608793061497, 0.07391774290245175, 0.0740993165691285, 0.07431411996236083, 0.07452159417974485, 0.07476131372198083, 0.07495039120493811, 0.0751188757420035, 0.07530210720752883, 0.0754804685862476, 0.07568498989631758, 0.07585023835373972, 0.07599388440102943, 0.0761562228143593, 0.07631475143944037, 0.07649095942245379, 0.07663956121124489, 0.07677883528478226, 0.07692389360113217, 0.07706631366019506, 0.07719311956855537