0.06831631000074191, 0.06807209775084648, 0.06779198778623567, 0.06758786490027055, 0.06743467545397391, 0.06724408566837965, 0.06706307146825168, 0.06688276279750839, 0.06671770746317322, 0.06650054592850531, 0.06635279172992602, 0.06620573053922098, 0.06612236920766022, 0.06596849566063145, 0.06579090036461938, 0.06564832185952657, 0.06550748148701016, 0.06538317639122289, 0.06524383389166986, 0.0650680770525659, 0.06493873243869214, 0.06480971002992539, 0.06465908771349746, 0.06453456206451391, 0.0644676605614555, 0.06433654875133855, 0.0642097298032776, 0.06406676564708924, 0.06395107022005884, 0.06383853096792784, 0.06372936101403603, 0.0636237705050481, 0.06347928137617839, 0.06338686072826097, 0.06329066063195753, 0.06320305373258629, 0.06311794119088704, 0.06304879912675322, 0.06296844212597674, 0.06283695394461578, 0.06277297770489401, 0.06271090517920759, 0.06270150224005032, 0.06263880249581753, 0.06256587659565589, 0.06251829683976141, 0.06247636311417162, 0.0624328350239818, 0.06240366198004917, 0.0623709337371271, 0.06235457460033877, 0.06234378404339795, 0.06229053986133333, 0.062297651438135586, 0.06234906970341256, 0.06235852733981699, 0.062374793651622185, 0.062423951831264264, 0.06245084425434131, 0.062425035405803735, 0.0624766202959142, 0.06253306211991408, 0.06262074004455145, 0.06268475955146803, 0.06280255726059716, 0.06287554799271373, 0.0629586669181565, 0.06305717519862704, 0.06315897217784942, 0.06319247572717251, 0.06332320334860343, 0.0634587914503918, 0.06362012797585183, 0.06376423195584263, 0.06388593899874381, 0.06404857768378922, 0.06421720859388318, 0.06441821588936168, 0.06459671403388102, 0.06480231416760117, 0.06499564046545728, 0.06519872456208942, 0.06535211386472198, 0.0655820421163038, 0.06583866184010334, 0.06607902160893672, 0.06632767418427246, 0.06656997854469134, 0.06683769350673521, 0.06715240712841263, 0.06743152444877114, 0.06772138354927039, 0.06797364541478844, 0.06829084402586359, 0.06861957495064437, 0.06895229143091772, 0.06929369267080343, 0.06962917941695905, 0.0699905438630442, 0.07037156205654678, 0.07074885227226535, 0.0711358445798075, 0.07155495110026858, 0.07195894140567229, 0.07233714491561931, 0.07276840614043695, 0.07320876014372653, 0.07368999131426694, 0.07414521823414064, 0.07458038036275792, 0.07506246766566294, 0.07555408345208153, 0.07604797882237789, 0.07656008975369301, 0.07712259523422137, 0.07764884524337407, 0.07818726589537928, 0.07877476717501299, 0.07933223600173805, 0.07981246060583526, 0.08040836029548046, 0.0810119981230994, 0.08166829139910461, 0.08228285579778344, 0.08291606834450617, 0.08355202689101046, 0.08419940012187176, 0.08485431283804339, 0.08552450670888585, 0.08621101998593077, 0.08690191310979813, 0.08760367398243857, 0.08829203957264807, 0.08901818336142414, 0.0897701558740213, 0.09051251825783745, 0.09126508112842749, 0.09198321097422972, 0.09276152610486384, 0.09353612581826862, 0.09433095046488778, 0.09513304841905693, 0.09600578182634417, 0.09681518973538167, 0.09759151894356807, 0.09842910241035283, 0.09927677143843609, 0.10013060750804877, 0.10099280915098678, 0.10185963177002089, 0.10273891691137778, 0.10366703608034952, 0.10455711715021945, 0.10545737185032998, 0.10630799884679475, 0.10723489217502293, 0.10815632311152652, 0.10909610236407807, 0.11004115388616625, 0.11100275668322879, 0.11195733168490644, 0.11293480730225157, 0.11389959809664858, 0.11487136496120207, 0.11586285347195553, 0.11684619249950065, 0.11784577555138162, 0.11884151725350786, 0.11984404900202843, 0.12082883921883719, 0.12184680331676784, 0.12284862671202648, 0.1238775578249851, 0.12490928360780384, 0.12591594841592885, 0.12695669927049963, 0.12804122584683247, 0.12907888667869766, 0.13012023242559217, 0.13114824604983907, 0.13219813158471924, 0.1332108530585922, 0.13426910708119474, 0.135326614146908, 0.13639090441356158, 0.1374462474629983, 0.13850514152897295, 0.13955959999716694, 0.14061388752109352, 0.14170122730830276, 0.1427503827826631, 0.14380063632267373, 0.1448514819573065, 0.14590243259711003, 0.1469418834508627, 0.14799305860893106, 0.14904977425965296, 0.15009590855923366, 0.15113990456678364, 0.15218136815428268, 0.1532199136235313, 0.1542291811521527, 0.1552640481229, 0.15629342455689532, 0.15732458317789874, 0.15834156713489397, 0.15939564895896638, 0.1603957962941265, 0.16139221139466006, 0.16232117131951485, 0.16331626316055264, 0.16436726849825445, 0.16533604790980502, 0.16629936000501752, 0.1672269031581177, 0.16818124601618883, 0.16913230150159989, 0.17006795807205113, 0.1709945237845785, 0.17189126074343003, 0.1728012576245307, 0.17372418087096975, 0.17460857617359388, 0.17548280357278537, 0.1763539058812373, 0.17720572667730763, 0.17800770937636476, 0.17884231249292248, 0.17966304876989866, 0.18050139417869246, 0.18129016115911123, 0.18204055285960377, 0.18280741883125884, 0.18355964738647437, 0.18432676550409002, 0.18504545028677843, 0.18576175600802067, 0.18645155943614966, 0.18712760273702786, 0.18775969541438697, 0.1884105094689418, 0.18902592848437205, 0.1896452338804932, 0.19024628909121358, 0.19082904589034017, 0.19139343135563272, 0.19197646751863381, 0.19249911390710078, 0.19300513267513905, 0.19348294533654595, 0.19395581098243578, 0.19437676056654785, 0.1948165424873358, 0.19523537622345707, 0.19564996404959584, 0.19602476345078612, 0.19634978489113974, 0.1966879679533381, 0.1970039963998105, 0.19733687998613392, 0.1976037546013779, 0.19788595270551382, 0.19810814361717347, 0.19831169569087836, 0.19844219594232287, 0.19861354790568383, 0.19876161636188064, 0.1988863884745403, 0.19898783929511754, 0.19910490632199296, 0.19915467317210897, 0.1991961679466642, 0.19920139774601792, 0.19918539155307982, 0.199116194719635, 0.19906053252157785, 0.19899190848583828, 0.19888661210052733, 0.19875778081915077, 0.19856075709533746, 0.19839014925439422, 0.19823773573454012, 0.19800908489705082, 0.1977571159355799, 0.1974445732851966, 0.19715026394259244, 0.19688772478939237, 0.1965348339593468, 0.19615981901426918, 0.19571228577761324, 0.1952985405735615, 0.19492407682798382, 0.1944510061020821, 0.19395635714153456, 0.19339712558529812, 0.1928638094504983, 0.19230571268415428, 0.19172300318298519, 0.1911158467621046, 0.1905308040307946, 0.189869381088467, 0.1891197982693011, 0.18842391582100682, 0.18770256676240288, 0.18696730674759338, 0.18619485172821182, 0.18544142430678776, 0.18461651946739108, 0.18377086785318356, 0.18284684402260487, 0.18196672816133136, 0.18106432170850287, 0.18013615275647135, 0.179184863002138, 0.1781941578637851, 0.17719994287799573, 0.17620510814478207, 0.1751627893416384, 0.174099784848094, 0.17302563230269502, 0.17192085878436222, 0.170763292169328, 0.1696241533220356, 0.16846413734665963, 0.16733011875692821, 0.16612389579420278, 0.16485994323493436, 0.1636251280922083, 0.16237124824852575, 0.16112843514568417, 0.15983397266247917, 0.15855679447327006, 0.1572260334892314, 0.15588138249714495, 0.1544875223667549, 0.15311942811969512, 0.1517298773247062, 0.1503310798531146, 0.14891682787212507, 0.14754322257787805, 0.14609229978556676, 0.14455980238590746, 0.14309566913974453, 0.14161653802191562, 0.14008594401404753, 0.138583440886005, 0.13709729023925796, 0.1355612881386254, 0.13401357233906516, 0.1324769390359905, 0.1309045458211697, 0.12933251011712407, 0.12774141434501893, 0.1261128662977574, 0.12451027356604899, 0.12289880943778445, 0.1213309830576059, 0.11969683117522861, 0.11801749873463342, 0.11637990151515387, 0.11473589761317467, 0.113132390925812, 0.11147122636491069, 0.10980962459670657, 0.10814376144053188, 0.10647599658395503, 0.10481208643353299, 0.10314041767167076, 0.10142329268366233, 0.09975566658120023, 0.09808514294526023, 0.09643279712273196, 0.09475586120435897, 0.09308466742348058, 0.09140781968173672, 0.08973234961457961, 0.08803268231479362, 0.08636448174535974, 0.08476240004124833, 0.08308895354276503, 0.08142157178108139, 0.07975290738327254, 0.07809886875703481, 0.07648424772749449, 0.07483827298533838, 0.07320073668600773, 0.07159209618253445, 0.06996903844486313, 0.0683558486705804, 0.06675254913982892, 0.06515921973574225, 0.06362424335313564, 0.06204519187494103, 0.06046078382680708, 0.058910345848609144, 0.05737187336480882, 0.05589563473579754, 0.05437528304111259, 0.05286289180499812, 0.05137411784051724, 0.04990013208234228, 0.04850782298445737, 0.047055254553345256, 0.045653161799460815, 0.044234139753672214, 0.042835281857174216, 0.04148590303554248, 0.040122595037847826, 0.038802574055508784, 0.03747816477155939, 0.03617548995906719, 0.03491466600753648, 0.03365209040135587, 0.03242665044415232, 0.031206592101137343, 0.030009380204800488, 0.028864576389533183, 0.02770899197550612, 0.026631586805004846, 0.02551776904727919, 0.024431119823191204, 0.023363793830586635, 0.02233127230761099, 0.02135983737486933, 0.020374459226388128, 0.019416858424552985, 0.01851652964057281, 0.017610221475310446, 0.016758997025934277, 0.01590740317314897, 0.015086047671389312, 0.014277977948853481, 0.013518552590132233, 0.012851040016064949, 0.012141390456769402, 0.01146439030979479, 0.010843863336300188, 0.010228298197551913, 0.00964424164989962, 0.00909538913746297, 0.008579380341055955, 0.008088715307286816, 0.0076391650767598665, 0.007311070811578755, 0.0069151538624424545, 0.006556933593220029, 0.0062655902242916926, 0.005977579367878939, 0.005679457204621985, 0.005473368307593462, 0.005301895824723763, 0.005193000036437698, 0.005087640249173819, 0.005050465476027076, 0.0050143655096839285, 0.005016670864516145, 0.005060898930534783, 0.005139025918277746, 0.00523866212661113, 0.005395265319161315, 0.005589068460607378, 0.005855488920089922, 0.006119717918158879, 0.006457041698517751, 0.00679633441898689, 0.00717704858443115, 0.007661998515573968, 0.008116788394727834, 0.008565763214224848, 0.009114849929798788, 0.009704274139696894, 0.010328444643482801, 0.010999208517313515, 0.011745277657556263, 0.012491773767304705, 0.013280509678259592, 0.014083488723157548, 0.014959788796882943, 0.01592651727613994, 0.01687729755257405, 0.017871557901696186, 0.01885339057220143, 0.01994099853757471, 0.021094377225502014, 0.02225861271050493, 0.023464738498913694, 0.02474437855778589, 0.026030521995204, 0.02735498734945066, 0.028729436438305608, 0.030147137761636023, 0.03165812182693451, 0.03315577725242614, 0.034641781580017024, 0.036238032808541175, 0.037876117959693666, 0.039571019150434615, 0.041291289700478885, 0.04309171599798605, 0.04489335327101348, 0.04674007963111552, 0.04861859340542548, 0.050556246122534496, 0.05254300344503782, 0.054566920583208334, 0.05663448800310952, 0.05873629840799996, 0.060891968957346485, 0.0630681531083965, 0.0653121871189981, 0.06759771344952108, 0.06996385890993823, 0.07232787901741597, 0.07471555113916693, 0.07717005303520069, 0.07966702930093629, 0.08225284071881629, 0.08482878648361379, 0.08739771894481438, 0.09006970460099399, 0.09278290145680881, 0.0955967561287723, 0.0983850242679912, 0.1011845470448, 0.10406587972268296, 0.10698908138787407, 0.10999670404923224, 0.1129978489644232, 0.11602244381896701, 0.11911341815196125, 0.12224619069245582, 0.12538154775895, 0.128602131571997, 0.13193586622231757, 0.13522499682232283, 0.1385573738684442, 0.1418711919398303, 0.14529616228757072, 0.14874639327157757, 0.15224955884319072, 0.15579031579110328, 0.15940216454064673, 0.16301412710977162, 0.16665459149648335, 0.1703469530834158, 0.17407776372985853, 0.17786539247985914, 0.18167017632200405, 0.1855119960924024, 0.18939442962559155, 0.19331492303752457, 0.1972787073015965, 0.20127361148354223, 0.20529290018880283, 0.20936382704436174, 0.21346138686097318, 0.21760505794068544, 0.22178360530135652, 0.2259968334105875, 0.23024452927400135, 0.23451904008573587, 0.23883590618669984, 0.24318608939838893, 0.247600925267423, 0.25201309216586404, 0.2564559343599166, 0.2609368204765641, 0.26545085238242205, 0.2699827175398526, 0.27456352841658827, 0.2791752760995912, 0.2838176332736297, 0.28849026186326243, 0.29316683165270463, 0.29790223270710836, 0.30268021857002936, 0.30746904988146706, 0.3122860800757951, 0.3171458007722426, 0.32201627161590785, 0.32693322476049436, 0.33185668155883113, 0.3368080760018771, 0.34177932543506195, 0.34678557599552323, 0.3518062926006805, 0.3568646068246315, 0.36194681039859616, 0.3670543130151152, 0.3721827148080624, 0.377294776867293, 0.38247288884116953, 0.3876704745479296, 0.39283167749675785, 0.39807466126552166, 0.4033518775013103, 0.4086240049156276, 0.4139130415306597, 0.4191854025420362, 0.4245118860267926, 0.4299287912549222, 0.4352742547605992, 0.44063811798858343, 0.44602327486781773, 0.4514210301851974, 0.45684055211410307, 0.4622691959545275, 0.46771275520903066, 0.4730943189741059, 0.47857488285505306, 0.48405439928395355, 0.48955243715294433, 0.49505779677790035, 0.5005702683571485, 0.5060895803081366, 0.511648810287318, 0.5171765465146988, 0.5227118691509203, 0.5282466220430517, 0.5337958541871873, 0.5393184983540011, 0.5448809596364029, 0.5504452368506059, 0.5559941798151434, 0.5615628183319841, 0.5671345894954151, 0.5727011798985627, 0.5782665124494344, 0.5837929330014057, 0.589358797354836, 0.594936314537455, 0.6004896383284813, 0.6060381301710485, 0.6115886340347226, 0.6171247527363113, 0.6226156513232289, 0.6281434762526295, 0.6336613980726299, 0.6392172262314825, 0.6447078632097936, 0.6501341561171518, 0.6556135280818854, 0.6610791852020282, 0.6665324873993066, 0.6719689475628704, 0.6773363600033598, 0.6827485363456539, 0.6881411699396298, 0.6935214277812718, 0.6988731908008194, 0.7041769968080265, 0.7094915158095692, 0.7147832553332635, 0.7200221301881329, 0.725270824331748, 0.7304825728245341, 0.735680724757836, 0.7408517079087651, 0.7459877168383185, 0.7511040840779877, 0.7562007948409896, 0.7612576064387979, 0.7662849250285393, 0.7712412312604212, 0.7762126195535958, 0.7811463421258321, 0.7860498407357267, 0.7909182132960816, 0.7957602015731062, 0.8005554851431401, 0.8053144036109483, 0.8100362099491117, 0.8147201329381863, 0.8193189850720263, 0.8239306162005973, 0.8285364552162695, 0.8330571159534929, 0.8375359773422003, 0.8419183603559812, 0.8463178444464838, 0.8506699186365966, 0.8549741484582498, 0.8592300467395053, 0.863414810121317, 0.867575221134554, 0.8717010386666845, 0.8757562872199978, 0.8797602128155348, 0.883658315139837, 0.887564338005315, 0.8914361921030983, 0.8952262273432101, 0.8989604226032065, 0.9026363314936574, 0.9062572844410053, 0.9097517837332737, 0.9132652040853351, 0.9167156887585796, 0.9201569417306963, 0.9234743266525515, 0.9267479298722965, 0.9299414819773597, 0.9330739847867537, 0.9361185768794824, 0.9391296500913617, 0.9420756455730451, 0.9449559609995645, 0.9477699907256676, 0.9504800112542415, 0.9531643433772784, 0.9557710679525043, 0.958315670024241, 0.9607890396336114, 0.9632279957316191, 0.9655532850465179, 0.9677453509981074, 0.9699376997705806, 0.9720550658526924, 0.97412887917281, 0.9760918912322609, 0.9779775028557565, 0.9797931269347476, 0.9815339012088904, 0.9831604182103013, 0.9847551219296568, 0.9863160438375476, 0.987748373268202, 0.9891046544758902, 0.9903621089828428, 0.9915676099414344, 0.9927240578314344, 0.9937680585050207, 0.9947344762883317, 0.9955745756590397, 0.996390513581484, 0.997093267315321, 0.9977499327677841, 0.9983231934010729, 0.998855967079137, 0.9992576813816401, 0.9995678367632455, 0.9998098981556397, 0.9999705036391069, 0.9999957486419367, 1.0, 0.9999362490397435, 0.9997693559844745, 0.9995194085356941, 0.9991587357990991, 0.9987466867254133, 0.9982579100658591, 0.9976769834889043, 0.9970130180167319, 0.9962755405871387, 0.9954450546359693, 0.9945067777742422, 0.9935161046603734, 0.9924424632499924, 0.9913326201123522, 0.9900882724074123, 0.9887794771270437, 0.987374627759878, 0.9858894321058261, 0.9843277646622417, 0.9826874133631855, 0.9809016169570377, 0.9791125390504597, 0.9773044115878498, 0.9753437794143386, 0.9733059542496412, 0.9711595522361105, 0.9689718720484395, 0.9666631748862383, 0.9643247752287766, 0.9619067527344342, 0.9594230062929797, 0.956846786672663, 0.9542351321083787, 0.9515019432626541, 0.9486962163465358, 0.9457867849388063, 0.9428411593637759, 0.9398132123284811, 0.9367234260663833, 0.9335615810865998, 0.9303210869169819, 0.9270185584258478, 0.9236441895374636, 0.9202028152183149, 0.9166931244176635, 0.9131215803712756, 0.9094772372201345, 0.9057267428657887, 0.9019577652413286, 0.898122879123234, 0.8942269901630748, 0.8902633686705963, 0.8862393963380928, 0.8821522113908353, 0.8780050783501314, 0.8737823380118958, 0.8695205436570573, 0.8651916959233582, 0.8608166895761357, 0.8563856969949671, 0.8519481759661698, 0.8474027075344972, 0.8427926743574632, 0.8381504143716696, 0.8334591751803293, 0.8287217719677435, 0.8239352362290135, 0.8191101818045936, 0.8142318218485849, 0.8093099522579571, 0.8042972969243743, 0.7992974606728509, 0.7942803880489285, 0.7891922634335797, 0.7840652170044713, 0.7788929974479061, 0.7736925667408722, 0.7684062200726173, 0.7631417541409542, 0.7578411569123091, 0.7525227750240391, 0.7471526843836153, 0.7417429045639697, 0.7363145390265373, 0.7308579665660131, 0.7253486145280426, 0.7198431159572555, 0.7143510812208145, 0.7087911898027887, 0.7032110387417901, 0.6976303446734505, 0.6920108075035776, 0.6863310014812106, 0.6806866619071884, 0.6750261637353585, 0.66935835540207, 0.6636688510706106, 0.6579678056254333, 0.6522565147803845, 0.6465362626673143, 0.6408138903874069, 0.6350788228829064, 0.6293630250626958, 0.6236163968468431, 0.6178686686940813, 0.6120781603073266, 0.606336662805274, 0.6006114466078072, 0.5948683989891616, 0.589128647651975, 0.5833822729671924, 0.5776541604440057, 0.5718989367015248, 0.5661889165541688, 0.5604858579812091, 0.5548283893019751, 0.5491390446089465, 0.5434705538266825, 0.5378082038813843, 0.5321618426784515, 0.5264897919827832, 0.5208838264541563, 0.5153408762331992, 0.509763637588878, 0.504208287731458, 0.4986330403492173, 0.4931295675381064, 0.487655728966245, 0.4821969999078138, 0.47676337958030784, 0.4713467122587147, 0.4659678251091386, 0.46061866961445386, 0.4552964173094989, 0.4500043468865156, 0.4447119461234553, 0.43948731093332516, 0.4343126717395055, 0.42914977344648264, 0.42402171388231996, 0.41895728019740264, 0.41389819653089777, 0.40886713750095466, 0.40388841974371753, 0.3989495154109584, 0.39402702769785203, 0.38917297487541047, 0.38440592522559064, 0.3796281033983178, 0.3748952201664367, 0.3701743061921838, 0.365536843052412, 0.36092151377842224, 0.3563764055784423, 0.3518758843599285, 0.3474133785277477, 0.34300547492800554, 0.33862002324015233, 0.3343090947441349, 0.330044878339851, 0.3258486545413767, 0.32167781184759564, 0.3175368117687533, 0.3134695755157935, 0.3094524390106097, 0.30556024407490145, 0.3016356944322276, 0.2977707962719341, 0.29395752452002005, 0.29020016827855494, 0.2864670758462936, 0.2828252593005531, 0.2792039516694562, 0.27567440582426583, 0.2721973203831392, 0.2688251123593346, 0.2654476874522371, 0.2620618963042395, 0.2588057526928238, 0.25560234566108275, 0.25244653748663326, 0.24935053588546233, 0.24633405038487188, 0.24334213553240341, 0.24040576397910962, 0.23751007610333028, 0.23468660711463704, 0.2319363009891728, 0.22921973516682556, 0.2265588611618346, 0.22393123113291788, 0.2213840097369591, 0.21889993552006778, 0.21645923699171346, 0.21407281126156785, 0.21173490592568864, 0.20945715198045686, 0.20725314952149676, 0.2050792820600091, 0.2029594575266298, 0.20084685765969754, 0.19883971465456962, 0.19690871360762383, 0.19499854265554104, 0.19313981091331003, 0.1913878202853276, 0.189623788646032, 0.18787417197872067, 0.18622096748355038, 0.18461725059683345, 0.18306624284167194, 0.18155955187002532, 0.18008621074106643, 0.1786772406904849, 0.17731452868918923, 0.17598835191040202, 0.17471797605699269, 0.17352349010293325, 0.1723373739019155, 0.17118348455615495, 0.17008870541105567, 0.16903693975646017, 0.16796632018972948, 0.16700644150697397, 0.16610650738105143, 0.16521900162912495, 0.1643700295133482, 0.16352942406496457, 0.16275981663215217, 0.16203297311010528, 0.1613327730959555, 0.16066760253143256, 0.16004066861626323, 0.15944353434474481, 0.1589226930013574, 0.15838673661048822, 0.15788547416861254, 0.15738075544470412, 0.15695049584534576, 0.15655537932395744, 0.15618289305945, 0.15583892711242348, 0.1555115899331221, 0.15522379256954633, 0.15495787944495554, 0.15472104867942707, 0.15450819847389158, 0.15431306272607437, 0.154146764166526, 0.15398899620107015, 0.15386668247928859, 0.15376374255206868, 0.15371109710106287, 0.1536410041258044, 0.15356782532254598, 0.15353796617626156, 0.1535241549498096, 0.1535163691436992, 0.15353358807727363, 0.15363274509039118, 0.15366713563503442, 0.1537172577440377, 0.15369462033349904, 0.15378349342817477, 0.1539389629514549, 0.15403434476203529, 0.15413942482524773, 0.15423097716353168, 0.1543554293199654, 0.15445028198190314, 0.1545898156979505, 0.15473163294021502, 0.15491985909284645, 0.1550593344531688, 0.15518555109155002, 0.15533316621659, 0.1554815912928687, 0.15562086648057294, 0.1557700470245687, 0.15590635325543273, 0.15605287189761421, 0.1561958408500789, 0.15637929405786774, 0.156508002413681, 0.15663596725973655, 0.15675835207572697, 0.1568765014323433, 0.15698773217946985, 0.1570952006011058, 0.1571718310545826, 0.15726821843685385, 0.15735515408582076, 0.15743960435446447, 0.1575053288611741, 0.15759034756169565, 0.15763101159981505, 0.1576619400333645, 0.15765271812428983, 0.1576658080151391, 0.15763947396501957, 0.15762860016711366, 0.15760210196632662, 0.15756354557204585, 0.15750487302905783, 0.15745256177684652, 0.15735903051234004, 0.15725038235386646, 0.1571503266956545, 0.15700716405562853, 0.1568063621123712, 0.15663813265187237, 0.15645148741644985, 0.15624444161703863, 0.15602080712462618, 0.15582650316666138, 0.15555880055680404, 0.15527463346703055, 0.1549846226158525, 0.15466462540214507, 0.1543144005559045, 0.15396110800557156, 0.15358897257731402, 0.1531569054237559, 0.15275149682730116, 0.15234096791972995, 0.15188995841380745, 0.1514183622835592, 0.15095215739414916, 0.15043609846645364, 0.14985081373245773, 0.14930266415639987, 0.14873223886832565, 0.1481695105893549, 0.14755159761109457, 0.1469138570155876, 0.1462562791265555, 0.14557887259596514, 0.14487424049729986, 0.1441582118252263, 0.14342949183831527, 0.14267243167403154, 0.14189595482335152, 0.14107417353045476, 0.14026244670029914, 0.13945058975369792, 0.13859554341556624, 0.13772178804457774, 0.1367960847851929, 0.13588964696925526, 0.13497615428755824, 0.13402845588182724, 0.1330623666837232, 0.1321190452888197, 0.13111200048300986, 0.1300898414712048, 0.12905256750998056, 0.12800021986213558, 0.1268716358678344, 0.12579716011584602, 0.12477132860252847, 0.12365274535635841, 0.12252105657915803, 0.12127983178694965, 0.1201343940253199, 0.11897819677964733, 0.11779641594170062, 0.1165987262407239, 0.11539889671542825, 0.11417003643971936, 0.11300057926769191, 0.11173717259496094, 0.11046594365189763, 0.10914229141562903, 0.10786092579807513, 0.10657293904322612, 0.10527089756693024, 0.10395965010280683, 0.10261921266084932, 0.10129342958564737, 0.10002540923634586, 0.09867369145911359, 0.0973178748266728, 0.09587077499138853, 0.09451796303626372, 0.09315272129285368, 0.09178382912892136, 0.09040773613519905, 0.08907723119595225, 0.08768259967035623, 0.08629160282879592, 0.08489269298881218, 0.08349276575687224, 0.08208097147646316, 0.08068129565046243, 0.0792474926883101, 0.07785103095822378, 0.07645284590135548, 0.07509262136048138, 0.07368816547460581, 0.07228436326141552, 0.0708854760097578, 0.06948963983600928, 0.06808422345724637, 0.0666972210702133, 0.06531550480099983, 0.06393561900500445, 0.06256024228842717, 0.06116199941004708, 0.0598005427658075, 0.05842670258613928, 0.05707666660086656, 0.05573132051395863, 0.05445079221179199, 0.05310949535089789, 0.05179130438823947, 0.05046873533368139, 0.04915731591218802, 0.04782001216736161, 0.04653586567190282, 0.04524256859591779, 0.04398005065829402, 0.04279919427455606, 0.041546678319153, 0.04030864696039216, 0.03904978063590061, 0.03784504512776371, 0.036656478586918236, 0.03547653075268192, 0.03430992816142242, 0.03317738682709208, 0.03203579653075665, 0.030933720476595844, 0.029819984795357083, 0.02872326413838957, 0.027623108034603286, 0.026562924833316154, 0.025527881894810724, 0.024498467159007872, 0.023485875533087022, 0.022531083338840074, 0.021547427963978856, 0.020574075544008842, 0.019630597592047806, 0.018705904551208054, 0.017864947403753172, 0.0169696255204932, 0.016139477151487343, 0.015283273789481378, 0.01445110855274282, 0.013627478404715076, 0.01284340226264634, 0.012127260279123187, 0.011380137240867614, 0.010656699924068792, 0.00999911096603835, 0.00931617320162439, 0.008676569567736306, 0.00804021136424432, 0.00742852314056331, 0.006868762949607606, 0.006301255287405524, 0.0057473911720192766, 0.00523030749153461, 0.004736389440695429, 0.004306190565459486, 0.003852677698859869, 0.00347964677367448, 0.003068263632890025, 0.002684002205962371, 0.0023502446921816254, 0.0020150605846175626, 0.0016916070023150907, 0.0014108234742082656, 0.0011546238383323252, 0.0009579488577639367, 0.0007455615136620907, 0.000609065501147995, 0.0004414712930050057, 0.00030167042022653605, 0.00017968235695299713, 9.464367233223613e-05, 4.621456472163028e-05, 1.0371809440040764e-05, 0.0, 7.787849028360294e-05, 0.00010957004619821535, 0.00017504702653665626, 0.0002617924856737729, 0.0003758110340897195, 0.0005351238730507657, 0.0006998122811963685, 0.0009081413516791786, 0.0011241235381908004, 0.0013671126562671031, 0.0016607658986283712, 0.0019533841404591828, 0.0022731636039014344, 0.002619630873935056, 0.0029923838216183917, 0.0034374787442845393, 0.003855972261671044, 0.004313627561772805, 0.004786196879994178, 0.005286359723631718, 0.005785772428663321, 0.006343197897058827, 0.006962466455378266, 0.007564565549365761, 0.008193324084940706, 0.008887370887907243, 0.009563541461552803, 0.010241695517360766, 0.010976562192114417, 0.01173697044130106, 0.012537594609356087, 0.013346723042590632, 0.014198501381694607, 0.015057202473678345, 0.01594240241130873, 0.01686866810652493, 0.01780419194573238, 0.01878303430116863, 0.019769392703006167, 0.020782777178561196, 0.021793156912641182, 0.022863386309339376, 0.024010072642089365, 0.02512275512596935, 0.0262629255321492, 0.027383816174125688, 0.028583768247692966, 0.029833629239235847, 0.031078298508262565, 0.032348641106833824, 0.033642724715059844, 0.034964437510338696, 0.036322677801714866, 0.03769375450755039, 0.03909083277064057, 0.0405119735816011, 0.04196105899809859, 0.043446981920335075, 0.04494604668107113, 0.046471414747307184, 0.04805083790774827, 0.04962505551349531, 0.05124920954285665, 0.05287568886975012, 0.05453061632792452, 0.056187656428834186, 0.057901760431820055, 0.059699487916621774, 0.061458510851494515, 0.06324688641216826, 0.06501964880303109, 0.0668711533465619, 0.06874843418688324, 0.07065161037187707, 0.07258080618745699, 0.0745287267302117, 0.07651128899056482, 0.07856810043546508, 0.08059675235364738, 0.08265449519162803, 0.08470957587836257, 0.08682892068975738, 0.08898066501449028, 0.09115313414347395, 0.09335307503148707, 0.09557132518020771, 0.09782773659066869, 0.10013558527652759, 0.10244376916502217, 0.10478101123612349, 0.10709719533616009, 0.10949888087808464, 0.11195467379486537, 0.11440581874642572, 0.11688563648446706, 0.1194109719580427, 0.12194644649848631, 0.12453792801661542, 0.1271301644390611, 0.12975389044102031, 0.13239592776326167, 0.13508374956714522, 0.1378074422267624, 0.14055518148649956, 0.1433335788077066, 0.1461426281118332, 0.1489823384486319, 0.15186943462247324, 0.15476843337217458, 0.15769912994897983, 0.1605927756908781, 0.1635953253536653, 0.1666236822829509, 0.16968232300232766, 0.17276952950538735, 0.17590244674625566, 0.17904595325667771, 0.1822201532841831, 0.18542522569887035, 0.18866132996967958, 0.19191747251539623, 0.1952174559986355, 0.1985612125730232, 0.20192130204929784, 0.2053132463556769, 0.20875563626088647, 0.21220903297352645, 0.21565828297770806, 0.21918217314069544, 0.222736682282695, 0.22633498088590842, 0.22994959540721885, 0.23358302150570975, 0.23726287838692747, 0.2409737884963194, 0.24472325490949437, 0.2484955497814032, 0.25229206503767304, 0.2561285436681067, 0.25999615404392895, 0.26393386510823913, 0.26785878304237776, 0.2717761295830693, 0.2757723580127753, 0.2798044120355011, 0.28386046015505473, 0.28794707124574515, 0.2920474616869492, 0.296197052768305, 0.30043536996874315, 0.30463614204878053, 0.30886957917116326, 0.31308690627229696, 0.317390237961126, 0.32173875542987734, 0.32609689416361, 0.3304843320299976, 0.33487856587123566, 0.339326711480126, 0.34381146472803104, 0.3483130173858507, 0.35284223551616095, 0.3573896294342334, 0.3619747023929622, 0.36660293809209865, 0.3712386318145151, 0.37590132211700156, 0.38057764658676657, 0.38529485176175904, 0.39003533484013814, 0.39480275486985017, 0.3995946093257309, 0.40443099976879054, 0.4092681832086428, 0.4140520020776125, 0.4189476653906194, 0.4238624632196783, 0.4288113340166756, 0.4337627202540522, 0.4387489667045824, 0.44373825819058027, 0.4487478614043253, 0.4537086581046997, 0.4587661857202295, 0.4639129765859785, 0.4689912085714159, 0.4740886097631112, 0.4791097974311949, 0.48425529962586483, 0.4894310130273018, 0.4945974989096552, 0.4997766321352208, 0.504949546129465, 0.5101553348985401, 0.5153883297239583, 0.5206126873663921, 0.5258477688014761, 0.531081855453858, 0.5363380053550761, 0.5415411548625402, 0.5468209389063634, 0.5521043017928206, 0.5574782926373336, 0.562757166093957, 0.5679509265229591, 0.573255761758292, 0.5785608299030759, 0.583902900627499, 0.5892026231875352, 0.5944885499336189, 0.5997913967914251, 0.6050927326244961, 0.6103713712795517, 0.615669920277155, 0.6209467068822941, 0.6262365587220792, 0.631518992663549, 0.636806364735628, 0.6420703653921861, 0.647294077341479, 0.6525437126877311, 0.6577810637976832, 0.6629869064137522, 0.668199988171282, 0.6733437830159088, 0.6785320832549745, 0.6837005388714538, 0.6888525400929709, 0.6939797758328771, 0.699136237777588, 0.704214762506696, 0.7092739274504934, 0.7142717656336884, 0.7192939564618438, 0.7242836546211083, 0.7292558346707031, 0.7342008684990218, 0.7390566893692058, 0.7439526647137712, 0.7488488824921621, 0.7536738786262773, 0.7584666408967426, 0.7631910480109538, 0.7679211856609219, 0.7726385575988752, 0.7772911958007404, 0.7819069083956572, 0.7864401896033886, 0.7909847664354537, 0.7954646967440361, 0.7999266808739298, 0.8043436730529565, 0.8087652022912213, 0.8130840757253123, 0.8173013200663121, 0.8215381228157961, 0.8257253096366726, 0.8298659233594248, 0.8339513553506501, 0.8379666798093085, 0.8419505386422362, 0.8458801382941429, 0.8497992997563217, 0.853612556593106, 0.8573049854283263, 0.8610174865832136, 0.8646699095592892, 0.8683043560883199, 0.8718294352582537, 0.8752429983344822, 0.8786545065808103, 0.8820014910622432, 0.8853167730782814, 0.8885287012750245, 0.891629737535509, 0.8947176026876634, 0.8977365080256601, 0.900723036170152, 0.9035976966846531, 0.9063425512159922, 0.9090869219226337, 0.9117575004854571, 0.9143706182831863, 0.9168903482355247, 0.9193359992322832, 0.9217069671234727, 0.9240026425897139, 0.9262261259655395, 0.928368914088241, 0.930458915132394, 0.9324441959018868, 0.9343526675658786, 0.9361668278720945, 0.9379214328866876, 0.9396034310750155, 0.9411964849754658, 0.9427088401211027, 0.9441195093907111, 0.9454713572965502, 0.9467044642923255, 0.9478934843690298, 0.9489963997886843, 0.9500206061550911, 0.9509502652979428, 0.9518052177995631, 0.9525616374190315, 0.9532325396935785, 0.9537620065828434, 0.9542681977765404, 0.954720319093573, 0.955043637414112, 0.9552800592499522, 0.9553979279842594, 0.9554642325941968, 0.9554619906274965, 0.9553479708700012, 0.9551464755686679, 0.9548407866507881, 0.9544664173751071, 0.9540017700580203, 0.95345095038131, 0.9528119230304815, 0.9521182703125625, 0.9512991393613819, 0.950357104305, 0.9493710192495011, 0.9482969629778998, 0.9471036986697515, 0.9458586304673577, 0.9445860153369137, 0.9431562099945994, 0.9416422024139669, 0.9399661039845549, 0.9382937664027216, 0.9365628614402802, 0.9347110729206256, 0.932774305997663, 0.9307772106580408, 0.9286690155951901, 0.9264658001088658, 0.9241955451584927, 0.9218432813257271, 0.9194021181850759, 0.9168883955690845, 0.914284632190668, 0.9116112180411983, 0.9088300156468598, 0.9060009835739808, 0.9030919730863577, 0.9000984199669438, 0.8970331487679583, 0.8939369433957434, 0.8907121521811109, 0.8874146353023203, 0.8839856182156764, 0.8805520360253413, 0.8770499189376659, 0.8734686332976909, 0.8698159443800823, 0.8660799781712321, 0.8622894654620751, 0.8584876739975993, 0.854553466735192, 0.8505560616325666, 0.8464163676217598, 0.8423048353886485, 0.8381575931475409, 0.8339129883283316, 0.8296075846818234, 0.8252165774555658, 0.8207963927850214, 0.8163471787888975, 0.8118071861618473, 0.8072128998095167, 0.8025951275271799, 0.7978918576741338, 0.7930743948138873, 0.7882817813385651, 0.7834381700299196, 0.7785395216490225, 0.7735991767200073, 0.7686806958523379, 0.763639568426441, 0.7585584773179695, 0.7533566756287664, 0.7482087636637402, 0.7430154750691093, 0.7377864118568008, 0.7325188525133375, 0.7272367276351315, 0.721894305153025, 0.7165083769548314, 0.7111040043021345, 0.7056693992056348, 0.7002134517391467, 0.6947218302626792, 0.6891676387271217, 0.6836311760512146, 0.6780699202516507, 0.6724799716767778, 0.6668747990960231, 0.6612958101313451, 0.6556459561683976, 0.6499816796158892, 0.6443190009207224, 0.6386275427150069, 0.6328926678854934, 0.627186517662704, 0.621470724708596, 0.6157541427828656, 0.6100224064832818, 0.6042968393512161, 0.5985551041789282, 0.5928117077786835, 0.5870623298428488, 0.5813200648972718, 0.5755387627348877, 0.569806554489941, 0.5640764679392822, 0.5583705523872929, 0.5526469888383687, 0.5469407468694067, 0.5412334417521293, 0.5355373782209805, 0.5298036904559431, 0.5241401654539836, 0.5184813542664893, 0.5128446673854131, 0.5072228934996015, 0.5016157499177194, 0.4960286987493413, 0.4904944131415064, 0.4849432875840779, 0.47941620643774985, 0.4738641301037678, 0.4683946694202562, 0.46294034121755273, 0.45752232184441444, 0.4521310229049126, 0.4468309468338439, 0.4414892617054386, 0.43617259312747797, 0.4309014005940814, 0.42566545335707984, 0.42046372441390917, 0.4153009888573577, 0.41011092464672927, 0.4050324916924001, 0.3999897092214751, 0.3950414539813343, 0.39006666178288496, 0.3851197232251101, 0.3802328863465197, 0.3753892695529142, 0.3705599707050802, 0.36580890238140606, 0.36111654845127805, 0.3564523083773113, 0.3518346597352179, 0.34724394256833646, 0.3427242912229263, 0.338231846442343, 0.333810849894786, 0.32943794486389383, 0.3250973319646329, 0.32082536801701317, 0.3166234962043434, 0.31244916650408183, 0.30832731096103533, 0.30429004205840254, 0.3002707965354827, 0.2963129382584847, 0.29240482718232114, 0.2885532443469248, 0.2846766816214641, 0.2809489265151476, 0.27733480504609526, 0.27370488879208793, 0.2701323147736089, 0.2665968103274046, 0.26314191342396, 0.25977143524406393, 0.2564264453410953, 0.2531400926965701, 0.24984182733939522, 0.2466815768892028, 0.24366313054563032, 0.24060153145806532, 0.2376003694253338, 0.23459806926679622, 0.23172454630177103, 0.2288810973934597, 0.2261231768123741, 0.22342021276145926, 0.22084489566167348, 0.21824355923793062, 0.21565000441057064, 0.21317425779960736, 0.21075441320016255, 0.20837745230375443, 0.20607092855644596, 0.2037970975954444, 0.2016032692424062, 0.19946301215113194, 0.19745059705224677, 0.19540814279601978, 0.19342891430764853, 0.19150033231409194, 0.1896282632936552, 0.18782309967646496, 0.18606044302248673, 0.1843100751091877, 0.18266198578490214, 0.18106494645801868, 0.17955754114970876, 0.17805648274328614, 0.17656659139841027, 0.17517391069305252, 0.17382939916981, 0.1725326389662311, 0.1712831822630172, 0.1700824087458622, 0.16892586913471272, 0.16781522977048668, 0.16673507671784182, 0.16571639248734704, 0.1647428678362626, 0.1638100489392217, 0.1629195902219485, 0.1620356451665628, 0.16123258195246554, 0.16044208391564166, 0.15971902322037296, 0.1590322418252613, 0.15840930138029963, 0.15779065807743953, 0.15721067231900826, 0.15666469916105108, 0.1561542083525582, 0.15570812995608063, 0.15526254017323762, 0.15486660036906413, 0.15448768665232487, 0.15414231928530245, 0.15378852872940185, 0.15351202181792248, 0.1532671419543382, 0.15304526229611942, 0.15283146053272323, 0.1526643999103066, 0.15252132258306003, 0.15240526792255893, 0.15230764375273131, 0.1522265481218338, 0.15217304507239665, 0.15213976064599835, 0.1521723325886987, 0.15217132799130859, 0.15212586949551016, 0.1521729044645642, 0.1522344823575276, 0.1523211553474961, 0.1524086285709208, 0.1525391164859857, 0.1526487154581002, 0.15277176585960198, 0.15286084976075023, 0.1530136254533324, 0.15320765313632057, 0.15337131292212103, 0.1535434952024126, 0.15368988975867567, 0.15388063852826978, 0.15413289018741022, 0.15432371138762302, 0.154520518590246, 0.1546795306951919, 0.15489045966524223, 0.15508511291511115, 0.1552983746643334, 0.15550985288649033, 0.15571718005297916, 0.15592377022258727, 0.15616956355994221, 0.15636324582620825, 0.15655473190602742, 0.15678764682949553, 0.15696639866413054, 0.1570574432103723, 0.1572411379269502, 0.15741542989213153, 0.15758925325830664, 0.1577425092005721, 0.15788578502026504, 0.1580186047043846, 0.1581404888913988, 0.15825466836282776, 0.15835276970689505, 0.15842571222501825, 0.15850061431864426, 0.15856161564937052, 0.1586343134363288, 0.15866307134929347, 0.15866152280269563, 0.158664587487918, 0.15865194451279174, 0.15867700556396583, 0.1586249292683715, 0.1585181443755537, 0.15844266139106933, 0.15834945503232656, 0.15824559442810568, 0.15811495585553648, 0.15799940048385688, 0.15782752827357477, 0.1576385000914428, 0.15741502503892357, 0.15719208716378635, 0.15694945339232602, 0.156686824682785, 0.15640393009819822, 0.1560968137423677, 0.15577314950139773, 0.15541721855109394, 0.15505255734887743, 0.15466587502431625, 0.15429427285045444, 0.15385881528624365, 0.15338112324247055, 0.152908260288285, 0.15241364372672223, 0.1518471399842392, 0.151315290913, 0.15074585771270255, 0.15016689056671248, 0.1495634182566304, 0.14902127509502616, 0.14835935712417056, 0.14767715564474673, 0.1469782959223872, 0.14626032310673692, 0.14549335491359705, 0.14474039421665874, 0.14398108204924015, 0.1431840386303032, 0.14236702288100783, 0.1414911555898579, 0.14063942874191046, 0.13981415015072726, 0.13891319502764785, 0.13799408674490454, 0.13703647164133817, 0.13608385605917128, 0.13508439170833242, 0.1340975991182248, 0.1330908929487357, 0.13203885797109546, 0.13099728993004492, 0.12997682282489015, 0.1288913625792526, 0.12778987854898535, 0.12670424593310217, 0.1255677148719561, 0.12440680855638754, 0.12324531220280109, 0.12207020796689332, 0.12084094623002928, 0.11964465012751306, 0.11843336475478443, 0.11720776695427333, 0.11596851276635893, 0.11471809575000627, 0.11345319123616689, 0.11221000670091477, 0.11091808907504021, 0.10961751430366683, 0.10825104815335133, 0.10694135079884907, 0.10566342179827294, 0.1043273301532742, 0.10298435088981427, 0.10159407828354407, 0.10024376771624317, 0.09890228824452507, 0.09753491107298533, 0.09616214587749786, 0.09481242683185741, 0.09342714804188092, 0.09206208164217267, 0.09067022477293675, 0.08927828905627348, 0.08788463642428386, 0.08649347206522852, 0.08506578041979523, 0.08368083201845451, 0.08229510587355772, 0.08091486439184008, 0.07952894838710398, 0.07814089577887615, 0.07675920691371195, 0.07538009330779202, 0.07398933210980786, 0.07261910743332434, 0.07126545662848237, 0.06990146884301468, 0.0685431960710974, 0.06716707528181626, 0.06582496387927587, 0.06448516740739689, 0.06315631245820608, 0.06183471219040339, 0.060550763272988646, 0.05924199723594224, 0.057979434053731106, 0.056688473935033415, 0.055411201420114076, 0.054114319206290354, 0.05286900789458057, 0.05158769318465202, 0.050373459204273996, 0.04916971780444955, 0.04804042050589369, 0.046852189565067, 0.04564141633490441, 0.04449116564990562, 0.043355561544963714, 0.04225370393025175, 0.041146646496485764, 0.040027136031098025, 0.03895863655009412, 0.037906354377447195, 0.036885692511076464, 0.03586560340270592, 0.03486228044697641, 0.033880013863177974, 0.03291694069342698, 0.03200865662466943, 0.03108050278546684, 0.030191188329837065, 0.02930520887189188, 0.028442351781242096, 0.027661925355387276, 0.0268376025444013, 0.026011759396684438, 0.025243124467848942, 0.02449839318704973, 0.023771909043684408, 0.02307545810104118, 0.02238758784385338, 0.02173991818014266, 0.021114957935707977, 0.02061497714596386, 0.020023122729414908, 0.019415749528805273, 0.018886932601725605, 0.018396449310481084, 0.017916575077217334, 0.017462601704730712, 0.01709747771593992, 0.01668691189337593, 0.016318425734966516, 0.015963825100459576, 0.015637985852783573, 0.015390498097992701, 0.015114370964540933, 0.014842506001180674, 0.014629436484507595, 0.01444382364187935, 0.014294631153441472, 0.014161864472145399, 0.014143503699401828, 0.014053818156860118, 0.01399574478650429, 0.013998100802326175, 0.01399698611181986, 0.014006445635106815, 0.014069086596618128, 0.014160075266108648, 0.01429011462570322, 0.014435158928938631, 0.014686009092717939, 0.014876565505445541, 0.015098701037070351, 0.015344108253268485, 0.0156278037872585, 0.01599601748321783, 0.016329842054205162, 0.01669467033794284, 0.017082246856021645, 0.01750763354702854, 0.017970703381942933, 0.01845124059361899, 0.018959800002649414, 0.019542341532595927, 0.020099829138137255, 0.020744332250594102, 0.021352857410716526, 0.02199286419755323, 0.0226485420251495, 0.02335061849744228, 0.024097502945781446, 0.02485315590823521, 0.025636874616055114, 0.02646483195751556, 0.027301049100924922, 0.028177865812983132, 0.029067171829388956, 0.029983904376176804, 0.030992541079919785, 0.03195454261721556, 0.03289439123707817, 0.033921739712230614, 0.034974396638086186, 0.03612450714873908, 0.03721796076251216, 0.038334601589307044, 0.039485527962123415, 0.04066350437736191, 0.041886561374063644, 0.04311477213507302, 0.04439565793919448, 0.04567346397654261, 0.04697847110958951, 0.04828966691831557, 0.04964993678706797, 0.05106994194535945, 0.05247446550750123, 0.05390499968869731, 0.05533509987026485, 0.0568196096300602, 0.058321882568527016, 0.0598536575474925, 0.06140826411976281, 0.06305062625573794, 0.06464259602071691, 0.06625910632166154, 0.06790355969308115, 0.06957328365203867, 0.07128828859264687, 0.07300481210155549, 0.0747244178595482, 0.07649403098270155, 0.07828694140509174, 0.08013084179550803, 0.08196641521598909, 0.08381534437636104, 0.08570099940241552, 0.0876099479868185, 0.08960329677050628, 0.09155070470380687, 0.0934688286127903, 0.09547549370142049, 0.09750437380488713, 0.09955549921872178, 0.10162890734025909, 0.10375247923010877, 0.10586706865480673, 0.10800564835516144, 0.11018846585570058, 0.11237197602474513, 0.11456907738307377, 0.11680320154725188, 0.11906097733269244, 0.12139058152754316, 0.12368935850400792, 0.12597165491648243, 0.12832783797722305, 0.13070709791115637, 0.13310022424047954, 0.13552702747878861, 0.13796734293956517