0.06756135808982133, 0.06670536945266035, 0.06586350541476356, 0.06496056459253165, 0.06415040674704071, 0.06338611807596892, 0.06257942024638752, 0.06177836766669535, 0.060956945703050214, 0.0601679237709187, 0.059410674564029486, 0.05862167444608261, 0.057835848975013794, 0.0570207671834325, 0.056244183867465124, 0.05555488487674245, 0.05476813160702939, 0.05398678543354328, 0.05316451637922482, 0.05239810317613783, 0.05158960734304477, 0.05083148493942312, 0.05007243007948213, 0.049326616145640385, 0.04856528925576541, 0.04789884570299364, 0.04712816017852985, 0.04632092370552175, 0.045569032905410166, 0.04482068084959048, 0.04402555644133982, 0.04329067719543925, 0.04260461684533161, 0.041865714862556046, 0.04113119782464643, 0.040382780937214174, 0.03965939812440463, 0.038925733203858906, 0.038211167079855335, 0.037499665998949536, 0.036784664787201334, 0.0360810276152272, 0.03541291396002501, 0.034712530306091297, 0.034018008432308074, 0.033365930220855836, 0.03267848609463876, 0.03205842519666302, 0.0313790337986993, 0.030710406575819308, 0.03001529142874865, 0.029370937430634868, 0.028829652311791066, 0.028187079266036193, 0.027556743044053807, 0.026898957244266986, 0.026295713602943763, 0.025727907503720452, 0.025137021211925, 0.0245554013113448, 0.024017070108411885, 0.02344886379454576, 0.022879760418718836, 0.022333699081660368, 0.02179686185328104, 0.02138347016311409, 0.020850286701334382, 0.020250177618689073, 0.0197573139360918, 0.01927357782322691, 0.018869910200549636, 0.018395633087627875, 0.017962147910083017, 0.017510671810739464, 0.017073331474848137, 0.01665423822769829, 0.016243306390639412, 0.015918863050621443, 0.015525063323823614, 0.015148308409020487, 0.014767350854102636, 0.01442542867957322, 0.01408635341822724, 0.013774299598710509, 0.013475675629448772, 0.013314068221829295, 0.013026995139750829, 0.012788117238465612, 0.012538287755969109, 0.012309325211082288, 0.0120547679438814, 0.011871307317972925, 0.0117524385165389, 0.01159607685074461, 0.011459118733880759, 0.01132303286683224, 0.01122658088381378, 0.011264700897601825, 0.011189521924452904, 0.011139172942742848, 0.011110663846434419, 0.011108302906197333, 0.011149545749343057, 0.011190335694906833, 0.011254827337265414, 0.011242128666334467, 0.011366057347538315, 0.011599016750521877, 0.011747284805136883, 0.01191981627879028, 0.012054865776670406, 0.012283803818264109, 0.01256116662834638, 0.012829250729155967, 0.013121142362564158, 0.013437229448631056, 0.013777904609333569, 0.014246479661572867, 0.014624506265013023, 0.015034085931397675, 0.015438194698890384, 0.0159143130940269, 0.016432648981528616, 0.016964155216220696, 0.01752522545620482, 0.018074778688555213, 0.018700477351571924, 0.01937209392509618, 0.020051240708078753, 0.020760056136142888, 0.021590360838208575, 0.022347968491885622, 0.023100239172949618, 0.02393432119812229, 0.024801233981854656, 0.02573310940314784, 0.026662007180276347, 0.02763511133451963, 0.02863290752104695, 0.029666204746631623, 0.030712096079630637, 0.031819226697252595, 0.033006348267940085, 0.03417647492143587, 0.0353839868558525, 0.036569351151790254, 0.03785899324251551, 0.03921692731667065, 0.04057074963200878, 0.041961548317253905, 0.043387256865581744, 0.0448529706036653, 0.046301337485998, 0.047849341393547705, 0.04943234221062759, 0.05103504188978713, 0.05269213897830571, 0.05443104718748753, 0.05615518852453057, 0.05791928103098531, 0.05980586287659903, 0.06164005902219684, 0.0634553931776357, 0.06538756616947757, 0.06736045839699947, 0.06934681683312718, 0.07140518889357449, 0.07358106445840523, 0.07570949608418406, 0.07788280898440905, 0.080105293390817, 0.08236698914470891, 0.08468683824544757, 0.0870354744986086, 0.08942897728923156, 0.0918007984670116, 0.09429179021334647, 0.09688512653313967, 0.09944992198789757, 0.10205958284995717, 0.10472768260782754, 0.10742492107122269, 0.11017657666009675, 0.11296300937450372, 0.11579488080622054, 0.11863996842051, 0.12156618425995756, 0.12446461979577492, 0.12748616718019165, 0.13054710337671557, 0.13376016614250097, 0.13688764540559378, 0.1400145457548432, 0.14324253109378873, 0.14651438695989522, 0.14987128622347573, 0.15322568342914483, 0.15660565598446982, 0.16005460699846458, 0.16354785674522965, 0.16706238460536693, 0.1706466712709555, 0.17428037812957836, 0.17794894117237686, 0.18166047183962727, 0.18540345093393215, 0.18920209176851854, 0.19304961148483252, 0.19693137308259367, 0.2008554138151602, 0.20482157453657995, 0.20882967668480704, 0.21291840246325733, 0.21700486164534993, 0.22113479867137964, 0.22528249385766494, 0.22950090253886574, 0.23375746633490277, 0.23805674507068394, 0.24239571859822073, 0.24683811432739924, 0.2512474380745809, 0.2556327551311218, 0.26013423190494095, 0.2646726190219378, 0.26924767557544477, 0.273859132410273, 0.2785364248801698, 0.2832160094420652, 0.2879212640747288, 0.29267589666055305, 0.29746578359366077, 0.30229499543170046, 0.3071532945259614, 0.312043283565749, 0.31696926102804435, 0.32192795319238005, 0.32697140587475415, 0.33198720110529883, 0.3369889437896237, 0.3420777581464225, 0.3471958885954495, 0.352383965760178, 0.35755390110082597, 0.36271035803522, 0.36794482784139404, 0.37320504104343577, 0.37850878323145876, 0.383816614361618, 0.38917477148106117, 0.39452903407980283, 0.3999084251413253, 0.40531429964854143, 0.410740883908133, 0.4161602590600881, 0.4216347522126499, 0.42712832467195644, 0.43262662630427084, 0.43815818916193755, 0.443662666419781, 0.44923188566035677, 0.4548138557104391, 0.46048605117949776, 0.4660827678588599, 0.47164980119046435, 0.4772833136331157, 0.4829281363653509, 0.48864533048670467, 0.49430287372411486, 0.49996847541019795, 0.5056506041360411, 0.5113426342722089, 0.5170914508654275, 0.5227938124661466, 0.5284345286512839, 0.5341629081514752, 0.5398937266757691, 0.5456079353386084, 0.5513436709056337, 0.5570693643687312, 0.5628038166147651, 0.5685355255117516, 0.5743210272365694, 0.5800380659315388, 0.5857306774207582, 0.5914462975091483, 0.5971567147503395, 0.602906715226643, 0.6085980821806706, 0.6142039102656158, 0.6198930961669351, 0.625569711547067, 0.631228598974307, 0.6368788599371709, 0.6425807467654084, 0.6481925666335122, 0.6537920575697237, 0.6593916840250965, 0.6649610477537047, 0.6704191373030621, 0.6759689465753657, 0.6814956659614222, 0.6869828786853986, 0.6924641593632731, 0.6979657945670155, 0.7033900777952308, 0.7087905989078866, 0.7141252699038636, 0.7194807061123404, 0.7248484692536341, 0.7301404299763493, 0.7354046395452755, 0.7406492501977672, 0.7458538242919827, 0.7510121973199426, 0.7561573761760263, 0.7612694138736165, 0.7663222862747336, 0.771368624954269, 0.7763503752928423, 0.7813252423450521, 0.7862600978533589, 0.7912070735778652, 0.7960538042117116, 0.8008505123026897, 0.8056205134539793, 0.8103493105508456, 0.815029185224809, 0.81967388276304, 0.8241784028407598, 0.8287462376193975, 0.8332630389211304, 0.8378225969210531, 0.8422254535714923, 0.8465800649666589, 0.8508903291496415, 0.8551526102697529, 0.859288268838348, 0.8634618028271305, 0.8675575632681283, 0.8716240099887462, 0.8756338732451194, 0.8796145118862259, 0.8835074200785671, 0.8872945368470699, 0.8910823850758263, 0.8948109839596217, 0.8985465718473439, 0.9021479735943979, 0.9055973757811204, 0.9090982692008958, 0.9125363290401043, 0.9158841793287914, 0.9192001808318592, 0.9224701196439125, 0.9256552053364449, 0.9287771199790797, 0.9318311277842896, 0.9348267598792304, 0.9377195046505511, 0.9405918283479494, 0.9433975230283936, 0.9461160700551348, 0.9487912514471131, 0.9514352878981533, 0.9539704656775421, 0.9564401046901989, 0.9588553502766031, 0.961191597330989, 0.9635101111324677, 0.965708393584853, 0.9678428902995412, 0.9698145443342605, 0.9718318294351707, 0.9738556297466646, 0.9757208686209938, 0.97751973407868, 0.9792174956448485, 0.98088672636912, 0.9823927614815359, 0.9839349850573103, 0.9854025102704558, 0.9868944418387634, 0.9882023404079472, 0.989420237686159, 0.9905965183352609, 0.9917039321761683, 0.9926441568789598, 0.9936263471151661, 0.9946554724910637, 0.995474642276858, 0.9962279774257997, 0.996773417096993, 0.9974122751827279, 0.997992727927453, 0.998481773045496, 0.9988992896740784, 0.9992505883114278, 0.9995266226135741, 0.9997174237050536, 0.9998575865658375, 0.9999287004408571, 1.0, 0.9999261752001479, 0.9997866310940297, 0.9995862094055471, 0.9993222316608261, 0.9989193154448429, 0.9985380772088646, 0.9980825741600889, 0.9975682073774329, 0.9969876339553893, 0.996330209541687, 0.9956210042034199, 0.9948517916270597, 0.9940136328717287, 0.9931126907370441, 0.9922365607372537, 0.9912011094897764, 0.9900388656264781, 0.9889005321960319, 0.987702288677275, 0.9864310747490186, 0.9851167270368444, 0.9838054227017631, 0.982366618739719, 0.9808740890759411, 0.9793578097278896, 0.9777548572497117, 0.9760367023323949, 0.9743396709074588, 0.9725882635673793, 0.9707992983578034, 0.9689395382596568, 0.9669806906677707, 0.9650255562227458, 0.9630271754877497, 0.9609671836500906, 0.958857452355649, 0.9566852085326483, 0.9544805624174922, 0.9523036738093518, 0.9499950681426799, 0.9476449822253636, 0.9452331908664001, 0.9428038771583427, 0.9403491746304045, 0.9378357181416843, 0.9352831390730142, 0.9326531489853754, 0.9300290481244706, 0.9273860989921704, 0.9246815297898074, 0.9219406653859061, 0.9190957011988136, 0.9162933496030493, 0.9134395757234177, 0.9105649411824988, 0.9076545386558758, 0.904773778853443, 0.9017878007568494, 0.8987644346479308, 0.8957238173350203, 0.8926558311871091, 0.8895475433143604, 0.8864289270543764, 0.8833417292493534, 0.8801652820652407, 0.8769681021665232, 0.8736728649613911, 0.8704454032278254, 0.8672468909589536, 0.8639666652712393, 0.8606680798257036, 0.8573198039191533, 0.8539906276454808, 0.8507234536375542, 0.8473490602169657, 0.8439630778634782, 0.8405383717709678, 0.8371336729677755, 0.8336712146922285, 0.8302489603481262, 0.8268135347072214, 0.8233934798314821, 0.819931501172925, 0.8163650308129935, 0.8128991069105422, 0.8094209207659123, 0.8059983493500765, 0.8024918144687074, 0.7988964939743006, 0.795393078646471, 0.7918822432991526, 0.7884637453756357, 0.7849297892355296, 0.7813636043796829, 0.7778385121587222, 0.7743143463727783, 0.7708032458299808, 0.7672815868493651, 0.76368581483133, 0.7601818587565633, 0.7566783445154968, 0.7531787649796172, 0.7496793847651031, 0.7462022613414602, 0.742709462324653, 0.7392235406602851, 0.7357086214551682, 0.7322432046941035, 0.7287869661048931, 0.7253359732090875, 0.721893801870519, 0.7184360934562867, 0.7150170949012647, 0.711632921845704, 0.7082309500061872, 0.7048417396064037, 0.7015504634682399, 0.6981777100233927, 0.6947645897927364, 0.6914373506608417, 0.6881255435479433, 0.6848112776570994, 0.6815338569857847, 0.6782011379559574, 0.6749644106144526, 0.6717403377896993, 0.6686626164515747, 0.665450135409536, 0.6622286109788578, 0.6590658558196445, 0.6559237956731138, 0.6527613660327383, 0.6496662241690103, 0.6466378497536819, 0.6435745922644985, 0.64053369371296, 0.6374946026050483, 0.6345011407199129, 0.6314855841548961, 0.6285405851662285, 0.6256150000569534, 0.6226888287875442, 0.6198063711107404, 0.6170009440179695, 0.6141515696322526, 0.6113264024433407, 0.6085048835264385, 0.6057308109957847, 0.6029455709140096, 0.6002223116073098, 0.5975206451566778, 0.594838721839885, 0.5921817901250819, 0.5895886494047184, 0.5869720734813627, 0.5843810134776206, 0.58182909090117, 0.579287030966722, 0.5766634791031423, 0.5741868078972852, 0.5717297198544339, 0.5692929081068738, 0.5668769694146372, 0.5644846997205569, 0.5621116647211711, 0.5597609251267707, 0.5575265210361126, 0.5552092748034181, 0.5528630599460619, 0.5506088193787018, 0.5483783528003838, 0.5461441348565608, 0.5439644276215095, 0.5418935728118017, 0.5397468647466673, 0.5376271341596005, 0.5354696682554585, 0.5334100159298469, 0.5314221922421056, 0.5293991929240632, 0.5274004806197141, 0.5253638415308977, 0.5234201484611936, 0.5214685263083629, 0.5195674453861299, 0.5176845215907131, 0.515858887881282, 0.5140080612094304, 0.5121735806591761, 0.5103649453064318, 0.5085765115530689, 0.5068217973938663, 0.5050714089179739, 0.5032956088086477, 0.5015913186428125, 0.49990411032255055, 0.4983277879406043, 0.4966629545628887, 0.4949495574823859, 0.4933375288232693, 0.4917422635460273, 0.49022994917659146, 0.48865939761133836, 0.4870013792365735, 0.48548374640523767, 0.4839787185187541, 0.48249111398130223, 0.4810113860485256, 0.4795587872459581, 0.47810416996460614, 0.47666375032194525, 0.4752167850314907, 0.473806862226444, 0.4724940618310019, 0.47109839471552134, 0.4697198450540579, 0.46832559978095795, 0.46698300688703637, 0.46568782353300786, 0.4643667220971733, 0.4630599035037273, 0.461677541581768, 0.4604087144240594, 0.45919542481952663, 0.4579357510182774, 0.45668663879598453, 0.45542721897122945, 0.45420097748687854, 0.45304046905252887, 0.4518240015354844, 0.45061905997488916, 0.4494090319102527, 0.4482274005589699, 0.4469929648828422, 0.4458366775711803, 0.4447286321194725, 0.4435766020404076, 0.44243210151853957, 0.4412537003079472, 0.44012867825144747, 0.4390218227955486, 0.4379040378372435, 0.43679159804071505, 0.43562723268820874, 0.43453241255297503, 0.43352630837903355, 0.4324244436029239, 0.43132985102598825, 0.4302351721949437, 0.42915453382521657, 0.4279970580397505, 0.42693747428829404, 0.425878092409233, 0.42488787759717406, 0.4238212231931121, 0.42267259122885814, 0.42162641435045944, 0.42057957268952684, 0.4195232909985081, 0.4184773284541365, 0.417447122987024, 0.41639889975415256, 0.4153518026037481, 0.41430357858898753, 0.4132590976341354, 0.41226595311273506, 0.41121713589753534, 0.4101721090669711, 0.409144137813793, 0.4081036232434799, 0.40697035278518834, 0.40594811952629356, 0.4049229139850216, 0.4040117689931194, 0.40296699646063827, 0.4018742117206671, 0.40084457114696265, 0.3998152485900926, 0.39879297623323934, 0.397763046981066, 0.3967517644606887, 0.39572007231046674, 0.39468947371573304, 0.3936871491989783, 0.3926545099966975, 0.3915254692874372, 0.3905087543168958, 0.38948773117668095, 0.38847433527376507, 0.38744469636950046, 0.3864927803771459, 0.38544863606804575, 0.3844071569069415, 0.3832741412428491, 0.38224860604906835, 0.38126279607396013, 0.3802247894865414, 0.3791864024330414, 0.3781339485437565, 0.37709664625770767, 0.37598741258223956, 0.37495716297563686, 0.373922201026695, 0.37289924070557995, 0.3718548650179913, 0.3708222823821649, 0.36977267534392005, 0.3687225919593504, 0.3676264654886731, 0.3665817154494337, 0.36552524129491765, 0.36447698778326704, 0.3634265706272971, 0.3624567787940428, 0.3613929373094474, 0.3602641515319614, 0.3592159659072107, 0.35816693566900926, 0.3571425018780317, 0.3560894218391425, 0.35498506935174906, 0.3539412977743188, 0.35289590560085443, 0.35181959139996244, 0.35077595877735, 0.3498193815178902, 0.34876073354975023, 0.347705968840062, 0.34670510568019713, 0.34565089604378413, 0.3444951287533648, 0.34346578344047846, 0.34243523500881273, 0.34145879803680224, 0.34042014029390805, 0.3393570752167809, 0.33832783619522105, 0.3372998686649071, 0.3362344367104864, 0.33521435219912044, 0.3341800467066503, 0.333161137714498, 0.3321417923398245, 0.3311018924470652, 0.3300856227521632, 0.329098744823964, 0.32807853318898894, 0.32706058691381373, 0.32609079688896725, 0.3250720332014883, 0.32403563734139534, 0.32302998268395816, 0.3220277999063719, 0.3209650439376039, 0.31997788278088923, 0.3190180365015316, 0.318027668990636, 0.31703969795182996, 0.3160428770480275, 0.31506169008753027, 0.3141422259067135, 0.3131582645498021, 0.312180321847147, 0.31122639019206033, 0.31025729827810256, 0.30924185005149085, 0.30829155326402125, 0.30734390334737316, 0.30633731497075456, 0.30540324444186395, 0.3044825261425248, 0.30354659878824053, 0.3026122338453286, 0.30165921484498964, 0.3007316304500517, 0.29987402763768883, 0.2989409136902463, 0.2980137740324164, 0.2970854955351998, 0.2961704396778149, 0.2951733790284033, 0.2942789839957592, 0.2933843600630696, 0.2925243988414864, 0.291626659806856, 0.2907801759898084, 0.2898829174592534, 0.2889917545070843, 0.28809034616122403, 0.28721243283041603, 0.286366251869179, 0.2854933226834721, 0.28462598437656816, 0.28367471242134606, 0.28282887455757544, 0.2820261779586461, 0.28117469527612254, 0.28032622128072776, 0.27942129276093564, 0.2785863424372967, 0.2777418829075346, 0.2769078148330358, 0.2760737000709837, 0.2752490790685765, 0.2744148268295479, 0.27363005911320987, 0.2727927925807532, 0.2719599296864638, 0.2711563153636518, 0.2703281600649581, 0.2694523350284854, 0.2686402307675717, 0.26782921845471985, 0.26697816585027095, 0.2661746251573747, 0.26534932712562725, 0.2645463510109667, 0.2637416101317745, 0.2629697791978699, 0.26215821326468336, 0.26130655823868987, 0.2605022674857756, 0.25969656097460087, 0.2589491225610301, 0.25813367850742014, 0.2572474866690685, 0.256445776196601, 0.25564163050114286, 0.2548650194876523, 0.2540529065971727, 0.25327260735602475, 0.25245589351235626, 0.2516404779762, 0.25078477981933855, 0.24997594954813313, 0.24913749811282485, 0.24832777500804884, 0.24754860182679253, 0.2467272038102922, 0.245904279939575, 0.2451391099327772, 0.24430506737044874, 0.24338538178524663, 0.24256419754291558, 0.2417381444702757, 0.24094168456246262, 0.2401019897136033, 0.23925285488219927, 0.23840865288617533, 0.2375610616556691, 0.23665047301677627, 0.23580318592157645, 0.23496932116052485, 0.23410544428607885, 0.23323617260586463, 0.23242788881960957, 0.23153959227866477, 0.23057425283908117, 0.22969181355012736, 0.2288025292205772, 0.2279637312832446, 0.227053960003617, 0.2260906043352654, 0.22518025803731032, 0.2242630564182155, 0.22334593022755, 0.22241433672444355, 0.22150614784778627, 0.22055809588575143, 0.21960528575537455, 0.2186245469112118, 0.21766423513520983, 0.21663530050970867, 0.21566899933311434, 0.2146922535698958, 0.21367576909773567, 0.21268314033692115, 0.21168409650747572, 0.21066941226444674, 0.20964492160597845, 0.2086726944267318, 0.20762168775927134, 0.2065651390001244, 0.20550272279626844, 0.20443413706874383, 0.20332479635810205, 0.2022473899271049, 0.2012434434630176, 0.20013793651971534, 0.199028272600562, 0.19791152933782527, 0.19679200560928678, 0.19558873835883972, 0.1944666552724343, 0.1933334313011849, 0.19215506242502078, 0.19100476345631587, 0.18985592340413734, 0.18867984566695473, 0.1874931811502434, 0.18628246801870332, 0.18507711231031257, 0.18385193546887063, 0.18262667120854822, 0.18139074534813598, 0.18017417435051802, 0.17891398376331355, 0.1776684174746704, 0.17638878990556406, 0.17510209783770714, 0.17383327132565846, 0.17252861619566875, 0.17113995140127738, 0.1698322770983277, 0.16851333720418257, 0.1671995084768696, 0.16585707866317015, 0.16449841573211346, 0.16313824857381146, 0.16176859282627987, 0.16040105974962013, 0.15901149564048092, 0.157622722111783, 0.15621533526585255, 0.15480020551404583, 0.1533178522339753, 0.1518947141869194, 0.1505336651195844, 0.14907957841096348, 0.14761944805092855, 0.14609591555813178, 0.14463041351367711, 0.14322611007876904, 0.14173261830022818, 0.14023412249818049, 0.1387944068826194, 0.13727709637375016, 0.1357028686694672, 0.13418780560921453, 0.13266646284055789, 0.13113883722476022, 0.12960495308116327, 0.12804656323431765, 0.12650264479474646, 0.12495165263818193, 0.12348303730434651, 0.12190738752383663, 0.12039218353782784, 0.11880565333896838, 0.11722044296361943, 0.11560374060408816, 0.11402297143907733, 0.1125152041731781, 0.1109197785490753, 0.10932583642425131, 0.1077189994208553, 0.1061279181832795, 0.10446047888272741, 0.10287696559653417, 0.10128800290166311, 0.09980849197501586, 0.09819580666375458, 0.09662000076628771, 0.09500771401548476, 0.093399203458747, 0.09178025003638156, 0.09017965066217919, 0.08860148110515143, 0.08700189350923875, 0.08540521724595987, 0.08386851054928073, 0.08227014824902616, 0.08060000493891785, 0.0790230472735746, 0.07744704414666298, 0.07601880888513782, 0.07442754537685879, 0.07277590187818753, 0.0712139199193486, 0.06965718716283878, 0.0681447131261763, 0.06659399962924639, 0.06509469490786764, 0.06355433790262519, 0.06202432457555198, 0.060458635745395096, 0.05895435431066995, 0.05751675659274978, 0.056019747170194055, 0.05453401452663083, 0.0531303672112486, 0.05165803040787966, 0.050230627798080255, 0.04878447740669914, 0.04735440054697072, 0.045866744370457804, 0.04447679050109744, 0.04318009734997798, 0.04180204782632388, 0.040440480274258415, 0.03909750694851295, 0.037768181431140226, 0.0364437709673923, 0.03514864260651624, 0.03386938958127061, 0.032672600756794, 0.0314175461839656, 0.030189855724570915, 0.028974772028197978, 0.02778033142600769, 0.02655845380488381, 0.025411291755436577, 0.02430501306634369, 0.023191524336618228, 0.022098414348690507, 0.020984878298131976, 0.01993883909894377, 0.018985204100983918, 0.01796910137507444, 0.01697779998240596, 0.015961094144043092, 0.0150261315127363, 0.014166212480922692, 0.013270122943223288, 0.012400689692563525, 0.011487196849639317, 0.01068062204741552, 0.009908808137777385, 0.009148284485876632, 0.008413371933315652, 0.007700158803409365, 0.007019004876222469, 0.006440579510021017, 0.0058050147477132575, 0.005202151825672215, 0.004620515055999957, 0.004084432242327501, 0.003536985434241508, 0.003070767762363761, 0.0026346101697356313, 0.0022588330806564486, 0.0018807799166167532, 0.0015292920547728586, 0.0012192430842735418, 0.0009816934708314917, 0.0007343273501996672, 0.0005234820423027059, 0.0002874555723662677, 0.0001576412393628204, 9.77289687633916e-05, 3.055378783697676e-05, 0.0, 6.352612076624564e-06, 4.990315934208732e-05, 0.00019955945789769644, 0.0003097260354767588, 0.0004618440565339988, 0.0006236508382712514, 0.0008630572122796569, 0.001169531994783276, 0.001484917547474771, 0.0018418868759784333, 0.0021558322114648364, 0.0026067443938401695, 0.003083205502698401, 0.0036103266084638475, 0.004175320580340728, 0.004826987672948554, 0.005463910634196133, 0.006106945700036152, 0.006834118839770775, 0.0076023707985861545, 0.00840992042017365, 0.009262097748842, 0.010149767701827591, 0.0110879351910541, 0.01206886818060038, 0.013136425842282268, 0.014198576803254395, 0.015339062945647448, 0.016489756641728585, 0.017688494496185887, 0.018928144284845332, 0.020223067754909677, 0.021596980046729598, 0.02298169529233235, 0.024414999213383037, 0.025894289040305423, 0.027424160770066968, 0.028976527898154674, 0.030604716803648672, 0.0322788382218453, 0.03404243428744502, 0.03580318893266182, 0.03757597678013313, 0.03943833524173917, 0.041346754046089715, 0.04324414550199391, 0.045252168442686085, 0.047287267417282126, 0.04938400050850939, 0.05152388222947438, 0.053739441946111154, 0.05596303014567221, 0.05818484904548838, 0.06050707108078492, 0.06287291816545666, 0.0653285086000308, 0.06777688341795102, 0.07026322484358902, 0.07280679686282251, 0.07539658234564, 0.07806446451714501, 0.08074220434839662, 0.08348807735091428, 0.08625786917682027, 0.08907549172201809, 0.09185117012046957, 0.09477402136894236, 0.0977815006529022, 0.10078142662047213, 0.10382533731763902, 0.10691297234728793, 0.11004405693162411, 0.11323202455221137, 0.11644739366315156, 0.1197060762460219, 0.12293444881256137, 0.12628769690149205, 0.12980691087208446, 0.133219899660243, 0.13667819296403869, 0.14007785171067597, 0.14363676325510746, 0.14721631351604988, 0.1508505228732284, 0.15452037933285345, 0.15824188704685288, 0.16198093291128376, 0.16573344772867887, 0.16954774896236716, 0.17339644135728147, 0.17735937272543745, 0.18126607940187991, 0.18516518110635105, 0.18915295605489532, 0.193174366402883, 0.19722200678644197, 0.20130990788619976, 0.20543395709021164, 0.209583896667453, 0.213764584774757, 0.21796398007054427, 0.2222057796250064, 0.22650098668979465, 0.23079555463183313, 0.23511865970891335, 0.23952668077369144, 0.24389724603679755, 0.24815996069402377, 0.25260537514913795, 0.25707003232533526, 0.26155847731195275, 0.26606086415697205, 0.2706967514987238, 0.2752226644235332, 0.2797734532563567, 0.28435919945760385, 0.2889542951128311, 0.2934864066207374, 0.2981341948190248, 0.30279636852978686, 0.3074472771225353, 0.31213988226189704, 0.3168552978627621, 0.32156880432111584, 0.32629346406827503, 0.3310240989583064, 0.33576979547236435, 0.3405221847480852, 0.34528546415404104, 0.35005623150662485, 0.3549161119379971, 0.35968929331878563, 0.36443349859433255, 0.3692299568411455, 0.37403130664352324, 0.37884339327081656, 0.3836506228647482, 0.388414374665767, 0.39323087342890445, 0.39804500341052523, 0.40291100965954874, 0.4077114976656308, 0.4124603545577025, 0.41726339538232504, 0.42205997417357244, 0.42681964511752823, 0.4316048899676257, 0.4363637768944624, 0.44112980289513104, 0.44588344198502927, 0.4505921665152456, 0.4553234971325393, 0.4600481041798398, 0.46474613366798123, 0.46942793131660365, 0.4740288503654066, 0.4786844032291467, 0.4833387453999737, 0.48794788461289235, 0.4925358418690451, 0.49712491594614916, 0.501665847129584, 0.5061484118312436, 0.5106495183218591, 0.5151249760376025, 0.519569575727256, 0.5239923633469405, 0.52834833040516, 0.5327194345961532, 0.5370589478009046, 0.5414395880969484, 0.5457052027615612, 0.5498365496515507, 0.5540561168814996, 0.5582383066536836, 0.562385093426369, 0.5664912258245969, 0.5705177871886362, 0.5745517842687122, 0.5785439554731628, 0.5825854916171931, 0.5864814970864596, 0.5902871189771224, 0.5941129852913906, 0.5978957066522524, 0.6015796720187673, 0.6052808620010945, 0.6089587770478696, 0.6125596074321178, 0.616112729465773, 0.6195306084196749, 0.6229973997254448, 0.626519445538936, 0.6298633357032801, 0.6330970687783962, 0.6363509164633963, 0.6395508573758324, 0.6426369620370737, 0.6457351803952758, 0.6488227056367778, 0.6517973540160539, 0.6547157921244858, 0.6575271268605394, 0.6603377636576235, 0.6630944740738897, 0.6657824822493975, 0.6684096669312912, 0.6710351594586946, 0.6735321566809954, 0.6758951229853775, 0.6782836671260384, 0.6806077069791979, 0.682841903443837, 0.6850395367627686, 0.687127160100593, 0.6891971106554106, 0.6911978943155924, 0.6932029007057563, 0.6950566372587481, 0.6968571511759362, 0.6985795495071006, 0.7002368042165925, 0.7017871323752469, 0.7033174934631861, 0.7048106822619422, 0.7061984385600877, 0.707518444836001, 0.7087405280296085, 0.7099274998745151, 0.7110827014131179, 0.712123347703593, 0.7130953059940294, 0.7139364061189928, 0.7147775776665646, 0.7154745630377408, 0.7161783201627496, 0.7168051809786233, 0.7173855989006607, 0.7178569865567421, 0.7182504866090705, 0.7185760768064212, 0.7188285704683945, 0.7190425085837012, 0.7191451549069265, 0.7192596044466605, 0.719210685207616, 0.7190956894973922, 0.7187652516892803, 0.7185348791658004, 0.7183494850754829, 0.7179521006901632, 0.7174867856028376, 0.7169509416649712, 0.7163491939218253, 0.715582612190343, 0.7148553629117237, 0.7140538222570189, 0.7131650595746921, 0.7122189986771682, 0.7112389952870342, 0.7101431530489137, 0.7089781839328417, 0.707744472335252, 0.7064424091836499, 0.7051204209390327, 0.7036767878608526, 0.7021687237229635, 0.7005368090980815, 0.6989075908578628, 0.6971880389790274, 0.6954274738382459, 0.6935995269108692, 0.6918262631571812, 0.689850755408712, 0.6878079963430661, 0.6857172444625572, 0.6835675918244356, 0.6812424796466262, 0.6789900909106692, 0.6767276131376319, 0.6743395635154884, 0.6718920304659752, 0.6693696938689615, 0.6668072968779515, 0.6641706104317796, 0.6614945290805871, 0.6587609682136393, 0.655950317123448, 0.6531072993725338, 0.6502313835914466, 0.6472750294949163, 0.6442663435943419, 0.6412725002725356, 0.6381533165173936, 0.6349835020114725, 0.6317731044424589, 0.6285171055199805, 0.625149672772002, 0.6218123850269184, 0.6184822938857398, 0.6150438552447868, 0.6115631271772599, 0.6079859072088881, 0.6044296347778885, 0.6009376461829512, 0.5972825965744214, 0.5935927999662393, 0.5898274027123795, 0.5860743422592616, 0.5822190906477341, 0.578403560926727, 0.5745502236152996, 0.570697127313815, 0.5667678690025924, 0.5628619759109883, 0.5588637637494024, 0.554839176721237, 0.5506950422523343, 0.5466314044787343, 0.5425357924399048, 0.5384145710680519, 0.5342664848372287, 0.5301089625018761, 0.5259093353355162, 0.521701589841726, 0.5174577130876393, 0.513195080969666, 0.5088872713151517, 0.5045936640586677, 0.5003331396687268, 0.49599994742538006, 0.4916547996062467, 0.48731448794054705, 0.48294577969299973, 0.4784746727570308, 0.4741012866671804, 0.4697154973138124, 0.46538746290313787, 0.4609727683560607, 0.45648764810680376, 0.45207395152074287, 0.4476540811431917, 0.44331175406267376, 0.4388732266420527, 0.4343365186843041, 0.429916192622055, 0.4254938713999011, 0.4211739412731293, 0.41673896064568927, 0.41220219969250144, 0.40779755355779634, 0.4033957161084896, 0.39901413722659534, 0.394620146503728, 0.39023398528855496, 0.3858567771048346, 0.381489608995523, 0.37718384917388714, 0.3728335294885521, 0.3684168112727128, 0.3641093341272487, 0.3598143232754129, 0.3555856533981982, 0.35131268060130233, 0.3471250863832683, 0.34288251517037327, 0.3386640815032279, 0.33441962383042445, 0.3302563547110035, 0.3261242047414329, 0.32200446191263715, 0.31790868266333566, 0.3138741205677084, 0.30982362971240807, 0.30567307746540556, 0.3016951792284156, 0.29773889035971957, 0.293888013617762, 0.2899688405952208, 0.28603884242713556, 0.2821860831047067, 0.27836240939470586, 0.2745480984995291, 0.27078773823390534, 0.26714467460797936, 0.2634350138603148, 0.2597623829881114, 0.2560811464164269, 0.25248871328800443, 0.24889457916133803, 0.2453771317864108, 0.2418936539766805, 0.2384930029479147, 0.2350738244267653, 0.23165246860978997, 0.2283167600613903, 0.2250183058409043, 0.2217851708879249, 0.21855957533433207, 0.21526702284633856, 0.2121363667179909, 0.20914597059320908, 0.20607325583843109, 0.20304364549480836, 0.2001006555475519, 0.19715195541089747, 0.19417353656222905, 0.19132561772945622, 0.18851872718982526, 0.1857784475434986, 0.1830516683649231, 0.18031817224032162, 0.17768505945530455, 0.17509293064617296, 0.17255371683516474, 0.17004353786421364, 0.16763804690491066, 0.16520617447145192, 0.16282114513263968, 0.16043231618329107, 0.15814638066659684, 0.15583952965291864, 0.15364808776082534, 0.15149645012201848, 0.14940809403631808, 0.14733490181085485, 0.14536381164769663, 0.14336854842748764, 0.14141955120397817, 0.13949583545852234, 0.13764078759142595, 0.13574965382279078, 0.13399245887821196, 0.13227434567354815, 0.13070095334560516, 0.12904891990359965, 0.1274314842849087, 0.12587230762860105, 0.12435724938213913, 0.12279662226419523, 0.12137961623148505, 0.11999800565105812, 0.11865692158776799, 0.11735384837871601, 0.11607519879537354, 0.11485021865657685, 0.11366725857859009, 0.11251664902924711, 0.11140379009882243, 0.11037889076453185, 0.10933480458784137, 0.10828280326077863, 0.10732436823044154, 0.10640207046181001, 0.10553168299502416, 0.10467888922910548, 0.10384859036769241, 0.10306949732594485, 0.10232490187669975, 0.10159841267576804, 0.10092366590759916, 0.10030417159002074, 0.0996909776820334, 0.09911077576372795, 0.09863846940175457, 0.09811299900124619, 0.09761846334770397, 0.09716340151259602, 0.09674128918837409, 0.09631223355942184, 0.0959579502265044, 0.09568872704623275, 0.09538242902599738, 0.0951061159538769, 0.09479473745992736, 0.09458350674222586, 0.09438206753808122, 0.0942192520118453, 0.09407846167688888, 0.09397542252005288, 0.09387577436336308, 0.0937775166198008, 0.09372391155644827, 0.09369010095043019, 0.09365513983926346, 0.09366240585839564, 0.09366884335039809, 0.0937130804062076, 0.09377316001731534, 0.0939289160552663, 0.09400987065128164, 0.09404404671149995, 0.09417147945898637, 0.09431278043864806, 0.09447442538593667, 0.09464140797818676, 0.09479166589857277, 0.09498789652319764, 0.09519440102924101, 0.09548176359571842, 0.09569886984899185, 0.09596118899583365, 0.09619964445435443, 0.0964511518153095, 0.09667795323232353, 0.09695676385931022, 0.09722726819912048, 0.09752282685220376, 0.09782384190843478, 0.09814580005397243, 0.09845413419182565, 0.09874209299665059, 0.0990625167531041, 0.09938501609863756, 0.09978235388665645, 0.10009847405373087, 0.10040347112046161, 0.10073035030296436, 0.10105920951805718, 0.10139384263222699, 0.10172378316189856, 0.10198741305590617, 0.10232505940305232, 0.10265761913941603, 0.10298269937303266, 0.10330502082792746, 0.10360798157071412, 0.10392057507449044, 0.10422636022633794, 0.10460296810728664, 0.10488488636828243, 0.1051730247649958, 0.10544708616963101, 0.10571709955095111, 0.10590449382307111, 0.10617386235283004, 0.1065125916071791, 0.1067504361043736, 0.10698198864684692, 0.10717677846192603, 0.10739734205021612, 0.10753241236156787, 0.10774212421669256, 0.10793688784697415, 0.10824048145394578, 0.10839050574915025, 0.10851029440663472, 0.10864759550660628, 0.10877455860788625, 0.10884946866844653, 0.10895935900235953, 0.10905737043393716, 0.1091385436071264, 0.10920548043320404, 0.10930150849333693, 0.10933409928314955, 0.10932249339379123, 0.10933430007907546, 0.10933122469956828, 0.10931999624551496, 0.1092858994148677, 0.10921634563299144, 0.10915493668751963, 0.10907717826828102, 0.10901740132130179, 0.10890267552069549, 0.1087621462022035, 0.10861986173976092, 0.10846206292330865, 0.10826118997922693, 0.10807550195809158, 0.10792506147780036, 0.10769816509502511, 0.10745715498264853, 0.10723604049775944, 0.10696162084950647, 0.10656904874036088, 0.10628158170488426, 0.10597442795226175, 0.10566640895362016, 0.1053190960155459, 0.10494769861502479, 0.10456705540767697, 0.10416928621929508, 0.10385758299064521, 0.10341335866084729, 0.10295856127517387, 0.1024925948633108, 0.10201495616740687, 0.10145661564128566, 0.10096312848217631, 0.10040963316724814, 0.09988887449672543, 0.09934979880853936, 0.098836532249581, 0.09825729464970172, 0.09771893632654192, 0.09710492499555645, 0.09648036214374021, 0.09588159875894407, 0.09523064391817407, 0.09449288879850833, 0.0938333180407275, 0.09309337142638961, 0.09241450103251687, 0.09171868389200036, 0.09104801985362511, 0.09031583026801725, 0.08958988609470639, 0.08883168372702419, 0.08806324921714812, 0.08730997172488995, 0.08651859666231282, 0.08573970699625519, 0.08492958966538575, 0.08411267486331107, 0.08322487998801203, 0.08240237779889699, 0.08160607964674857, 0.08075877455081669, 0.07990430805572035, 0.07899719307157921, 0.07813496137379376, 0.07727981094301026, 0.07639835786505886, 0.0755101572593964, 0.07467056064767225, 0.0737633008895614, 0.07287659669434125, 0.07196180426277364, 0.07104600384371564, 0.07004446816220453, 0.06913708991332393, 0.0682558271167229, 0.06733333167005906, 0.06640816395797314, 0.06555848579820515, 0.06461934920081826, 0.06365795207301, 0.06272756443731453, 0.06179828722050633, 0.06090226087146365, 0.059971559138637935, 0.059009932029395536, 0.058090291534004274, 0.05717209072168367, 0.05618706700947418, 0.05528147667444293, 0.05440428338458841, 0.05349319282793445, 0.05258422920707243, 0.05168710947957204, 0.050782926813875535, 0.049905894652104786, 0.049007812582955786, 0.048116148889537996, 0.04723113392666855, 0.046353012594860334, 0.04543630175988957, 0.044578534105126646, 0.04372589585594705, 0.042881326340319964, 0.04204057510933983, 0.04127324715681667, 0.040438834049030536, 0.03961626482349621, 0.038812339068584764, 0.03801244833240848, 0.037227012771681195, 0.03645116763058362, 0.03568765309177651, 0.03484961206970195, 0.034121928185404625, 0.03347969589519843, 0.032758396121326756, 0.032050748154444045, 0.031311090641775174, 0.03063678945807539, 0.02992584645797973, 0.029280893724928293, 0.028645608205691623, 0.028066559308666927, 0.027447235895661226, 0.026872144935461636, 0.026278318890575202, 0.02570115994909403, 0.025049180214814535, 0.02451692125446024, 0.024037397044496225, 0.023523848775374306, 0.023025658962539042, 0.022582005421131344, 0.02211048776192595, 0.02170993769656735, 0.02126842147461193, 0.020848084876426365, 0.020329539008684297, 0.01996527657699073, 0.01962804926091832, 0.01928935389298349, 0.01896602358628814, 0.018667637600025523, 0.018375128957426712, 0.018124817667706974, 0.017863441258465937, 0.01762095712477842, 0.01743851344391675, 0.017228557299085612, 0.01703518444929876, 0.016867780567662936, 0.016720638316884036, 0.016538645298914113, 0.016438324072752246, 0.01635230881453281, 0.016285756172314543, 0.01623621916957769, 0.01619707937426016, 0.01618313590325135, 0.016236768505384643, 0.0162511917474001, 0.016286078182428294, 0.016391480284191785, 0.016460167337370782, 0.016455364038043277, 0.016580718357171915, 0.016722096509098092, 0.016900368696571265, 0.01707200826744575, 0.017220390775859316, 0.017433051846076617, 0.017661292373524616, 0.018017476521962915, 0.01826355186072843, 0.01843389511081911, 0.018736875099149338, 0.019055516610689344, 0.01951120609802682, 0.01984632508193521, 0.020083096469380248, 0.020478356386496598, 0.02088793751815182, 0.021396687436702158, 0.021824844675342302, 0.022224582292894732, 0.02269743859426397, 0.023186074746005456, 0.023646920845815277, 0.02417225020472631, 0.024774574124322785, 0.025317921799875503, 0.02587816664794251, 0.026416011716679184, 0.027013733634432113, 0.027624973779116855, 0.028249678105346957, 0.028887766637688373, 0.029525413287544985, 0.030191671410137608, 0.030979945019460133, 0.03165674520011974, 0.0323518059689361, 0.032970364983288425, 0.0337109047113557, 0.034537176918767155, 0.03528868352429588, 0.0360546310070014, 0.036768015927221, 0.03756924048175216, 0.038441034447892944, 0.039252074337266074, 0.04007533494269029, 0.040919391141454146, 0.0417642519043603, 0.04256076579648432, 0.04343482403253331, 0.04431558933310672, 0.045335698422113185, 0.04621304091323907, 0.04706095427685118, 0.04797067405573572, 0.0488897558785897, 0.04979014371716948, 0.0507296284490133, 0.05175069885101108, 0.052692595452640774, 0.0536442991752027, 0.05458892808026177, 0.05555972955016633, 0.05655991644508109, 0.05754032193603863, 0.05852749671962104, 0.05949335309931044, 0.06049566038336199, 0.06154716328001894, 0.06255031935035481, 0.06355895227843215, 0.06459073240690971, 0.06560618122145669, 0.06671789127041147, 0.0677307041795622, 0.06875222898955936, 0.06980407848518724, 0.07083649943257615, 0.07185724285977153, 0.07290414268937379, 0.07399577870642798, 0.0750439184223808, 0.0760966283957859, 0.07717361616123786, 0.07823034057073185, 0.07931790733303337, 0.08037719519406343, 0.08143999002611095, 0.08251692125688509, 0.08358296863382074, 0.08472880042847665, 0.08578844232025239, 0.08685330744631585, 0.08786055327969322, 0.08894053690392371, 0.09009031100722463, 0.09115890330220114, 0.09222998228415177, 0.09331884934973966, 0.09439085460023973, 0.09548042120517018, 0.09655293947679999, 0.09762686048881745, 0.09871308659116589, 0.09978685268141084, 0.10092991792381177, 0.10199598529679949, 0.10306586095051863, 0.10408612336833892, 0.10516792992571357, 0.10628965561237805, 0.10736369617472047, 0.10843870202629344, 0.10961725751012977, 0.11068025298927227, 0.11164627216744594, 0.11273318129804939, 0.11381844604674154, 0.11494107710933225, 0.11601854781154151, 0.1171335903591723, 0.11820825498118563, 0.11928572494794194, 0.12031305800331892, 0.12140184220039409, 0.12256057121186971, 0.12363876754066637, 0.1247205551660753, 0.12584910072037564, 0.12693178616938433, 0.12797410348946053, 0.1290728703772388, 0.13017364265865614, 0.13135656494117146, 0.13245155289054053, 0.13353512465808545, 0.1346457215312705, 0.13576134335863804, 0.1369093084191501, 0.13803119512312417, 0.1390656833404782, 0.14021198843223456, 0.14135911895798084, 0.14260155622142967, 0.14374058522749963, 0.14481455177209293, 0.1459789393794042, 0.14714712848837191, 0.14831511815766285, 0.14949318779593257, 0.15068103674085198, 0.15186949261916077, 0.15306449844794273, 0.15429397749009852, 0.15550003806474172, 0.15671559115254965, 0.15794086313510375, 0.1591760994182091, 0.16043757203727937, 0.16169151720953848, 0.16289312323573008, 0.16417873818190915, 0.16547284028111744, 0.16683563784753502, 0.16814139168906536, 0.16946337502426137, 0.17079688169974422, 0.17214480314667369, 0.17346616843664367, 0.17484873809780435, 0.17623264186182772, 0.1776427953690717, 0.1790662540545846, 0.180569992666394, 0.18201359994225016, 0.1834783914142439, 0.1849595443864959, 0.18645984945903898, 0.18799085072067112, 0.1895283805936316, 0.191095294240511, 0.19267226333345602, 0.19427027090538843, 0.1958597128962967, 0.19750397975094627, 0.19915210826253946, 0.2008386174976741, 0.20254505098944928, 0.20421940919413115, 0.2059741298375049, 0.20782990738711468, 0.20961263800791496, 0.21142058973986863, 0.21321048949416782, 0.21507494439018746, 0.21698337941806722, 0.21889262243019275, 0.22082758482247478, 0.22275434150996765, 0.22474621866968192, 0.22676302273889362, 0.2288054004386632, 0.23087396013271105, 0.23293496917939405, 0.23506191575086344, 0.23720330554896418, 0.2393842108827638, 0.24159180429644647, 0.24382453014336045, 0.24608792047914402, 0.24845992862370617, 0.250770919998982, 0.25311608259114265, 0.2554998308389731, 0.2579123174344688, 0.2602833930766712, 0.2627734514003798, 0.26529318064812246, 0.26789804176583765, 0.27047183811888953, 0.2731028226215334, 0.27574235177647005, 0.27841747442492776, 0.2810662725276918, 0.28381991769554904, 0.2866350115173563, 0.289448745915748, 0.2922966532301147, 0.2951742556565174, 0.29809136995502733, 0.30096948557831527, 0.30396433835624237, 0.3069894823634266, 0.3101050550687566, 0.3131852011219296, 0.31625958152055955, 0.31941569279918913, 0.3226048037765989, 0.3258546321788641, 0.3291070430746904, 0.3323626503849683, 0.3356894536788105, 0.33904949124404077, 0.3424863636273076, 0.3459077723977518, 0.3494017584555238, 0.35289018510402814, 0.35641600821784214, 0.35989400291982826, 0.3635035445943586, 0.3671852031137476, 0.37085162293862145, 0.37455161046549657, 0.3783489425123265, 0.3821071801012531, 0.3857965693092722, 0.3896400160587251, 0.39351236206708656, 0.39749379666285506, 0.4014141861590156, 0.40536820960484155, 0.40935518851138225, 0.4133744731806902, 0.41742086450008464, 0.42150348469302484, 0.4254974119379044, 0.42965499707679716, 0.43383507247400177, 0.4381112512556422, 0.4423282212583868, 0.4466116113110875, 0.45087826396776537, 0.4551736570766462, 0.4594192031924184, 0.46377944614152955, 0.46818451488486335, 0.47258563144890225, 0.47700963122339707, 0.4814835053044977, 0.4859484098176535, 0.49037682141460903, 0.4948944199852346, 0.49943012403096343, 0.5040019440645279, 0.5085706278682688, 0.513214585479947, 0.5178116360841728, 0.5223647277136739, 0.5270089156187066, 0.5316673895099724, 0.5363304612260638, 0.5410170044139407, 0.5457201594369834, 0.5504296243651766, 0.5551501927349981, 0.5598422957894553, 0.5645878896346559, 0.5694408805065351, 0.5741868285085614, 0.5789442144636808, 0.5836590528978695, 0.5884418639523632, 0.5932611721104238, 0.5980480657901278, 0.602839565708715, 0.607559084133665, 0.6123660091936276, 0.6171677206768459, 0.6219686185309287, 0.6267654711114288, 0.6315554245817544, 0.636342720286803, 0.6411582873705691, 0.6459284790267065, 0.6506931221757433, 0.6554077075730204, 0.6601635802399574, 0.664887713824047, 0.6696231697027093, 0.6743448559150179