0.028752030560620496, 0.028498585130299077, 0.028284767662906142, 0.028060908005792227, 0.027851067960521947, 0.027637327394749032, 0.027451592618259055, 0.02724822040023998, 0.027079939345510673, 0.026915756189933505, 0.026850124208245958, 0.0266803262838643, 0.02645818342059679, 0.02631068463200449, 0.026165718173366995, 0.02602620377710231, 0.025885232951220825, 0.02574328695791733, 0.02560704449600971, 0.02547275186070299, 0.02537534359830983, 0.025240784506459796, 0.025018523195131013, 0.024903905922250988, 0.02478817014319533, 0.024735434903982098, 0.0246115732559374, 0.02443829472845483, 0.02433025401640454, 0.024223823236507652, 0.024097358439146458, 0.023998544192703888, 0.023958662743168768, 0.02385700205312844, 0.023761587230819215, 0.023656616509793026, 0.023575847928009395, 0.023529133766498518, 0.023456015322166023, 0.02339042081654727, 0.023357663303704618, 0.02330379834483576, 0.023271486225673613, 0.02323357443801473, 0.023204904478048315, 0.02316624087115446, 0.023157852014959828, 0.023043007962136455, 0.023064409465676186, 0.02308718675102656, 0.023223276704524152, 0.023237670403714224, 0.023189457760199275, 0.023233485837869248, 0.023283401980710626, 0.023403075503684322, 0.023458135984967307, 0.02347005751012491, 0.023553268823579644, 0.023643926770958335, 0.023732862457260848, 0.023840608781575207, 0.023968887469721978, 0.02409108070360933, 0.02422249557621983, 0.02443622097915678, 0.024577411257995774, 0.024735616247230845, 0.024903671991946253, 0.025084970280172248, 0.025266511724295372, 0.025474994941852878, 0.025654012455226822, 0.025891127278270466, 0.02613758364242507, 0.026403221870553356, 0.02666813670921369, 0.02694070365603986, 0.027227872983109355, 0.027526103562767693, 0.027816607160655402, 0.028140048229359442, 0.028439288575648078, 0.028788834903390757, 0.02914779700963974, 0.029523113721228803, 0.02990184936612903, 0.030317352763232636, 0.030716101975755295, 0.03112844827355417, 0.03151648556101788, 0.031961222415632005, 0.03243682192905006, 0.03290327202942818, 0.03338345143365074, 0.033823675628978894, 0.034338712638438476, 0.034861845074524, 0.03540040859880996, 0.035951186425405034, 0.036508338351715255, 0.037085788315137466, 0.03773982698148735, 0.03833605238018631, 0.03894978479686871, 0.03951109413871577, 0.04016809118895067, 0.04091740665778261, 0.041590972027653314, 0.042282879747635865, 0.04290725121620512, 0.04364581017270276, 0.044416145394258914, 0.04517831072657998, 0.04595523322421487, 0.04677567223328339, 0.04757917108131289, 0.04836160748257904, 0.04920378917460412, 0.050060670163261226, 0.050964193364890734, 0.051847171859655414, 0.0526997287637136, 0.05362286923033093, 0.05456027926846808, 0.055562973052215345, 0.056523366585653934, 0.05747312578954141, 0.05847268932373268, 0.059488119207163924, 0.060494101369611156, 0.06154458659232876, 0.06260643608065289, 0.06368659954856015, 0.06478150206367186, 0.06589130939306513, 0.06701615389115045, 0.06815296772702352, 0.06930856497264692, 0.07047924579988382, 0.0716714002507659, 0.07287157438336768, 0.0741601713963826, 0.07538210197839766, 0.07662349888203544, 0.07787100802840397, 0.07915097726665257, 0.08036861529892848, 0.08169202076305151, 0.08302711366925211, 0.08441856274228086, 0.08577224574427476, 0.08709962312432551, 0.08848810372599764, 0.08988874928242634, 0.0912604767174392, 0.09269098960657957, 0.09417281049858665, 0.09561866012722181, 0.09707753644996296, 0.098527124523577, 0.10001445910123848, 0.10155117480581324, 0.10305638981088251, 0.10457504692940292, 0.1060972611840724, 0.10764288468926518, 0.10921298980061878, 0.11078033715619022, 0.11235963682153804, 0.11397585696226774, 0.11557469629536565, 0.11719210802720818, 0.11881404213586721, 0.12044745652569207, 0.1220917892278231, 0.12374650923333287, 0.1253191923757789, 0.1270048219003455, 0.12869423733716567, 0.13040041500515445, 0.13209661586287494, 0.13386454821016838, 0.1355626566672576, 0.13726959815455186, 0.13892134562193167, 0.1406520967335806, 0.1424021549366704, 0.14413777392203864, 0.14587760684491613, 0.1475865324852193, 0.14933841734494085, 0.15117414856667116, 0.15291845447378327, 0.15466871293258536, 0.1563575749583636, 0.15812583827087795, 0.15993845628492215, 0.16170092894414625, 0.16346555807873683, 0.16515253761110332, 0.16692982005877946, 0.16875704422276838, 0.17051973892459082, 0.17222144342535545, 0.17398976546915593, 0.17575302957262556, 0.1775556350709119, 0.17930318194565573, 0.18106073059406905, 0.1828008185255734, 0.18453793583517036, 0.1862651373938623, 0.18799530997084088, 0.18974256267415412, 0.19145919449956114, 0.19317092713648146, 0.19483269381454565, 0.19653819010426604, 0.19827867217957632, 0.1999595137280679, 0.2016329015641013, 0.20327914896978938, 0.20493805215823743, 0.2066277046849204, 0.2082600361241862, 0.20988332528399017, 0.2114999611779117, 0.21310246430003366, 0.2145639242669934, 0.21615999115584658, 0.21773632252198263, 0.2194106094227551, 0.22093377872154124, 0.2223718342596172, 0.22387899080787013, 0.22536827118560449, 0.2268839093288131, 0.22833136470752644, 0.22978825876199427, 0.23120007197109677, 0.2325962104745165, 0.23384912005724778, 0.23522767842027306, 0.23667952325531502, 0.23799607543389867, 0.2392938022538572, 0.24053406198595353, 0.24179715186907158, 0.2430692250173627, 0.24428264149939455, 0.24547462581141286, 0.24668268342726107, 0.24782541959701884, 0.24886173581022067, 0.24997282725245834, 0.25105675391335197, 0.2520754801969965, 0.25310984625196015, 0.25416233920063996, 0.2551320524977124, 0.2560753395252454, 0.25702992368108785, 0.2579146062771388, 0.25879940413590263, 0.25962976886247086, 0.2604350974556869, 0.26121780175797904, 0.2619704424609097, 0.26266759568502984, 0.26336930153434424, 0.26404125328549793, 0.2647116806520969, 0.26531963862507957, 0.2657939915375575, 0.2663566741304664, 0.2668835427784223, 0.267432079971033, 0.26788132178372337, 0.26826416676607845, 0.2686545366827224, 0.26901098788672295, 0.2693621232664238, 0.2696473310513063, 0.2699637659830054, 0.27017640390729175, 0.2703600018435034, 0.27044095104862764, 0.270573643496567, 0.2706522888667645, 0.2707174167606154, 0.2707466121436762, 0.2706766974415954, 0.2706426616930768, 0.2706457723458457, 0.27052491667445644, 0.27037062287523833, 0.270198624171254, 0.26997511707848726, 0.2697472799144144, 0.26945424701082277, 0.2691295776944151, 0.26867780461226914, 0.26830080834537823, 0.2679682786966769, 0.2675055123268709, 0.2670104540608372, 0.2664290006194009, 0.2658755577113191, 0.2653211340295399, 0.26469192258988444, 0.2640294702801497, 0.2633052692464676, 0.262580021145715, 0.2618073736215648, 0.2610145972393665, 0.260186999178949, 0.2593439922086486, 0.25844551203492055, 0.257460524964196, 0.2565038076940237, 0.2555118418819229, 0.2546025503988095, 0.25352715000674303, 0.25236783653659445, 0.251245517550678, 0.2500923967152352, 0.24900377703908733, 0.2477776857534103, 0.2463619968811574, 0.24510669483150374, 0.24381647562568268, 0.24253357862896177, 0.24117134280274993, 0.2398713117780968, 0.23843852822916392, 0.23698218905877003, 0.23543864932834505, 0.23394254476894896, 0.23242198993993993, 0.23087073655922527, 0.2292930262673321, 0.2277241952599657, 0.22609057777432703, 0.22437366258082858, 0.22270171788957052, 0.2210037718794026, 0.2192520644670346, 0.217507996847047, 0.21579877437121267, 0.21399725989058554, 0.21217554961534546, 0.21030229910072867, 0.20844528454045777, 0.2065610796792576, 0.20466383543265507, 0.2027467124286923, 0.2007850497760921, 0.19883344824060067, 0.19691013174825311, 0.194914855434883, 0.1929046648333135, 0.190918002624054, 0.18887441342795624, 0.18684784819161282, 0.1847778013326916, 0.1826982170664755, 0.1805584097865849, 0.17846632335041568, 0.17633679538885078, 0.17422438207012858, 0.17209973513540888, 0.16994151143751626, 0.16779771284530878, 0.16569995495433604, 0.1635278745761592, 0.16134986053259304, 0.15911245279435146, 0.15693068167112512, 0.15479518029274664, 0.15259228969250233, 0.15038661798955333, 0.14816907682142924, 0.1459603310265745, 0.14368620798730336, 0.14148207080904593, 0.1392735210296491, 0.13715039300744739, 0.13492498935495734, 0.13261765480923243, 0.13041058361245983, 0.12820282707105976, 0.12609362903794386, 0.12387498104644591, 0.12158472932541634, 0.11939143584007272, 0.11720151243644, 0.11498724317077921, 0.11281006949127616, 0.11070674159268555, 0.10852993291258577, 0.10636301013665189, 0.1041618933366283, 0.10202126547393423, 0.09996823643023887, 0.09783502541776538, 0.09571603630581153, 0.09359862524413258, 0.09150984424539646, 0.08951091454271316, 0.08744036332823991, 0.0853409226901836, 0.08331342429406643, 0.08130147001040446, 0.0793307123303993, 0.0773475548626783, 0.07546474547636584, 0.07350720923933406, 0.07157261416737835, 0.06958130581490334, 0.06770148912842534, 0.06584243009326567, 0.06399792022960955, 0.062172240046361904, 0.060419779196852104, 0.058626461053711776, 0.0568153045274146, 0.05507399720105227, 0.05335392533976695, 0.051753836212216874, 0.050065268921560394, 0.04839221881673876, 0.0467613250057795, 0.04515736220356911, 0.04366269077530795, 0.0421020738648441, 0.04064275632865486, 0.039135892386410485, 0.03766350112038918, 0.036164460068373275, 0.03476609531410577, 0.03345048184948982, 0.032103058776175204, 0.030787621499207298, 0.02949434688291976, 0.02824323269780293, 0.027073606093060653, 0.025877628563819595, 0.024715326802086858, 0.023554692492618965, 0.022462901041012413, 0.0215195962645763, 0.020475563143325867, 0.019469682849620095, 0.018567788413455227, 0.017627739396551337, 0.01669290242452333, 0.015836504212770917, 0.015016554597783498, 0.014245391629080789, 0.01349580074101075, 0.012823801790075511, 0.012141556923299924, 0.011497645711802543, 0.010958209704223202, 0.010381375900170096, 0.009820249922221051, 0.009328034081133134, 0.008874148173452974, 0.008480499841490553, 0.008099699012229565, 0.0077451566380713965, 0.007443557844871953, 0.0071796996886263585, 0.007016924179680654, 0.006820413152694824, 0.00669367325092892, 0.006575570810410987, 0.0064994499973971345, 0.006448913835288232, 0.006457204516159858, 0.006565424843088437, 0.006645329704841163, 0.0067679980326553054, 0.00692650435749002, 0.007133833869528913, 0.00737890505113812, 0.007668163367828436, 0.007997619915735475, 0.00838295433809217, 0.00879033375187449, 0.009346166977004154, 0.009821087218000254, 0.010342371481527758, 0.010829777374859203, 0.011450940790865286, 0.012165290196217836, 0.01285823817697264, 0.01359351466147385, 0.01437704492059651, 0.015194995947756649, 0.016016528848400532, 0.016922220542922976, 0.01786683271369333, 0.018888488249552082, 0.01990638869081617, 0.02106702102705012, 0.02215446774205559, 0.02328847223952878, 0.024483891649517427, 0.025706158485616172, 0.026935222269222486, 0.028251179552993774, 0.02960836911909681, 0.030974810301263873, 0.03241766328928821, 0.03388656237572414, 0.03540855064588738, 0.036968712740127974, 0.038605258690570465, 0.040237461821300356, 0.04184070485118192, 0.04356308141593244, 0.04532195951337097, 0.047181140950446294, 0.049006176666549175, 0.05088818373035511, 0.0527932077482386, 0.05473975702368414, 0.056762355376836215, 0.05878655085999143, 0.06079623835322858, 0.062912201802696, 0.06506649005295213, 0.06729399733071145, 0.06952059860246547, 0.07170828849699827, 0.07402528337137061, 0.07637761309514933, 0.07881321897725556, 0.08123133552996169, 0.08373601416280094, 0.08622600317276817, 0.08875737997535277, 0.09122184836267641, 0.09384809360000097, 0.0965589531522981, 0.09924705678791308, 0.10197277716564174, 0.10473604090203599, 0.10753676611557791, 0.11037169351878884, 0.11324746656914231, 0.11616023391008755, 0.11917013607395038, 0.12214901971278995, 0.1250951018777456, 0.12816281562650156, 0.13126541407481243, 0.13440933569076743, 0.13758117046473112, 0.14079162861682717, 0.14403393910404386, 0.14731180395863785, 0.15062513746924758, 0.15397384442591142, 0.15734514227054983, 0.1607658796349674, 0.16422094418715943, 0.1676817850538618, 0.1712090204883899, 0.17486711568072272, 0.17844728170206164, 0.18206582888871142, 0.18564280001307526, 0.18934604583413062, 0.193014700426739, 0.19679039936259188, 0.20059448792708634, 0.20442753062946195, 0.20828999756220545, 0.21219495189526422, 0.21611574018854227, 0.220067592655434, 0.22404107202614582, 0.22805642593424258, 0.2321689599664352, 0.23623716015344184, 0.24033972825509328, 0.24445706125973127, 0.24862904811415928, 0.25279464139358265, 0.25703438117783933, 0.2613029521291335, 0.26566372313946157, 0.26998183439079787, 0.2742719408375727, 0.2786614798968818, 0.28307864718791054, 0.28746632076066597, 0.29194572515739203, 0.29654118671501695, 0.30105755209704216, 0.3056037532109186, 0.3100777803979749, 0.31469476317874207, 0.3193342247188265, 0.32399647045261903, 0.32868172289919345, 0.33339329890514824, 0.33812453713988067, 0.34296161428178185, 0.34772922316543353, 0.35246448472495884, 0.3572946440681026, 0.36214770957055614, 0.3669632070326492, 0.3718689228044481, 0.37677115211485235, 0.38171723931831775, 0.38668102982833136, 0.3917673124048064, 0.3967537656320238, 0.40166267757703356, 0.40670884207854213, 0.41177146261917874, 0.4169044242351727, 0.42199307669310443, 0.42708516220874476, 0.43221376076005336, 0.4373595127815835, 0.44252826935045053, 0.4477060481693496, 0.45281741954802335, 0.45803704842388754, 0.46326689563143736, 0.4685831081497269, 0.47382391162033144, 0.4789872548295144, 0.4842678274361263, 0.48955616559655407, 0.4948332371730272, 0.5001393852826249, 0.5054139106269137, 0.510737605199901, 0.5160653184254868, 0.5214763535343996, 0.5268021650962803, 0.5321109670751094, 0.5374558220340939, 0.5428058879742125, 0.5482524368685899, 0.5535993352128012, 0.5588468255624672, 0.5642226251375992, 0.5695979203813332, 0.5749627663461696, 0.5803369016015273, 0.5856705216618696, 0.5910440227681614, 0.5964118959260334, 0.6017992351045408, 0.6071517818949141, 0.6125434937785216, 0.6178793406545426, 0.6232111014573749, 0.6284901508259545, 0.6338165308687522, 0.6391361457853417, 0.644441614032021, 0.6497360104454744, 0.654967892213608, 0.660244349648421, 0.6655553518332317, 0.6707926731827315, 0.6760158352936261, 0.6812714630996066, 0.6864575307072522, 0.6915786203926586, 0.6967412608466915, 0.7018842106934844, 0.7069971408814983, 0.712099437755107, 0.7171282949133091, 0.7221907721521997, 0.7272260942911213, 0.7322433577427658, 0.7372218625925449, 0.7421723137962005, 0.747094040549703, 0.7519863327392633, 0.7567660335173345, 0.7616076085961945, 0.766444493011786, 0.7712091177872525, 0.7759386940154827, 0.7806452800195873, 0.7853012430517228, 0.7899018400567132, 0.7944866508949787, 0.7990323019292108, 0.8035443820889479, 0.8080086252841419, 0.8124538992097068, 0.8168321290568906, 0.8211686428076096, 0.8253799269713907, 0.8296401334233963, 0.8339141196842613, 0.8380666781632282, 0.8421722995808816, 0.846201409497089, 0.8502136299680024, 0.8542090627915951, 0.8581127763105854, 0.8619651936525056, 0.8656701211793222, 0.8694286812413831, 0.8732161160937236, 0.8768434296675933, 0.8804152280822095, 0.883797259543174, 0.8872715137121924, 0.8906731561065004, 0.8940156991760277, 0.8972915723201806, 0.900551372985418, 0.9036870525677883, 0.9067012442345557, 0.9097145070059509, 0.9126585982549689, 0.9155268576777422, 0.9183323838387983, 0.9211338092004691, 0.9237891638660043, 0.9263766910345377, 0.9288161052742017, 0.9312749010538625, 0.9336932631957554, 0.935996747959959, 0.9382262386576439, 0.9403652197893961, 0.9424467272286609, 0.9444925654429928, 0.946414588128974, 0.948260992188734, 0.9500499302301855, 0.9517401374796135, 0.9533659985524938, 0.9548996551862955, 0.9563552597622837, 0.9576526815769012, 0.958959597999359, 0.9601973837937886, 0.9613322660592741, 0.9623828880363882, 0.9633648510793728, 0.9642442065994028, 0.9650236011964252, 0.9657363649918395, 0.9663634074394084, 0.9668284565387958, 0.9672930809005568, 0.967613249910926, 0.967903979235859, 0.9681019155976887, 0.9683536084813203, 0.968349655560584, 0.9682154879381668, 0.9680515110222013, 0.9678008822294649, 0.9675141548495867, 0.967083348521579, 0.9664637221049518, 0.9658772003334204, 0.9651996647894928, 0.9644601300210365, 0.9635983847539578, 0.9626200550432006, 0.9615859650222408, 0.9604625509596247, 0.9593199562890233, 0.9580102931686474, 0.9566227470039974, 0.9551436527254248, 0.9535803881113536, 0.9517775317752857, 0.950065306506125, 0.9483202871289417, 0.9464157367940707, 0.9444240987734875, 0.9424094198855748, 0.9402375351267179, 0.9378857763396686, 0.9355631943879252, 0.933153757430355, 0.9307250402666876, 0.928136467598731, 0.9254581744699308, 0.9227107442766344, 0.9198833361758898, 0.9169416041867433, 0.9139602390501111, 0.9108478728850763, 0.907713234488252, 0.9044972310819213, 0.9012772192420192, 0.8978926697205724, 0.8944283926198561, 0.8908984096656574, 0.887295811049745, 0.8836878413753252, 0.8799336758224836, 0.8760145216250413, 0.8721395730232087, 0.8682563754394885, 0.8642313582257725, 0.8601407062230014, 0.8559597609727542, 0.8517431983074627, 0.847436481644245, 0.8430945919477193, 0.8386886231886262, 0.834242067396674, 0.8297090423947822, 0.8250505180208909, 0.8204091505633744, 0.8157073605939196, 0.8110641170093106, 0.8062316808170039, 0.8013376660456502, 0.7964096604542233, 0.7914333850637966, 0.786397057354243, 0.7813285946779939, 0.7762488830509308, 0.7710849477325107, 0.7658792215617257, 0.7606041307502086, 0.7553213539604031, 0.7498682759187475, 0.7445225992023627, 0.7391320199389102, 0.7338954972348182, 0.7283974707858882, 0.7227933191914667, 0.717252098215265, 0.7116807664376642, 0.7060236762022873, 0.7004035697911036, 0.6947956160859254, 0.6891140966399385, 0.6834095959537289, 0.6776202034077031, 0.671882206590676, 0.6661601628421367, 0.6603751901087643, 0.6545742058974977, 0.6487144108510045, 0.6428917297091344, 0.6370552374309053, 0.6312068312931015, 0.6253483542445114, 0.6194847695755252, 0.613611086016861, 0.6077200813584626, 0.6018403617087782, 0.595958548960913, 0.590152404667108, 0.5842618180544603, 0.5783435000766338, 0.5724725669216815, 0.5666088094858879, 0.5607187064558002, 0.5548777469384385, 0.5490302007564909, 0.5432113991456302, 0.537404196139566, 0.5316641666278967, 0.5258783732266823, 0.520074103233134, 0.5143333672201706, 0.5086123316435108, 0.5029219718693809, 0.4972435077531236, 0.49165933244939564, 0.4860224791620047, 0.48041671368376254, 0.47481106859840705, 0.4692737307091171, 0.46365394357254797, 0.45819548312872255, 0.452764546396739, 0.44741073419350874, 0.4420348865371261, 0.43676796726894307, 0.4314563116870977, 0.42618744733338665, 0.42093670764287505, 0.415758739600288, 0.4106179734263986, 0.4055288743628838, 0.4004849260019929, 0.3954174200510261, 0.3904756484207548, 0.38561934738769055, 0.3807624328953058, 0.37595508329736066, 0.37129342670976817, 0.3665762637718081, 0.3618631305462941, 0.35726878319686267, 0.35272973805066504, 0.34824038158708076, 0.3438149131344111, 0.33941801932848603, 0.335111111656114, 0.33086118688611205, 0.32661847126126764, 0.32249169797094734, 0.3184629434688106, 0.3144457921074796, 0.3104900831477304, 0.30661552632185435, 0.3027823316100227, 0.29894703674017364, 0.2952516034101132, 0.29161771778841605, 0.2880684842228173, 0.2845575522571625, 0.2811562854015261, 0.27777081873311843, 0.27445407752266865, 0.27114588458153943, 0.2679743492520968, 0.2648302628981832, 0.2617950322794515, 0.25882413669692683, 0.25600385993958846, 0.2531528254999785, 0.25033788891014946, 0.24763293800459507, 0.24499649650543726, 0.2424032482535684, 0.23990712353084806, 0.237506641400377, 0.23514129340078907, 0.23284491255422002, 0.23059195909752608, 0.22843615157716085, 0.22635045073893573, 0.2243280777971491, 0.2223726968675891, 0.22046830672817858, 0.21864841716722178, 0.2169479441457499, 0.21525217201245184, 0.21362463977452723, 0.2120837042349184, 0.21058827437119876, 0.20904925913912964, 0.20770177199017492, 0.20641385284070524, 0.20516662385958648, 0.20400056876454972, 0.2030072593119706, 0.201944075620946, 0.20094588639103506, 0.19998308941320003, 0.1991153042609801, 0.19822220257569936, 0.19748500882006442, 0.19680175204353886, 0.19616283615250102, 0.19558829957778254, 0.1950412708891272, 0.19457539808154445, 0.1941603385331031, 0.19392899023169402, 0.19359794603131472, 0.1933115482962775, 0.19309520099641556, 0.19293241640860365, 0.19283453642575385, 0.19277330113776522, 0.19271806207118694, 0.19276184166113794, 0.19285086263349346, 0.19288912439382697, 0.19307790470760952, 0.1933735467965787, 0.19362757895277327, 0.1939221669284003, 0.1942563547612579, 0.19462916697188837, 0.1949984043567388, 0.19545067820688833, 0.1959362349351245, 0.19643217855417575, 0.19698492747362464, 0.19760863795255867, 0.19821501170209313, 0.19885203832444123, 0.19954395004251585, 0.20023569243793038, 0.20097195987229752, 0.20171770172714257, 0.2024903303160845, 0.20327572967074786, 0.20409945685031922, 0.20496416447480006, 0.20582817053074012, 0.2067127375681168, 0.20763551661819374, 0.20855473161788898, 0.2094313423528334, 0.2103919782391727, 0.2113640320186001, 0.21230860221217426, 0.21330568077221737, 0.21429352891476194, 0.21530522361350501, 0.21628013961465833, 0.21730529923892858, 0.2183313163222289, 0.2194719201805317, 0.2204840014191743, 0.22142905471023439, 0.22246057478949768, 0.22349087643753598, 0.2244874254156003, 0.22551675955352335, 0.2266134133200982, 0.2276217167382419, 0.2286271881684424, 0.22964118815724854, 0.2306354776046077, 0.23164282696770885, 0.23262148913402286, 0.2335926950788396, 0.23453922954678547, 0.23549348764165118, 0.236375255846781, 0.2373115287879443, 0.23823005494690067, 0.2390986205279164, 0.2399840800989625, 0.2408578879676336, 0.2416994862398953, 0.24251973366076582, 0.24331812553708212, 0.24409413070436858, 0.2448408568511937, 0.24557121370285118, 0.2462771205476827, 0.2469199981778953, 0.24758017156513956, 0.2482596401153742, 0.24885703609522009, 0.2494282773358247, 0.2500265248583909, 0.25053649275938983, 0.2509546554416166, 0.25142145877975375, 0.2518571666363006, 0.252229666125897, 0.2526059414713409, 0.2529861304111437, 0.25328919535203237, 0.25355993429967794, 0.2538675719567205, 0.25406334005806847, 0.25416267524246405, 0.25430611870855035, 0.25441404718677324, 0.25451786990304204, 0.2545499119310927, 0.2545664152400377, 0.25452644057814644, 0.2544520270628999, 0.2543426163870359, 0.254197712316467, 0.25392495608132576, 0.25371942647353835, 0.2534720882666024, 0.2532784839053297, 0.2529368154997664, 0.2525884245426754, 0.2521722159610676, 0.2517215561842529, 0.25112813974115417, 0.2506206788575539, 0.2500745273923529, 0.249483511018246, 0.2488519031799271, 0.24827842819509421, 0.24755458047738688, 0.24673041012558286, 0.24594706608722128, 0.24512552305693783, 0.24437068129402217, 0.24346042311192664, 0.24246487049318613, 0.24149808317726254, 0.24049592969747793, 0.23945219653933406, 0.23838053007812934, 0.23718171678625527, 0.2360515089345218, 0.23488152016008268, 0.23374573101839535, 0.23249012853952508, 0.23120821207213227, 0.2298868102354876, 0.22853375390445713, 0.22717153835826287, 0.22575332004232035, 0.22432472049337562, 0.22284551260149038, 0.22133844719425935, 0.2197846581387644, 0.21822479751907867, 0.2165478905348935, 0.21494312867791918, 0.21330605382558518, 0.2117108010903091, 0.21000351488835162, 0.20823347856539476, 0.20648204282622828, 0.20470472309373097, 0.20291185348436705, 0.20108402329728403, 0.19917621958461731, 0.1973104723271043, 0.19542001921746346, 0.1935916076329579, 0.191644364985522, 0.18958229645849917, 0.1876146730718358, 0.18562567004192784, 0.18370841264931995, 0.18166858315176182, 0.1795557513242128, 0.17749828501457027, 0.1754253211854075, 0.17337894981275076, 0.17127241497758583, 0.1691045789627685, 0.16698378632289307, 0.16485059471194577, 0.1626774409187594, 0.16052592211200403, 0.15837906301831922, 0.15620428118077528, 0.15402138755994932, 0.15180909239367338, 0.1496154503829291, 0.14754186267286315, 0.14531973694081832, 0.14309997909249783, 0.14083179329495094, 0.13862303498579298, 0.1364074909842176, 0.1341992254858388, 0.13199134437959273, 0.12974014182272783, 0.1275406562401596, 0.12530622739710853, 0.1231120399711079, 0.12091786440447372, 0.11888342829430547, 0.11667290058541772, 0.11433217264968308, 0.11216432730371347, 0.11000057227814383, 0.10794662886444606, 0.1057811370991424, 0.10356540780875882, 0.10143436220140356, 0.09931321118787022, 0.09717733582903357, 0.09508137748689476, 0.09297069515901088, 0.09090009919892317, 0.08884045026803405, 0.08685932312441115, 0.08481612521667165, 0.08277144586887883, 0.08076603059574904, 0.07877771204521515, 0.07688305284787263, 0.07492077471573605, 0.07291792146260581, 0.0710091539085662, 0.06911943221219304, 0.06727777962166953, 0.06542402104108526, 0.0635131244714454, 0.06171382650093367, 0.059932669174923535, 0.058189570482605056, 0.0564449207297837, 0.05474099485436952, 0.05303790703068072, 0.05135866595722956, 0.04973213067695537, 0.04809795929299262, 0.04650287151275144, 0.04491997079003733, 0.043364329763587714, 0.0418200901440822, 0.04032096515748502, 0.03874998484173539, 0.037316266466324154, 0.035903782030454724, 0.034646612379366074, 0.0332625237172783, 0.03184947713090153, 0.030535132338959478, 0.029247921251659138, 0.02795632721002498, 0.026727911347691972, 0.025563367113436368, 0.024382189723056818, 0.023213837171772563, 0.022091984255111875, 0.020997858299398667, 0.019937888961437687, 0.01889866391980501, 0.017878217239200262, 0.016896744145387277, 0.015942961149614437, 0.01510564386794919, 0.014196071983493699, 0.013274804821144697, 0.012435452253776472, 0.01162485561055529, 0.010807884661762067, 0.01005842690371931, 0.009417416616039417, 0.008709651870044351, 0.008032599665372054, 0.007350713375068843, 0.006737509229446168, 0.006243100184845292, 0.005671770728262936, 0.005131973085639956, 0.004638569565723206, 0.0041569658939535304, 0.003657547012727045, 0.003240548306611562, 0.0028489587453475874, 0.0024444088408664554, 0.0021074610219427112, 0.001881578922561422, 0.0015780469551573669, 0.0013017942523443988, 0.0011186171101070196, 0.000886267153619149, 0.0007271821634021382, 0.0005458607201414034, 0.00039374751414653785, 0.00020298721376552298, 0.0001139594359504133, 7.542928037409036e-05, 2.6326204827522888e-05, 0.0, 0.0001321526708222328, 0.0001324114082992939, 9.805212133364478e-05, 0.0001623071375514861, 0.00024880541797116175, 0.00039166593875339774, 0.0005160685691185935, 0.0006753046345118846, 0.0008415670271366748, 0.0010290827450622974, 0.0013162963765570633, 0.0015339833048437993, 0.0017276508548813249, 0.001997166152348739, 0.0022851996503679578, 0.0026196713423715066, 0.0029393684103259806, 0.003290200691942598, 0.0036445164867232945, 0.004016682338293662, 0.004406026277978978, 0.004811938607631985, 0.005281409505193766, 0.005712830634297431, 0.006161962263857695, 0.006732593847857975, 0.007201572117541327, 0.007761666168928922, 0.008263158400191716, 0.008787237776281957, 0.009284669174881506, 0.009855063069353607, 0.01047257863743338, 0.011069044042928458, 0.011681267117058558, 0.012286214492652426, 0.01293032748750001, 0.01365328593767885, 0.014313164762499466, 0.014988348001112659, 0.01570337294177011, 0.016403604948709453, 0.017112072180557394, 0.017841516158275852, 0.01858380154222729, 0.019354277966152158, 0.02011881897059019, 0.02096236795221858, 0.02174295130811316, 0.022538919017594368, 0.023352600094104482, 0.024176532611246828, 0.02500434041770248, 0.025855697926237688, 0.0267189021971863, 0.027609498446505298, 0.028493543336690363, 0.02935472274113772, 0.030266908329244176, 0.0311886565470674, 0.03218031053840616, 0.033113938445404875, 0.0341052731810794, 0.03505961653980944, 0.03602917526084319, 0.03704507987565846, 0.03803946165404473, 0.038982861699541016, 0.04001626803904085, 0.041060514677874284, 0.04212845662030483, 0.04319332644440952, 0.044311530813042545, 0.045395566999425506, 0.04649430591763819, 0.04763610773036921, 0.04876020512881295, 0.049931978056738324, 0.05108379388741902, 0.052252977331936325, 0.05338846618663854, 0.05459784547833712, 0.05577025221957539, 0.057013833832688446, 0.058268937863858956, 0.059612377932287346, 0.06088309410727813, 0.06214952573588881, 0.06345887740329412, 0.06478498160077627, 0.0662073717638242, 0.06755785346379652, 0.06887974334132996, 0.07028058315876616, 0.07170019120682285, 0.07315469751188873, 0.07461070719526344, 0.07609045874722696, 0.07758743123108969, 0.07910562528566001, 0.08060092205066079, 0.08216796922071289, 0.08386237199708842, 0.08545566043385215, 0.08707594864497431, 0.08870400307096049, 0.0903801376621362, 0.0919581984453108, 0.09370122700046356, 0.09546326097843436, 0.09735966428407278, 0.09914896116621497, 0.10094816163021482, 0.1027978052275909, 0.10467554908247566, 0.10662928151427184, 0.1085582641578916, 0.11043986090722581, 0.1124425884226007, 0.11447281326250411, 0.11649009525570624, 0.11858279024277842, 0.12078211745005744, 0.12292058443576373, 0.12509284378944413, 0.12728963420809952, 0.12953144812777626, 0.13182952199155007, 0.13413706420692054, 0.1364807093056249, 0.1388258145666557, 0.1412467713264431, 0.14372480904473728, 0.1462133206001862, 0.1487391003365647, 0.15128349114817988, 0.15388730050607266, 0.15656327607133905, 0.1592378037440991, 0.16195262488148657, 0.16465089820935197, 0.16745417684134017, 0.17025403170877682, 0.17313880159981623, 0.17606042854192558, 0.17906741505401877, 0.18205953494552735, 0.18500506218565885, 0.18809306796210018, 0.1912189307268303, 0.1944280544663916, 0.19762700202366207, 0.20084372159624417, 0.2041325193104022, 0.20746375848299925, 0.21086331739562578, 0.21427774037345548, 0.21765818605420895, 0.22117331968232257, 0.22472957716817482, 0.22830553382383892, 0.2319490371215573, 0.2357485358694671, 0.23946206349553983, 0.2432188025327112, 0.24703181186317485, 0.250893208626338, 0.2546917499162408, 0.2586630554534825, 0.26273272134019715, 0.2667800651611645, 0.2708730974780255, 0.27490404096160986, 0.2791020241761248, 0.283377579785917, 0.287650608044254, 0.2919667396297141, 0.2963895937875209, 0.30078452340814393, 0.3051473431270818, 0.3096460760934975, 0.3141865426410878, 0.3187657443865552, 0.32339051785193135, 0.3281395538426094, 0.3328375996704599, 0.3375820406899908, 0.3423562388920371, 0.34719313548978387, 0.3520478984192532, 0.3569738652180003, 0.36194046898273285, 0.36695050407447144, 0.3719968293116952, 0.3770510702836109, 0.3821801523017818, 0.38734609591237107, 0.39251060329731047, 0.3977542421745823, 0.4031140821248352, 0.4084147788304144, 0.41375360681576145, 0.41906308457774255, 0.4244838495293011, 0.42993629276416695, 0.4354200631972841, 0.44093474897483825, 0.44649256041458113, 0.4520660161363293, 0.4576505214260747, 0.4632857992670789, 0.4689486119278081, 0.47454007583920943, 0.48026846386801814, 0.48609293608948106, 0.49185176503697126, 0.49763480962377055, 0.5034380640098142, 0.5092673951155975, 0.5150864503762105, 0.5209617168709851, 0.5268547645129493, 0.5327933977795887, 0.5387161733140459, 0.5446654979402217, 0.5506200349767056, 0.5565898958074236, 0.5625136304911496, 0.568518069056741, 0.5744641922429246, 0.5804927819993836, 0.5865242967092771, 0.5926027591807743, 0.5986333336147983, 0.6046425545156642, 0.6106833015194287, 0.6167245007653583, 0.6227683969020061, 0.6288072620994257, 0.6348628185771614, 0.6408935054702866, 0.646920650323614, 0.6528731673392191, 0.6588979709454361, 0.6649619318656886, 0.6709563767428315, 0.6769403679546642, 0.6828586316749865, 0.6888243472524744, 0.6947692098855602, 0.7006989696629778, 0.7066088266137889, 0.7124913602556732, 0.7183589176449175, 0.7242345196600696, 0.7300495964922428, 0.7358404208442639, 0.7415991515209359, 0.7473377666849007, 0.753015571939774, 0.7586985203362517, 0.7643476773553074, 0.7699301479204816, 0.7755121025824122, 0.7811055145739748, 0.7866015150011145, 0.7920589982996562, 0.797441566627554, 0.8028218410161717, 0.8081824389759613, 0.8134682239132615, 0.8187079446755249, 0.8238969718351565, 0.8290405962818165, 0.83401635365511, 0.8390722265033399, 0.8440681340180507, 0.8490448409759459, 0.8539141781860904, 0.8587337403497678, 0.8634822499382726, 0.8681698625755518, 0.8728429309653952, 0.8773991491681126, 0.881807948161586, 0.8862497107112597, 0.890621677106036, 0.8949135143722425, 0.8991445749271023, 0.9032805208983057, 0.9073676730383672, 0.9113788980035101, 0.91534831649043, 0.9192009962715928, 0.9229678308018113, 0.9266678997686401, 0.93028882717681, 0.933769346394486, 0.9372364806626872, 0.9406655249659225, 0.9439548391953901, 0.9471600613435409, 0.9502231278349967, 0.9532643651194147, 0.9562470206424187, 0.9591031903108089, 0.9618698169551951, 0.9645587538024851, 0.9671422227564543, 0.9696058829617172, 0.9720094994150719, 0.9743184691992312, 0.9765512004216127, 0.9786666436625114, 0.9806486485329851, 0.9825773467168251, 0.9844070380075534, 0.9861373377202651, 0.9877678537718251, 0.9892411366998642, 0.9906781134321535, 0.9920109229519116, 0.9932935240407973, 0.9944113623754871, 0.9954756934704198, 0.9963849407420828, 0.9971948839131374, 0.9978001273345685, 0.9984223768499709, 0.9990197065605957, 0.9994171432094632, 0.9997123766412321, 0.9999112883410607, 1.0, 0.9999508014001723, 0.9998374978403355, 0.9996185818601834, 0.999271927600928, 0.998844798089956, 0.9982793622711792, 0.9976433261407844, 0.9968995129206051, 0.9961530877398237, 0.9951821692984777, 0.9939905287759151, 0.9928339603042281, 0.9915697933147314, 0.9902083602499906, 0.9887302282492292, 0.9871695881355205, 0.9854799177116367, 0.9836881056717568, 0.9817819414525892, 0.9797888754831056, 0.9777483121113885, 0.9755463091245112, 0.973247240489173, 0.9708291528574162, 0.9683395318464425, 0.9657715290393954, 0.963085317563442, 0.9603040394933557, 0.9574092136425932, 0.9544418731941634, 0.9514055312354203, 0.9482471161347963, 0.9449594570442144, 0.9416241390674254, 0.9381969400629558, 0.9346282596853395, 0.9310270642509755, 0.9274232675182176, 0.923629703036684, 0.9197528436892962, 0.9157364109758936, 0.9117025651400527, 0.9075720548346208, 0.9033732513718854, 0.8990925672317577, 0.8947536951134768, 0.8903109461827496, 0.8858078891379444, 0.8812121203262371, 0.8765436961514852, 0.8717182408518667, 0.866918976309408, 0.8620903442882693, 0.857139972885831, 0.8521222721513885, 0.8470356002104352, 0.8418882265112676, 0.8367159712250017, 0.8314395154831733, 0.8261054040971842, 0.820702221427205, 0.8152582337851331, 0.8097439454486035, 0.8041945421523057, 0.7985927896979175, 0.7929149865268393, 0.7872167133220043, 0.7815837561459413, 0.7757753447417042, 0.7699282727780109, 0.7639008249181252, 0.75799732462126, 0.7521326172291817, 0.7461337963018518, 0.7401005861474986, 0.7339584583634317, 0.7278707454775528, 0.7218505110758099, 0.7156842987905756, 0.7094942258523301, 0.7032023552713649, 0.6969785494560283, 0.6907431881655275, 0.6844714012856802, 0.6781802328976648, 0.671881104667265, 0.6655556883210003, 0.659141029455226, 0.6528006686866832, 0.6464464165187722, 0.6401155132034145, 0.6337361077704765, 0.6274245482268087, 0.6210276766087421, 0.6146335405290568, 0.6082623822320147, 0.6018750339878505, 0.5953938723134014, 0.5890357816802013, 0.5826820687528195, 0.5763792228002016, 0.5700349349257177, 0.5636783200279758, 0.5573648851881156, 0.5510662250724521, 0.5447492522738985, 0.538489854476471, 0.5322928910906509, 0.5260659668795052, 0.5198634615250834, 0.5136773538501073, 0.5075293416024791, 0.5014096461452543, 0.4953197984510501, 0.4892613075325709, 0.48324516971061526, 0.47725263045701677, 0.471271021710441, 0.46535561076245563, 0.45947774542126063, 0.45361042371884186, 0.4478157922147164, 0.44213763586442384, 0.4364158328369177, 0.43074192018943874, 0.4250407320626842, 0.41947495682940467, 0.4139492364332527, 0.4084786147387183, 0.4030570903654476, 0.39777489607554456, 0.3924447241518935, 0.3870777899614526, 0.38187687646215907, 0.3767301460049734, 0.3716136440100614, 0.36658262039259054, 0.3616907598222964, 0.35676421805368064, 0.3519017634152348, 0.34704374088588946, 0.34231878776716196, 0.3377069793440721, 0.3331015371795604, 0.32856343552101064, 0.3240488335149662, 0.31965262177006737, 0.31534186327686947, 0.3110769858880423, 0.30688129224771565, 0.30274271027957345, 0.29868877505077784, 0.2946257942668353, 0.29072288341798175, 0.2868869028072336, 0.2831665597211401, 0.27946179405332994, 0.2758012332376608, 0.2722459819766085, 0.26876270022818594, 0.2653551351648475, 0.2620170511323697, 0.25879066862692857, 0.2555954530347517, 0.2524766740415053, 0.24943109251675477, 0.2464653664712621, 0.24361368801017477, 0.24079509136312155, 0.23805445362214211, 0.23531844496384788, 0.23274167884109542, 0.23028509411332884, 0.2278477907871144, 0.2254861295722834, 0.2231934629880026, 0.22098295221225653, 0.21882141190368629, 0.21676246895328433, 0.21477582174361107, 0.21286767690226072, 0.2110243743787612, 0.20929122216077845, 0.20758702055880604, 0.20595639657228343, 0.20430039833601613, 0.20282728238395586, 0.20145503282329386, 0.2001096140024684, 0.19883226280870475, 0.19759408459305128, 0.19645532165070026, 0.1953690936356929, 0.194362078165452, 0.1934189279332905, 0.1925520035144927, 0.1917339525679858, 0.19096662965532, 0.1902763703500621, 0.1896475110781985, 0.189060423193886, 0.18855488476688373, 0.18814256175011151, 0.1877487111687376, 0.18741390309507233, 0.18715298955265863, 0.1869312584958583, 0.18682031026559498, 0.18670439679370318, 0.18664607679183295, 0.18656451516763056, 0.18662667662597235, 0.18672468572393167, 0.18688469480595155, 0.1870908621131959, 0.1872663315132873, 0.1875720340975775, 0.18798369820706423, 0.18835947820411753, 0.18877767323699707, 0.18927209748966037, 0.189767532253015, 0.1903009391193996, 0.19087765729887668, 0.19149255416100475, 0.19210308028808606, 0.19279552399060157, 0.19357371823144603, 0.1943220983182694, 0.19510337036282005, 0.19584315428801927, 0.19669502246853154, 0.1975871869359956, 0.19848513125388142, 0.19939722052819686, 0.2003426339436263, 0.20130905988319608, 0.2022986553323115, 0.20330363839001592, 0.20435521713989546, 0.20539161576706863, 0.20644543850399175, 0.20750263343903522, 0.20858880529128002, 0.20976052457348648, 0.21086154886005484, 0.21197687340002153, 0.21300327111550646, 0.2141547056085913, 0.21537297558971724, 0.21652251146251503, 0.21767747149803401, 0.2188079752160854, 0.21997336220396485, 0.2210815521508019, 0.22225283311024335, 0.22341869948511095, 0.22458808248619894, 0.22574012780684333, 0.22688856670201268, 0.22802585613709705, 0.22915491368146426, 0.2302843687549842, 0.23139310537268035, 0.23245659381255396, 0.23354798099790602, 0.23462504400032522, 0.23572511244716046, 0.23676657032308454, 0.23780948782628644, 0.2388190820015163, 0.2398130355165706, 0.24081554311414666, 0.24177156103185476, 0.2426212403080177, 0.24355205198537622, 0.24445785160264102, 0.2453667449684169, 0.24621761493389616, 0.24704371083160281, 0.24784429354654158, 0.24861863286165056, 0.24936283933054995, 0.2500829451342835, 0.25078718587170173, 0.2514479462015597, 0.25207957680580345, 0.25267500741835064, 0.2532470147192145, 0.25377791670584565, 0.25428733528862735, 0.2547634475504532, 0.25516773671986914, 0.25558061494658657, 0.25599468212802196, 0.256328920455886, 0.25662815046130844, 0.25686019216074085, 0.25709198723338444, 0.25736168934972425, 0.25750738000745244, 0.25761885615042807, 0.25765730381366897, 0.25770290138147517, 0.25769735758800477, 0.2576673715770418, 0.25759771243018914, 0.25747558925625824, 0.2573278609948794, 0.25712042660395734, 0.2568937515956077, 0.25662537180574224, 0.2563883713587943, 0.25602789562600775, 0.2555415626790853, 0.25511765967765426, 0.2546508659616021, 0.25417328771800085, 0.25361790455980304, 0.25306376226434446, 0.2524233222050385, 0.25174541176557613, 0.25104566441991144, 0.25029022356111613, 0.24951357841356667, 0.24868185241079616, 0.24781367599796464, 0.24685815626981258, 0.24592302873943184, 0.2449863167356805, 0.24396756878078377, 0.24291220119716678, 0.24173477081076478, 0.24061744400126575, 0.23956701086420062, 0.23835526140875285, 0.23711054415692603, 0.2357599537427531, 0.23445858008885348, 0.23304427170968162, 0.23167956830375772, 0.23027526875398382, 0.22889929039054685, 0.22741135608466376, 0.22592623276186197, 0.2243703596640824, 0.2227855529915161, 0.22114993467085564, 0.21951103587322932, 0.2178493462411642, 0.21615198809872474, 0.2144270718117246, 0.21265298354857554, 0.21087749519815077, 0.20913520001744199, 0.20729883812000843, 0.20544042309172209, 0.20345566182709673, 0.201567339633589, 0.19971556807340668, 0.19776684520377966, 0.1957973760378511, 0.193769798277811, 0.19176568065548258, 0.1897375738804983, 0.18769323597103024, 0.18562990971136575, 0.18360564198912452, 0.1815000795563475, 0.17934994279176517, 0.17722310250963047, 0.17508258534725543, 0.17300843440847596, 0.1708329503287859, 0.168517520111536, 0.16634539793193293, 0.16415940411380425, 0.1620718694387929, 0.15984821507972474, 0.15757018138454285, 0.1553459267261871, 0.1531158549418883, 0.15089031394931512, 0.1486499204553642, 0.14639724529286008, 0.14415326478760282, 0.14190749671449007, 0.13959739219440315, 0.13735859244876691, 0.13514866112780138, 0.1329015341913767, 0.13065596258283302, 0.1284350836376608, 0.12619264004011854, 0.12405085954257762, 0.12180823791021658, 0.11957792560616931, 0.11725209127545859, 0.115059930843234, 0.11284559125143467, 0.11067079186358263, 0.10850281534417866, 0.1063935851043705, 0.10423640397448214, 0.10218742088773387, 0.10004505663867724, 0.09792238585789798, 0.09569248211075511, 0.09362490335587115, 0.09155707454632096, 0.08951708496782028, 0.08749100823172859, 0.08555285803394878, 0.08354865713128777, 0.08154341337041204, 0.0795846490990465, 0.07764648793094478, 0.07576435351148489, 0.0738646539273195, 0.07202085819208016, 0.0701658167912486, 0.06833728985589688, 0.06644340039195516, 0.06467970408752344, 0.06298517992936103, 0.061259637239084654, 0.059560151577261924, 0.057788875309751395, 0.056155158326213254, 0.05463512285161708, 0.05303448750764216, 0.05146302864778771, 0.04989245733702649, 0.048383674135756165, 0.0469380500473747, 0.04548191123076544, 0.04405692534016124, 0.04270759407268547, 0.04133968900552874, 0.03993609160874479, 0.0386448678909936, 0.03738021375467529, 0.036149297470123326, 0.03494876286769446, 0.033829708165703326, 0.03268463961169531, 0.03153897828293873, 0.030466740057900604, 0.029426588262457542, 0.028348981802486357, 0.02738237311469054, 0.0264919931247016, 0.025577429038941994, 0.024695504818920806, 0.023950954359352027, 0.0231214610378109, 0.0222737460953149, 0.02152834659390927, 0.020817088657999624, 0.020114441196648413, 0.01947415791631101, 0.018900956057256134, 0.018320738514658704, 0.01777475682603439, 0.017186655389697273, 0.016717925510229593, 0.0163258909262378, 0.015909807289711277, 0.015526186182349676, 0.015219242707569528, 0.014894442834879161, 0.014508988156988485, 0.014264528069579507, 0.014048090968452342, 0.013831419711036326, 0.013675373891381914, 0.013578048397813468, 0.013472344307812108, 0.013395963246845256, 0.013386828560644685, 0.013363908381195718, 0.01339735474903397, 0.013432724304401523, 0.013499490217344546, 0.013596943185613667, 0.013724406018824534, 0.013881230162590817, 0.014066792500661972, 0.01428049241760641, 0.014594651695313638, 0.014853684933326169, 0.015133747181557461, 0.015453939071885569, 0.015801980465168154, 0.01616747937107633, 0.016569831379886112, 0.01711746636705662, 0.017553610593167897, 0.01802008259459914