0.09738071475836242, 0.0970268894374125, 0.09668392835645852, 0.09627026220472969, 0.0959464964226857, 0.09562223735258804, 0.09529347827962183, 0.09496886885443913, 0.09466289323697503, 0.09433475431678909, 0.09400726354193159, 0.09369653037471966, 0.09336806874420994, 0.0930298448968238, 0.09270535975013723, 0.09238131402671564, 0.09203845977897321, 0.09171766115926835, 0.09147509862195644, 0.09114311495483271, 0.0908151814181195, 0.0904472917648143, 0.09013152759469259, 0.08984439933913486, 0.08952569992846068, 0.08920897097555897, 0.08885962936291732, 0.08855067444823939, 0.0882544565523215, 0.08794318582804786, 0.08763258376447843, 0.08732371219715797, 0.08701447203842763, 0.08672736113603627, 0.08641724573137803, 0.08610930094784831, 0.0857629352679993, 0.08546410899242102, 0.08512238893467608, 0.08482839982500641, 0.08453212663305698, 0.08423817168983659, 0.08393842033182417, 0.08366237428328005, 0.08335874638777702, 0.08305655713521082, 0.08277914812256212, 0.08247709553933939, 0.0821779692173908, 0.08188162470918552, 0.0815879337331513, 0.08131600666385061, 0.08102486599218615, 0.08066734561093099, 0.0803916673280026, 0.08011507351340828, 0.07991181134983455, 0.07962516579847319, 0.07934379390135961, 0.07906521624100471, 0.07879034248124209, 0.07843696123180534, 0.07817911884149426, 0.0779713089705796, 0.07770430174095111, 0.077439556937033, 0.07717907186208808, 0.07691852308928476, 0.07669064172998472, 0.07643085730238075, 0.07617504480895718, 0.0758541463071584, 0.07561424045637019, 0.07541424808211655, 0.07516850298793805, 0.07492521486440522, 0.07470662954586423, 0.07446540722141226, 0.07420257404696251, 0.07397174060262574, 0.07374284499684601, 0.0734957290081279, 0.07327349548605673, 0.07307859064619181, 0.07285530519094972, 0.07263495341773851, 0.07237703751051619, 0.07216759654297553, 0.0719526868290851, 0.07174553416779841, 0.07153924100728773, 0.07137963513328408, 0.07117016311756064, 0.07098918067527928, 0.07078488969703728, 0.07058586320124104, 0.070397852566488, 0.07020767077544873, 0.06993726659638026, 0.06976710724169391, 0.06959646743938525, 0.06947845403408758, 0.06930162917668342, 0.06910026848588406, 0.06893453270489652, 0.06877085074474779, 0.06866402649228702, 0.06849802928492185, 0.0682566588090872, 0.06811170957000767, 0.06796717959197736, 0.06784269587576773, 0.06769773549201638, 0.06755635480466737, 0.06741651978380334, 0.06727952790198966, 0.06720312846830756, 0.06706475365545576, 0.06693974101703892, 0.06681261304879796, 0.06669137730176725, 0.06649066459099241, 0.06639086575531383, 0.06628916210761439, 0.06619028707533947, 0.06609222740430298, 0.06599937999468555, 0.06590344480904778, 0.06581453267912861, 0.06572208370108927, 0.06563224923627198, 0.06561696797097924, 0.06552357021637914, 0.06536625112573562, 0.06529509130784907, 0.0652258732262416, 0.06518404995865343, 0.06511597088226784, 0.06509618211979722, 0.06502991338192965, 0.06496971347167342, 0.0648352060865691, 0.0647959630862656, 0.06478847920458597, 0.0647463948373888, 0.06470709486716314, 0.06468272411438424, 0.06464746496820392, 0.06460757786396236, 0.06458017078976036, 0.06455557729653555, 0.06451252873983367, 0.06449618375756161, 0.06454209941792496, 0.06452133394020972, 0.064505800934506, 0.06446375214954066, 0.06446154238949137, 0.06447290747316746, 0.06447416484449017, 0.06447845895846535, 0.06449580055891539, 0.0645045781628902, 0.06444685632966252, 0.06447092517752653, 0.06449408231350184, 0.0645349701972034, 0.0645552359399369, 0.06456662039917106, 0.06459076685908721, 0.06461581457683475, 0.06467228004253026, 0.06469575224373357, 0.06473437309399563, 0.06476216277841601, 0.06479332542753873, 0.06477399346177529, 0.06481797048433315, 0.06494358942004967, 0.06497682049282645, 0.06501477937764742, 0.06505494927922173, 0.06510119003677627, 0.06511125172628361, 0.06516870121372077, 0.06522656982525797, 0.06525657033395203, 0.06531897493172138, 0.06541672623011413, 0.06547260930405258, 0.06552989839738368, 0.06560566803498918, 0.06566322333773171, 0.06567321290810894, 0.06574081055255764, 0.06580716125193987, 0.06587144317795861, 0.06593596515651337, 0.06600674088296661, 0.06606881911393746, 0.06613065903570702, 0.06626106550329428, 0.06631372933382372, 0.06634267280782342, 0.06640540172743516, 0.0664690864621984, 0.06653448753545915, 0.0665992236025436, 0.06667541009698476, 0.06673917951623641, 0.0667549432910211, 0.06682571273255232, 0.06689382138878842, 0.06697765784477423, 0.06703864308505213, 0.06714396472462066, 0.06719675726315365, 0.06725080985347759, 0.06723588839450195, 0.06730006525775517, 0.06735234766237236, 0.06741020133956807, 0.06746426929111653, 0.0675360431809363, 0.06758054619891697, 0.06764128418553364, 0.06767949483102764, 0.06771667075885539, 0.06771214315872068, 0.06775178467074938, 0.06777946592944495, 0.06781255761362451, 0.06784161498193807, 0.06791637860881736, 0.06793155632588631, 0.06795801712333019, 0.06796961816767315, 0.0679804177981928, 0.06796070106519596, 0.0679725208302231, 0.06795861069805299, 0.06796625720665979, 0.06796908761326632, 0.06798240355301327, 0.0679740324500788, 0.06801764587357348, 0.0679948472752047, 0.06797137491134886, 0.06788398091254946, 0.0678655923267886, 0.06789827082656047, 0.06786166639137389, 0.06782289198947328, 0.06773301661438927, 0.06769498323079856, 0.0676470201466757, 0.06759786113588664, 0.06754282759782876, 0.06746079343568677, 0.06739703973073938, 0.06736395714099123, 0.06728217601546493, 0.06719616466823869, 0.06713715301249655, 0.06703831842848572, 0.06694573865343625, 0.06683968646978608, 0.06673060448911211, 0.06658170464648759, 0.0664701163601104, 0.06631504356716829, 0.0661961294670336, 0.06606913617343729, 0.06599206161237077, 0.06584255584287683, 0.0656819815454946, 0.06552514649676315, 0.06536344923780071, 0.06522810980633591, 0.06505230262425934, 0.06485074355608748, 0.06467040950300967, 0.06448466513437931, 0.06425800324163616, 0.06406564299386165, 0.06384742448209094, 0.06364229788212096, 0.06342892384382974, 0.06321470466536357, 0.06298486021843662, 0.06280466975809677, 0.06255380643513, 0.062299407574202145, 0.06198346189568496, 0.061728302784571504, 0.06155349056449809, 0.06127207907869775, 0.060988367154303974, 0.06065326263178107, 0.06036957526916598, 0.06008351984277618, 0.05978653382208465, 0.05948344707091629, 0.0592117072422142, 0.058891726523655846, 0.05852631306387978, 0.058203401331423626, 0.057873700414328724, 0.05754139258498864, 0.05719799903578118, 0.05681200148057913, 0.05646093325613336, 0.05610179900693399, 0.055726873194102904, 0.0553536979715843, 0.05497299724219447, 0.05458510064312143, 0.05419030171149289, 0.05385260348292913, 0.0534366956637873, 0.052961504329025924, 0.05254718399561083, 0.052126447010736314, 0.05169849193863238, 0.051265660142688706, 0.05085626835394548, 0.05040808775102029, 0.049955965239199346, 0.04952307161871387, 0.049059840924750596, 0.04862306839785268, 0.0481501246000128, 0.04767550864889141, 0.04721703236783611, 0.046735629995340915, 0.046243448276004184, 0.04575947017473097, 0.045272610461306144, 0.0447857179994866, 0.044292194397759665, 0.043755052252155424, 0.04326025425112561, 0.042759878139082406, 0.042276474970683875, 0.04176299040128989, 0.04126725943937809, 0.04074417536244673, 0.04021894962541996, 0.03969656541526914, 0.039166219439498134, 0.03864500434324409, 0.03810921776444273, 0.03757201110670722, 0.0370525321428697, 0.03650985889309715, 0.036078004489545804, 0.03552016305679028, 0.0349678464832316, 0.03439581466942393, 0.03385489063266877, 0.03330454755945402, 0.032768082433778364, 0.032232045612227964, 0.0317276753623304, 0.031188202362416158, 0.03069520903395627, 0.030153793358445157, 0.029616431214606692, 0.029158538865427915, 0.028618387003838532, 0.028054065589090318, 0.027531457033091858, 0.027012801798819198, 0.02660404922129556, 0.026079092071848553, 0.025518915363143026, 0.025017268517851087, 0.024520754799217188, 0.024101974744735466, 0.02360586127497517, 0.023111393859696502, 0.022633029300073545, 0.02216191980415754, 0.021747343362776596, 0.021283675087176494, 0.020824366035317215, 0.02037973203113927, 0.019943463858871104, 0.01958215409972993, 0.019153705695773824, 0.01878259113155261, 0.018371497548311563, 0.017973893795318503, 0.017587127165963588, 0.017215013757531962, 0.016925624411284108, 0.016568123951223517, 0.01622613122900853, 0.01586159176252015, 0.015553636542035964, 0.015276874691224046, 0.014990498240525453, 0.014717373398404735, 0.014508121875074382, 0.01425526900149051, 0.014013736389675284, 0.013794080635032051, 0.01359021142201563, 0.013453743748290952, 0.01327503366998028, 0.013106135213771148, 0.012966186713423802, 0.012871607774891845, 0.012764335649793212, 0.012676767041175627, 0.012648289693825124, 0.01259500102836244, 0.012563635875109409, 0.012554007826772011, 0.012566021002609203, 0.012636083360336201, 0.012686796364661745, 0.012693560724898424, 0.012800402337943249, 0.01292711682929439, 0.013128917766487275, 0.013290199819721378, 0.013461977530159415, 0.013674495552082647, 0.013911174457120505, 0.014179423064009898, 0.014464529084530327, 0.014849093687245876, 0.015176383934560944, 0.015534087477708996, 0.015879477226453782, 0.01630276997308665, 0.016816376232104982, 0.017287248214528643, 0.01778993047252431, 0.018245378898346806, 0.01882135817991595, 0.019512583661279802, 0.02013258731311242, 0.020786146958624564, 0.02143577818385297, 0.022161100585864808, 0.02293916310001161, 0.023725207003453954, 0.024544787087473142, 0.02535769474213965, 0.02625027517377824, 0.027257941251195315, 0.0282049215097633, 0.0291899512796578, 0.030135056530772603, 0.03120589287319587, 0.032315434730020666, 0.03345364191526889, 0.03462717692200181, 0.03589532745142982, 0.037133885622728305, 0.03836322254034775, 0.039688816715753576, 0.04105213256842167, 0.042532610559790775, 0.0439629361022167, 0.04539442025433949, 0.046917251188992794, 0.0484810632327658, 0.05007399681626314, 0.0517221563513809, 0.05338820336576842, 0.05512201139823354, 0.05689643947949858, 0.05877477138568521, 0.060624135099656584, 0.06252830592182759, 0.06446787409473233, 0.06645359634933139, 0.06848744208749165, 0.07056509005580364, 0.0727112053614977, 0.07487847978658443, 0.07709328580665786, 0.07935652816382927, 0.08166598921989822, 0.08401676427121355, 0.08642175429078161, 0.08887379990441603, 0.0913638866886662, 0.09391148281600344, 0.09644421696786362, 0.0990935250334656, 0.10178661347802664, 0.10460611868161052, 0.10737838610289625, 0.11014422349205771, 0.11302394839440032, 0.11595042036552015, 0.11888755692148674, 0.12191311558314234, 0.12506523461032787, 0.1281723258856834, 0.1313305707844951, 0.13453061378874215, 0.13779159240100625, 0.14109545043604077, 0.14445713313722552, 0.1478681552056416, 0.15126978397199592, 0.15478674950661778, 0.15836072331943657, 0.16196844142409655, 0.16562340069137432, 0.16936929198371, 0.17311374081761383, 0.17689513936516216, 0.18074116414641572, 0.18463597489083214, 0.18851868964349464, 0.1925182112143004, 0.19656356631595515, 0.20065288451446986, 0.2047875717579652, 0.2090213876077899, 0.21324038003403276, 0.21746043058601622, 0.2217821984121605, 0.22614899556918455, 0.23057188576416587, 0.2350270933103518, 0.2395428062527316, 0.24408647573953735, 0.24867574867388448, 0.2533041098781298, 0.2579840178131977, 0.26264814218431426, 0.2674230051589354, 0.2722375860589609, 0.27715262979102134, 0.28203901403109466, 0.2869056974450111, 0.2918854221595931, 0.2969033613941179, 0.3019866954553869, 0.30707713627651145, 0.3122330410993031, 0.31739794708737706, 0.32260241869388473, 0.3277880107384147, 0.33307659177454163, 0.3384406864887024, 0.34379179484627814, 0.3491786295501806, 0.3545690998492549, 0.3600291716304917, 0.3655007840314995, 0.3710264790609306, 0.3765818026836379, 0.38213802910935, 0.3877549512572058, 0.3934774896661108, 0.39913751674182035, 0.4048279769166063, 0.410467861831694, 0.41622608104995207, 0.422037427381141, 0.4278369768743478, 0.4336601784322521, 0.439532588523034, 0.4453974945774336, 0.4512518195732363, 0.45716553252732933, 0.46309812641804665, 0.4690781933398478, 0.4750425622492969, 0.4809482311917955, 0.4869576463007508, 0.492978815048192, 0.4989961237823227, 0.5050413345195776, 0.5110827702108008, 0.5171478844919506, 0.5232205371017669, 0.5292941131305463, 0.5353809059935847, 0.5414619274079314, 0.5475601542306376, 0.5536616771277195, 0.5597536433297414, 0.5658611003136378, 0.5719698790364568, 0.5780770551924234, 0.5841829979016164, 0.5903303292383056, 0.5964256092478178, 0.6025264049638196, 0.608616309049251, 0.6147023639989804, 0.6206971925232158, 0.6267823129412258, 0.6328880738977183, 0.6389428459090154, 0.6449854119433984, 0.6510086691680805, 0.6570244712955797, 0.6630255759726771, 0.6690087877848057, 0.6749742380929334, 0.6809016114683961, 0.6868306792032511, 0.6927547887725762, 0.6986363893332549, 0.7044260164207882, 0.7102688031138528, 0.7160822168047613, 0.7218686705651357, 0.7276210167961699, 0.7333360179008911, 0.7390257457799376, 0.7446821379746862, 0.7502729537053913, 0.7558639709398343, 0.761452556504978, 0.7669626749739362, 0.7724354110425932, 0.7778787427115932, 0.7832721695121632, 0.788575738908337, 0.7938936514618093, 0.7991660644269329, 0.804370921401692, 0.8095525530572021, 0.8146910180520923, 0.8197726620136224, 0.8248038713645575, 0.8298019762271258, 0.834727339636956, 0.8395772931548704, 0.8444002203915838, 0.84916750444152, 0.853806402718417, 0.8584687456389, 0.8631060803885494, 0.8676384310606126, 0.8721096170805771, 0.8765451240717389, 0.8808881704158358, 0.8850961553468937, 0.8893228977392434, 0.8934811792621689, 0.8976008836209262, 0.9016169418204336, 0.9055120637490779, 0.9093972691918056, 0.9132094802900069, 0.9169381404030461, 0.9206042745404642, 0.9241953848197233, 0.927710983049826, 0.9311505407785159, 0.9345762261395412, 0.9378540587780482, 0.9410596338312088, 0.9441875176633789, 0.9472390236368652, 0.9501544221062906, 0.9530575010404226, 0.9559244558540864, 0.9586558857813845, 0.9613063814978796, 0.9638781463240247, 0.9663639336217744, 0.9687392613637481, 0.9710614789090771, 0.9732975802973463, 0.9754076631229597, 0.9774752012719371, 0.9794510858412286, 0.981339526799937, 0.983138012492729, 0.9848798083595783, 0.9864937745984622, 0.9879423453722147, 0.9893885994945086, 0.9907411979699603, 0.9920833450668212, 0.993238809335296, 0.9942319903837822, 0.9952193914421646, 0.996113168746424, 0.9969792323277203, 0.9976778570343182, 0.9982110329067706, 0.9987396793124902, 0.9991736743116973, 0.9995436482433115, 0.9997853090192695, 0.9999438895058091, 1.0, 0.9999644021615016, 0.999768236121832, 0.9995577733298765, 0.999330572930008, 0.9989194048514018, 0.9984181413260399, 0.9977608974505566, 0.9970874520778017, 0.9962987698460186, 0.9954405915309023, 0.9944883311351866, 0.9934517903302902, 0.9923122692643287, 0.9911499739950735, 0.9898191473211403, 0.9884016862993281, 0.9868712648336542, 0.9852838698318803, 0.9835730938887933, 0.9818146242535118, 0.9799670010431475, 0.9780097093268656, 0.9759886571204099, 0.9738713486896446, 0.9716758912618254, 0.9693935895957951, 0.967026382475689, 0.9645730264780459, 0.9620528115889266, 0.9594300371296002, 0.9567259113677995, 0.9539472315272375, 0.9510818320233273, 0.948111346318865, 0.9450924426813, 0.9419947670988115, 0.9388698987623894, 0.9356112526575073, 0.9322290533984021, 0.9288314597742308, 0.925359287458476, 0.9218014929214171, 0.918184989372145, 0.914563291506191, 0.9107955968402807, 0.906962059468504, 0.9030552288311924, 0.8990930234098153, 0.8949917652614487, 0.8909115479363343, 0.8867647583456294, 0.8825903998518281, 0.8783103977134673, 0.8740089660108004, 0.8696055161774691, 0.8651466949377448, 0.8605504209939798, 0.8559940502951479, 0.8514684777753533, 0.8467882177984963, 0.8420590146140455, 0.8372423144044951, 0.8324229848409733, 0.8275857268662595, 0.82266737019554, 0.8177051863172513, 0.8126173459675267, 0.8075814396289214, 0.8025278736973802, 0.7974004530345062, 0.7922333198774023, 0.7870330990368115, 0.781790579878594, 0.7765446395526263, 0.7712300564578107, 0.7658853875029343, 0.7604491093680918, 0.7550558449926126, 0.7496002896687993, 0.7441530688784733, 0.7386776289539096, 0.733210323869258, 0.7276798883852718, 0.7221399551946077, 0.7165683483353747, 0.7109797031690361, 0.7053703308847377, 0.6997523569208428, 0.6941586008484139, 0.6885108636110937, 0.682854814098364, 0.6771682736694895, 0.671501850066358, 0.665769481504656, 0.6600994687786321, 0.6544225817223914, 0.6488044021870893, 0.6431111654146975, 0.6373633118119884, 0.6316824808957361, 0.6260028423632548, 0.6203725794702213, 0.6146943210412384, 0.6089831776250275, 0.6033285022215767, 0.5976823923549635, 0.5920463434892042, 0.5864218165736184, 0.5807839341042481, 0.5751900326447755, 0.569610373245188, 0.5641092399854306, 0.558554743950351, 0.5530093687666803, 0.5475019899771797, 0.5420179811865735, 0.5364855463359847, 0.5310606449431876, 0.5256541365031355, 0.5202762640679534, 0.514921779454311, 0.5095965092147707, 0.5042995148912682, 0.49903726213858335, 0.4938003390288251, 0.4886415464453839, 0.483465263380903, 0.47832648302592473, 0.473185478900177, 0.46812906127467374, 0.4631718451285296, 0.45818367474041116, 0.45323858043168214, 0.4483299914861398, 0.443473506279044, 0.4386269091817302, 0.43386398525049275, 0.4291446961293368, 0.4244598469115775, 0.41983184254432215, 0.4151868465728216, 0.41065915889527727, 0.40617546544580785, 0.4017714995676976, 0.39737534413857306, 0.3930187022720516, 0.38872386696627514, 0.3844796065306575, 0.3802947869139649, 0.376152917501204, 0.3720723379493151, 0.3680364001777578, 0.3640552054801489, 0.3601666211408566, 0.35629145101671406, 0.3524450090776249, 0.3486897502271424, 0.34499105368881605, 0.34131990263785145, 0.337738993520243, 0.33417141637326836, 0.3307080300848194, 0.32729902850152415, 0.32403418740908807, 0.32072482910448696, 0.3174343204236289, 0.31425280332939654, 0.31112982460376754, 0.3080422693127617, 0.30503974668191575, 0.30211506886995715, 0.29922546060477184, 0.29639505480342554, 0.29360360867243523, 0.29089411936701776, 0.28819909407442157, 0.2856111277959655, 0.2830788094570133, 0.2806227203409088, 0.2782000940636967, 0.2758866475453456, 0.2735726093705893, 0.27131890912907336, 0.26904709250466313, 0.2669222873048454, 0.26489129727056027, 0.2628703218446774, 0.2609060579954667, 0.2589586962518595, 0.25711177091619003, 0.25535262426912964, 0.25360800693705193, 0.25191844031965294, 0.25033402252971515, 0.24874667279770438, 0.24719646857316768, 0.24572334287156394, 0.2443036529955096, 0.24288203895645047, 0.24157396353530758, 0.2403576115488939, 0.2391402010096291, 0.23797285969564777, 0.23682046807896184, 0.23575545538828924, 0.23469999371702893, 0.2337310852797451, 0.2328051669983382, 0.23198068870928723, 0.23113256204129545, 0.2302569683686573, 0.2295079165767948, 0.22879836738091533, 0.22817152368204394, 0.22753449881557902, 0.22690491601104917, 0.22635292924660738, 0.2258382005461866, 0.22538542985527663, 0.22494019456734274, 0.22449025067781206, 0.22412289785684356, 0.2237881638222899, 0.22353402551312943, 0.22325657806376947, 0.22299537702965722, 0.22278589451456934, 0.22260670245088024, 0.22245382979310602, 0.2223327908904984, 0.2222319701129917, 0.22216550533210902, 0.22212409319280985, 0.22209572841331968, 0.22210319042278215, 0.22214051572196072, 0.2221896773216328, 0.22225941376448702, 0.22230429263767168, 0.22241805849014365, 0.22260076499732573, 0.2227378130471681, 0.22289199821304134, 0.2230642533256446, 0.22324920135078136, 0.22338241161786107, 0.22360267028258357, 0.22383116251521237, 0.2240876243111983, 0.2243284758299326, 0.22455378041697374, 0.2248122239568383, 0.22507547449291646, 0.22538032960916607, 0.22564651370163938, 0.22590646751736573, 0.22618283236128447, 0.2264614386755964, 0.22671204263041292, 0.226996139660531, 0.22734694117003423, 0.22761749857304134, 0.22788850303428793, 0.22815669072258077, 0.2284251785842505, 0.22865300257360113, 0.22891869516117946, 0.22917695633651944, 0.22946857886627223, 0.2297046619551776, 0.229866794883684, 0.23009595422557852, 0.23031219599083796, 0.23054345207210383, 0.23072905582707903, 0.23087980081098533, 0.23104232296744845, 0.231189614994031, 0.23136772501930283, 0.23147718237244186, 0.23157656273831684, 0.23165637220809454, 0.23172055299075464, 0.23168125787114055, 0.2317227220766668, 0.23178885044299788, 0.2317785101757616, 0.23174787174062914, 0.23170656229418843, 0.23163258578844248, 0.23155463612889116, 0.23143559696511654, 0.23129528920676287, 0.23113105349851315, 0.23094659560703915, 0.23073592676620014, 0.23050499210957803, 0.23024972417177242, 0.22997273462029627, 0.22966717112063775, 0.2293311912619437, 0.2289751791972528, 0.22859280579474414, 0.22816659036552328, 0.22773284702255184, 0.22720927551663442, 0.22672703084136875, 0.2262130437400367, 0.22567481131958486, 0.2250976301302884, 0.22455999433754822, 0.2239136579790394, 0.22324135367789988, 0.22245565745393778, 0.22174123296272175, 0.22098879438408087, 0.2202116750535545, 0.21940307419139002, 0.21857551986547819, 0.21770354071957845, 0.21686858350078225, 0.21592883624915749, 0.21495231076599067, 0.21396230147732084, 0.21294533631845344, 0.2118658390435784, 0.2107989894928867, 0.20967753469742018, 0.2085555021910994, 0.2074032209829138, 0.20628791456998544, 0.20506801041325579, 0.20377128267871802, 0.2025073119703091, 0.20121498802376964, 0.1998704044315067, 0.19852556880077757, 0.19717844171629656, 0.19577364947399434, 0.1943428418753874, 0.1928610345995282, 0.1913823341916035, 0.18994090021177756, 0.18840173358582696, 0.1868407422941027, 0.18524680257621373, 0.183643640871893, 0.1820323714044019, 0.18038312043275415, 0.17871291778801754, 0.17704118246331366, 0.17532727393935546, 0.17355777788524132, 0.17181030497672636, 0.17004199146352755, 0.16823618697818699, 0.16643002321140501, 0.16466746494885007, 0.16281367719090178, 0.16094473525135497, 0.15900111941311948, 0.15710999664978004, 0.1552526549613786, 0.15332017432952094, 0.15137436211675329, 0.1494024207013294, 0.14743271121627813, 0.14542076286315425, 0.14342952866229314, 0.1414248843533895, 0.1394865699836096, 0.13744757390499543, 0.13541920868267698, 0.13336503676694003, 0.1313056010486295, 0.12918234174667786, 0.12712023724711977, 0.12514323040487013, 0.12305416924454576, 0.12096390575616744, 0.11887954204258228, 0.11678612277416867, 0.11469018124085764, 0.11259621326945829, 0.1105020867091202, 0.10844557475166557, 0.10634746204620997, 0.10426155920678976, 0.10216867694542146, 0.10007982991757065, 0.09795680780988096, 0.09588166911659564, 0.09387608469314296, 0.09179877697688908, 0.08972943940008463, 0.0876470172611684, 0.08559695237018754, 0.08365764067418055, 0.0816101767367965, 0.07957717190196928, 0.07750779919954615, 0.07550951425596615, 0.07358116461209982, 0.07159845484827657, 0.06963130418076384, 0.06773645156102358, 0.06579357599520357, 0.06387092591388271, 0.061966191136079055, 0.060080520756968306, 0.05821092224622421, 0.056363980259387825, 0.05452113545251474, 0.052714957542171204, 0.050927851290750545, 0.04926050299542065, 0.04750046203405805, 0.04570401523279512, 0.04400432920132967, 0.04232710833487966, 0.04069813532051024, 0.039064134869247355, 0.037545597050300326, 0.035951381906329447, 0.03438835356187468, 0.032798524343285146, 0.03130432613735777, 0.029879952712434023, 0.02843549307335969, 0.027021670354683947, 0.02568517098042904, 0.02432722587801244, 0.022999071141583834, 0.021709222898486997, 0.02045288488903043, 0.019200807050666718, 0.01801552933442372, 0.016951585013502468, 0.015820116253188066, 0.014726890684059099, 0.01360185965811134, 0.012593326879305615, 0.011716806490486571, 0.010764163547830483, 0.009852003973751801, 0.008974003187257782, 0.00814290059744898, 0.0073028566476299114, 0.006557159659800582, 0.005848445514038213, 0.005267261833661976, 0.004622614721272175, 0.003946593516809238, 0.0033981425389461315, 0.0028885315517157345, 0.0024576958815601072, 0.002022185966826228, 0.0016038095528950764, 0.0012564566392608357, 0.0009503384704658184, 0.0006918685508132685, 0.0004684684278487836, 0.0003028108991020714, 0.00016287876492552357, 6.686627080213379e-05, 6.795468242060893e-06, 0.0, 0.00012910500941101287, 0.0001985190804251563, 0.00031730744601223346, 0.00041104782208014386, 0.0006363181212455536, 0.0009458400649447553, 0.001253807452010271, 0.0016083160393673048, 0.001993072333546718, 0.002442418951406102, 0.002918939554898832, 0.0034614468931755326, 0.004048487988229316, 0.004754148824537647, 0.005421575606942495, 0.006146387902983236, 0.006910941711301246, 0.007724430508795711, 0.008538904865295467, 0.009455137556009291, 0.01040950832077759, 0.01141719422500272, 0.012469921794079065, 0.01357694096550651, 0.014719010576126476, 0.01591408242606745, 0.01714710377086063, 0.01842644713326938, 0.019740912623734102, 0.021114092424969876, 0.022525664340833678, 0.023990694551797608, 0.02550079673224592, 0.027053977071846175, 0.02865454551248631, 0.030327412534495887, 0.03201446994925159, 0.03374798335051278, 0.035537791736721516, 0.03736211034263525, 0.03924680603099188, 0.04116141991450375, 0.043122379219070674, 0.04507867035672287, 0.047137466691606074, 0.04924058859451871, 0.05138377900695731, 0.053569441993203966, 0.05582283448397234, 0.058090104342912015, 0.060396013608678405, 0.06275100116225919, 0.06514876898979553, 0.06763457408563545, 0.07011132365473466, 0.07256479018341819, 0.0751384719047136, 0.07775159485580924, 0.0803990716184451, 0.08309159539144, 0.08581802777798388, 0.08858903923849187, 0.0914845282372987, 0.0943215100721708, 0.09720154378659332, 0.10007621300473042, 0.1030458324661716, 0.10609489815841443, 0.10913487679713985, 0.11221449590204824, 0.11527541713329878, 0.11843964296978875, 0.12169098625003573, 0.12491746193601269, 0.1281811458917576, 0.1314531139905393, 0.13479303743277118, 0.13815877179735084, 0.14156722645504252, 0.14500851496202077, 0.14843684617091144, 0.15194875558034876, 0.15549819646231117, 0.15906800649568492, 0.16266774539617146, 0.16635596278326542, 0.17000769703493168, 0.1736405285279052, 0.1773634601154712, 0.1811147750412043, 0.1849104037374622, 0.18871563418885773, 0.1925624470328378, 0.1964224016742298, 0.20031057425278592, 0.20424964562711034, 0.20818954953182253, 0.21206616964713348, 0.21607238148020458, 0.22009977238219877, 0.22422425312653418, 0.22828442254730366, 0.23233146687390385, 0.2364463735566828, 0.24058293259109098, 0.24472656689337494, 0.2489069666102953, 0.25307050991909846, 0.2572943012093015, 0.26153489026132487, 0.26584983862285105, 0.2701163434152023, 0.2744195820423656, 0.2787222456359315, 0.2830439549903163, 0.2873605948741845, 0.2917208340115028, 0.2960316109575725, 0.30043004195722606, 0.3048389720170502, 0.3092623865678719, 0.3136915514922102, 0.31819177083488526, 0.3226336811538214, 0.32708875176599894, 0.3315267935529277, 0.3360093761206684, 0.3404989771575586, 0.34499935504388035, 0.3495075615046232, 0.35402001255250726, 0.358542603322635, 0.36307825800739063, 0.36761136344553413, 0.3721497316172289, 0.376623931994374, 0.38117963325728027, 0.3857358532331215, 0.3902903588180454, 0.3948441948852006, 0.39938803250961097, 0.403940956000838, 0.4085019854272216, 0.4130493047059882, 0.4175945277766352, 0.4221756256025691, 0.4267103364344925, 0.43123853616839264, 0.4357701188658912, 0.4402982572444149, 0.4447948463916063, 0.44931720004891623, 0.4538069530380473, 0.45831735556640435, 0.4628179406411207, 0.4673022697587497, 0.4717828443238703, 0.47626924278498256, 0.48072446454984735, 0.48516839025916514, 0.48952653222029596, 0.4939553099071179, 0.4983545920303333, 0.5027501357057705, 0.5071274425875297, 0.511535974951795, 0.5158701197819117, 0.5201417042829638, 0.5244489782684695, 0.5287361810191319, 0.5329635016267614, 0.5372144472748765, 0.5414307822188589, 0.5456360083216175, 0.5498167270695605, 0.5540000438376449, 0.5581275878458708, 0.5622161458953082, 0.5662973753960127, 0.5703526946177767, 0.5744220455650246, 0.5784188117816335, 0.582300222662716, 0.5862568311315857, 0.5901812445684936, 0.5940692555418976, 0.5979292404387303, 0.601776357996289, 0.6055672663537894, 0.6093255312347277, 0.6130262982781389, 0.6167206117896981, 0.6203902786312553, 0.6240112076706961, 0.6275961007616722, 0.6310988493058923, 0.6346156763252278, 0.6381649828857036, 0.641591614892829, 0.6449814191936867, 0.6482778173235509, 0.651598242441732, 0.6548618564240809, 0.6580983898863044, 0.6612906744247976, 0.6644616533768394, 0.667561481207382, 0.670587944380742, 0.673602832039693, 0.6765708442089816, 0.6794814998045722, 0.6823559248258069, 0.6851534143624209, 0.6879338623107557, 0.6906633944927009, 0.6933843390585402, 0.6960061216874065, 0.6985291651705364, 0.7010582628602542, 0.7035341707104721, 0.7060285197247393, 0.7083883143108369, 0.7106172909363364, 0.7128866918640074, 0.7150999721549559, 0.7172903907756678, 0.719386782107248, 0.7213950422794624, 0.7233856747013626, 0.7253187101266274, 0.7271828126079474, 0.7290014197054168, 0.7307540405213814, 0.7324555625235369, 0.7340974143448097, 0.7357624033394624, 0.7372739281871827, 0.7386722305653434, 0.7400790641474729, 0.7414254203016333, 0.7427211373105636, 0.743944424922323, 0.7450847185916478, 0.7461890053415546, 0.7472306344749223, 0.7482206035903273, 0.7491351095569121, 0.7499406321496411, 0.7507359085676772, 0.7514656815054112, 0.7521422591699618, 0.7527399567582949, 0.7533359659502339, 0.7537968773453709, 0.7541968469041339, 0.7545363510009584, 0.754812762499043, 0.7550197756338146, 0.7551720749739879, 0.7552609592581494, 0.7552153818582762, 0.7551857598285602, 0.7550922344853421, 0.7549266493297101, 0.7546780110057959, 0.7543810845742814, 0.7540170415282857, 0.7536419526586343, 0.7531378757182957, 0.752573000348386, 0.7519429112892527, 0.7512499243506509, 0.7504636264695967, 0.7496485361255677, 0.7487434712002751, 0.7478025001325066, 0.746795991677153, 0.7457264543877299, 0.7445900475032853, 0.7434138898353864, 0.742146757683427, 0.7408177682765358, 0.7393917086842079, 0.737944098997558, 0.7364333000246268, 0.7348598531443229, 0.7332242833388136, 0.7315594793220084, 0.7297970959165577, 0.7280001980423415, 0.7261173805050698, 0.7241776192072372, 0.7221091722814339, 0.7200649404325923, 0.7179723092269061, 0.7158062782047023, 0.7135819931335573, 0.7113365433614123, 0.7089931324948736, 0.7065327541036757, 0.704089152582487, 0.7015885327584971, 0.6991006182512816, 0.6964799997791624, 0.6938058664102326, 0.6910849599996097, 0.6883140277966076, 0.6854641354279911, 0.6825981225876112, 0.6796929050617581, 0.6767255716887007, 0.6737100423300426, 0.6706318137416593, 0.6675238474292563, 0.6643486655549189, 0.6611501394171401, 0.6579051804946715, 0.6546188399691979, 0.6512834970717105, 0.6478846711524725, 0.6444663143115535, 0.6410054120451794, 0.6375596957924107, 0.6340097308653617, 0.6304124178117572, 0.6267919767371934, 0.6231358417355777, 0.619375935376949, 0.6156593053601891, 0.6119812441048166, 0.6081817355584802, 0.6043518118618787, 0.6004233151587234, 0.5965432256320852, 0.59266630872086, 0.5887185614824478, 0.5847431198460157, 0.580705510781922, 0.5766819787490094, 0.5726518291160868, 0.5685732677985528, 0.5644714285772332, 0.560386784388904, 0.5562364371573538, 0.5519780076395963, 0.547803662689461, 0.5436076378319296, 0.5394339073025763, 0.5351935295869645, 0.5309138413141156, 0.5266474551274866, 0.522366631812732, 0.5180937896026776, 0.5137848940298577, 0.5094388778364426, 0.5051147648083424, 0.5007811873402928, 0.49642008184138375, 0.49207346197734525, 0.4877247669555629, 0.48336448735081083, 0.478999816152821, 0.47462480701453, 0.4702556307076584, 0.4659092817021454, 0.4615352478357439, 0.4571633418305413, 0.45279343023626323, 0.4484285455823324, 0.4440461156635733, 0.4396943660817458, 0.4353478675863695, 0.43106435167595086, 0.4267243853402775, 0.4223970121324072, 0.4180806347661281, 0.41377704264830445, 0.40946054885395666, 0.4051877422728158, 0.4008786153781628, 0.39663950344298754, 0.3924126858519599, 0.38818529660985573, 0.383988698487636, 0.3798761311848454, 0.3757025498925668, 0.37155051220332896, 0.3673447247852783, 0.36324715654909806, 0.3591869073212354, 0.355126497624175, 0.3510886461339872, 0.34712997617424995, 0.3431330955131386, 0.33909591443715725, 0.3351651579885511, 0.3312599152708016, 0.3273994226243931, 0.323545927510939, 0.3196986229552777, 0.31590772999952377, 0.3121464441560219, 0.30847736380965995, 0.3047700855028213, 0.3010771432469976, 0.29744397990025967, 0.2938457573900338, 0.29029307472742316, 0.28676489624297136, 0.28323521499855825, 0.2797861767382187, 0.2763727092382292, 0.2729530234077666, 0.2696181485649196, 0.2663832174497998, 0.26311147475768915, 0.2598803598507788, 0.25669723038003284, 0.25354730230973477, 0.25039268517355723, 0.24733256359427402, 0.24431211983464685, 0.24134307964562784, 0.23840232656147628, 0.23553489309873568, 0.23267445951033458, 0.22985846548233999, 0.2270030041800628, 0.22428672426271712, 0.22161545649850117, 0.21897920001842555, 0.21638460972350118, 0.21381908679291245, 0.21131108799661877, 0.20887786181631635, 0.20645103579451093, 0.20406930623082586, 0.2016953253423877, 0.199408761659628, 0.19722002245639603, 0.19501324882848273, 0.19285331370884604, 0.19075212887993168, 0.18868365255345196, 0.18664785745774656, 0.18467454884148313, 0.1827466737295229, 0.1807993007942685, 0.1789699406128323, 0.177211169216574, 0.1754609163214314, 0.1737541297432682, 0.17213932181594813, 0.17051313679960767, 0.16888533731905564, 0.16735650875953784, 0.165869904191067, 0.1644598123875962, 0.16305293990373168, 0.16168878224765396, 0.16036901329629255, 0.15909196695377117, 0.1578541525796978, 0.1566615727579768, 0.15543632858052253, 0.15433505247427337, 0.1533306786015127, 0.1522942784883531, 0.15129772214310744, 0.1503526716829183, 0.14943282457589893, 0.14855407136657012, 0.14771151452623757, 0.14690695812288185, 0.14605784742878594, 0.14533785549765743, 0.14470208643253948, 0.1440387313110119, 0.14340999427195097, 0.14282953068879756, 0.1422666957834052, 0.14169116066533538, 0.14120122805080765, 0.1407411962343352, 0.1402783997934595, 0.13988135088959425, 0.13951037282785775, 0.13916746097218163, 0.13885119494364268, 0.13858153297506912, 0.13831511167281166, 0.1381169584075042, 0.13789826911920078, 0.13770748489877344, 0.1374748381288639, 0.13734568651336185, 0.13731059681280114, 0.1372143162562445, 0.13714259520085206, 0.13708327757955968, 0.13705903569750466, 0.13703247332328072, 0.13705222684307902, 0.1370899432724148, 0.13709237590180093, 0.1371707549490509, 0.13726625323764038, 0.13737002098672196, 0.13748653932002475, 0.13761845147028984, 0.13775886589966607, 0.13791089476963486, 0.13807400070091558, 0.13824761776280622, 0.13840889588998018, 0.13860455452401937, 0.13881067433898803, 0.1390203314243592, 0.13923660964942805, 0.1394761475742516, 0.13970178405434527, 0.14000104120394086, 0.14022900755313153, 0.14046508741838634, 0.14063209649410827, 0.14089016604530524, 0.14114940841554743, 0.14140717942684383, 0.1416641628461874, 0.1419916567362525, 0.14223635528383283, 0.14242699909215095, 0.1426807709156222, 0.142930780562028, 0.1432169221339688, 0.1434525591600861, 0.14367485612182782, 0.14390442680084478, 0.1441284480670687, 0.14435124136846691, 0.14456133855242087, 0.14469725904470584, 0.14490029680833502, 0.14509080745746808, 0.14526665259304264, 0.14543197706289007, 0.1455821680225907, 0.1457213147657108, 0.14584677936142929, 0.14600788299853643, 0.14609892262746832, 0.14611751727034905, 0.14619203672373565, 0.14625000791383602, 0.146302396748317, 0.14632534369769531, 0.14631965001302474, 0.14631080360831808, 0.14628411004389602, 0.1463253265720736, 0.14625132002226687, 0.1461564399953636, 0.1460547783546409, 0.1459370714052349, 0.1457185844757193, 0.14557719363695545, 0.14549186964406274, 0.14529488561303464, 0.1450796205589337, 0.144819157406498, 0.14456887647932964, 0.14432852549553427, 0.14403115737314615, 0.14371362827241016, 0.14338659712414256, 0.14302597445764145, 0.1426141890736301, 0.14221535731107457, 0.14179320590184177, 0.14129908015049017, 0.14083617277979027, 0.14041983373550299, 0.1398954920029682, 0.13934959243083958, 0.13879496840933905, 0.13820337583799674, 0.13753347624149823, 0.13690545159650902, 0.13625204722725648, 0.1356048770826855, 0.13489747976339975, 0.13418234493141987, 0.133427160531114, 0.1326498572647072, 0.13185942486140692, 0.1310364201914111, 0.13023608382703464, 0.12936366379519507, 0.12847175722552903, 0.12753368831002979, 0.12660510372415, 0.12566276880137942, 0.12468952806719441, 0.12369504302905861, 0.12272085181580682, 0.12167883597211177, 0.120632341839959, 0.11955107221097325, 0.1184516713505018, 0.11737243025509635, 0.1162315089080053, 0.1150925674846475, 0.11391661227419018, 0.11272500557390497, 0.11149019267827982, 0.11027012058400776, 0.10911134480959199, 0.10784628888734824, 0.10656855899394543, 0.10524748587425799, 0.10394741019644331, 0.10269506528501053, 0.1013572927631215, 0.10000855928854317, 0.09864666806179054, 0.09727585249243667, 0.09593623772271855, 0.09453758520434871, 0.09313034325435222, 0.09173770207937404, 0.09031019737246626, 0.08891997560545309, 0.08747237437863281, 0.08602013606978823, 0.08456814338056519, 0.08310558236752176, 0.08170222758186951, 0.08022264131523248, 0.07874239712601917, 0.07720561009117624, 0.07573050798926521, 0.07430188919722285, 0.07281274979133213, 0.07132352246973603, 0.06984354843818573, 0.0683537784318985, 0.06694023564658334, 0.065444082669019, 0.06395429372515353, 0.06242219143745761, 0.060951056906462894, 0.059558449614802944, 0.05808576693235622, 0.05662219217471654, 0.0551202453982978, 0.05368122055256016, 0.05232604207331443, 0.05089192355876914, 0.049470545505743, 0.048041820334755986, 0.04664901656070594, 0.04525739443462733, 0.043891172843822, 0.04253778473138778, 0.04119997288094756, 0.03987417257913356, 0.038641437002111555, 0.037336852199148014, 0.03605330829156825, 0.03474643061775667, 0.03351111118168097, 0.032323335564069085, 0.03112358659138049, 0.02998859720119327, 0.0288285246509241, 0.027694176019097884, 0.02660097181776725, 0.025516952322714677, 0.024457402095521434, 0.02342907899173256, 0.022428758085907798, 0.021443728630823874, 0.020502445472276594, 0.019618207060332134, 0.01873143284167002, 0.017876298988555486, 0.017062369233059708, 0.016270774316452564, 0.015478407171226427, 0.014758895664039387, 0.014072067840789456, 0.013451111336504751, 0.012827977168261366, 0.012194184260686176, 0.011651362636964854, 0.011143806284272363, 0.010670416951124553, 0.010236386730982153, 0.009886719140113777, 0.009523285054229766, 0.009201928586679295, 0.0088967444136274, 0.008664088622640004, 0.008478343234248153, 0.008329405195722816, 0.0082238936934851, 0.008158340471045706, 0.008141918300555946, 0.008201760997669828, 0.008271747906763903, 0.00838952865799879, 0.008531111129143166, 0.008748436515723105, 0.00900298980207348, 0.009316809054333993, 0.009678435993711348, 0.010091477188995427, 0.010550022911503351, 0.011089546946345572, 0.01164382431858429, 0.012250396541575167, 0.012945866489729096, 0.013652972595991521, 0.014359342074520309, 0.015183222143589482, 0.01605876396427417, 0.01698843201769704, 0.01796833963944716, 0.018997225024465228, 0.02008404681331595, 0.02122435111492003, 0.022491330038521783, 0.023730398128566994, 0.02500371734189283, 0.026362613149097946, 0.027778111135844982, 0.029231980227941507, 0.030762942100522883, 0.03232113658458119, 0.03396696559386578, 0.03566707545373483, 0.03744408727776649, 0.0392509884681579, 0.04110628727417062, 0.04302725847298449, 0.045004379365131256, 0.04701852620891569, 0.04911065426039827, 0.051334980319904036, 0.05352818053122257, 0.055781335679763885, 0.058089891055895536, 0.060461986096728114, 0.06284181526713972, 0.0653365842740905, 0.067886122587741, 0.07046319010796727, 0.07312591792814767, 0.07591384350831429, 0.07867440521656875, 0.08149268761069663, 0.0843145688411037, 0.08725359972711985, 0.09023174141163427, 0.09327909861019848, 0.09637886166352352, 0.09959276334203343, 0.1027895262163125, 0.10605115577933943, 0.10935766177023265, 0.1127192051443763, 0.11604912079338778, 0.1195296419115697, 0.12309992667761056, 0.12667184762298905, 0.1302944700505918, 0.13398460244677446, 0.13770525691453853, 0.14143384585740174, 0.14526013983467856, 0.14913329316196378, 0.15304900370948227, 0.15701557581759462, 0.16107037332709487, 0.1651226820523652, 0.16922236076529482, 0.17329882367518887, 0.17749975574765717, 0.1818146857423504, 0.1860885106743896, 0.19040711330046745, 0.1947655355210747, 0.19917148852638525, 0.2035525284099812, 0.20804981559388552, 0.21258355069990661, 0.2172090904269582, 0.22180774896227182, 0.22644188429914158, 0.23111703682315252, 0.2358287095290157, 0.2405143061480337, 0.24530418933306622, 0.2501214609573875, 0.2549721932430143, 0.2598523514208997, 0.2647523508448234, 0.26969102026882164, 0.27466712362801005, 0.2796585874685562, 0.2846767665377923, 0.289682475277689, 0.2947566991221862, 0.29986126582477723, 0.30497844568540383, 0.31011722997770425, 0.3152637633012889, 0.32044526934381456, 0.32572533979132484, 0.33093329511141384, 0.33616290037305047, 0.34133278646518983, 0.34661152514207716, 0.35191740463452836, 0.35721962875771457, 0.36253422610747943, 0.3678340125005456, 0.37317402444989034, 0.3785718073302862, 0.38392120853229533, 0.38928008246833345, 0.3945814536604133, 0.3999639727040461, 0.4053244041526614, 0.41071374304707875, 0.4161025794429705, 0.4214954244601938, 0.42688090524805516, 0.43231188148811883, 0.4376864630471714, 0.4430600707221751, 0.44838290512270157, 0.4537570164663403, 0.4590913893365886, 0.4644540661933853, 0.4698059183213357, 0.4751432969797178, 0.4804719823684706, 0.48578462136674266, 0.4910869164385329, 0.49637448076555973, 0.5016222187732677, 0.5068809147107132, 0.512118944980908, 0.5173398942846895, 0.5225406022626834, 0.5277101569029603, 0.5328692390033458, 0.5379797209302838, 0.5430945725824335, 0.5481830293274096, 0.5532514936218024, 0.5582841737684703, 0.5632805747009828, 0.5682570361334056, 0.5732030877359361, 0.5780925795798417, 0.5829784165304027, 0.5878368648272012, 0.5926521451172807, 0.5974318738546266, 0.6021600243393694, 0.6068679965536202, 0.6116057538686681, 0.616226213919545, 0.6207917176543053, 0.6253396094114466, 0.6298470217261835, 0.6342743711399371, 0.6387023049334343, 0.6430721331102601, 0.6474089254711248, 0.65169756261805, 0.6558867809396418, 0.6600834587928175, 0.6642756250456806, 0.6683596899453377, 0.6723927048568, 0.676326293079482, 0.6802607527580954, 0.6841187963729186, 0.6879430234758241, 0.6917090336075885, 0.6954468368340042, 0.6990914960306948, 0.7026835288307612, 0.7062114617160162, 0.7096805605333707, 0.7130344222727653, 0.7163906313548467, 0.7197312099008917, 0.72295260937101, 0.7261119402518378, 0.7291406660474812, 0.7321822053721775, 0.7352396591329602, 0.7381343066099452, 0.7409652592395055, 0.7436992274048074, 0.7464041942326054, 0.748976300981703, 0.7515527283524043, 0.7540563972156582, 0.7564853107332061, 0.7588437455110235, 0.7611778016641092, 0.7633841136408646, 0.7655199829765006, 0.7675190952381129, 0.7695207715245131, 0.7714770934085297, 0.773323569436306, 0.7750961057474547, 0.7767590231251256, 0.7783873571883254, 0.7799784277669631, 0.7814483551952454, 0.7828438024275439, 0.7841361002091722, 0.7853851716553508, 0.7866118548251249, 0.7876999239868994