0.06710807001748059, 0.06643878718659182, 0.06591065591859097, 0.06522892405587796, 0.06470230968805948, 0.06402032589777411, 0.06335363701892427, 0.06245775959590725, 0.06184589401143733, 0.06128525682615957, 0.060658608866226864, 0.06003190767539117, 0.05952974370683151, 0.0588872191924217, 0.058085603821263106, 0.05747720816392497, 0.05686480214417872, 0.056345961394828066, 0.055715250721649165, 0.054921714689772715, 0.05431833468347891, 0.05370846316566988, 0.05318325713738952, 0.05255243089835986, 0.05206175961053469, 0.05141698911320055, 0.050781928883730114, 0.050114039816303024, 0.049500755846620274, 0.04898911349986937, 0.04837274611440261, 0.04776599124246166, 0.047160944915765425, 0.046571484895701384, 0.045677242651764156, 0.04513999372088943, 0.044590954534924586, 0.04427451321521568, 0.043677428216994385, 0.04305325346628467, 0.042475119813600686, 0.04190170630882325, 0.04134679764663651, 0.04078091726292783, 0.04002660788965629, 0.03949585843832967, 0.03895938850527315, 0.0384671325158736, 0.03791737285378269, 0.03753467609475426, 0.036966427431698964, 0.03640961487105352, 0.03579416233988971, 0.03526649476525043, 0.034612587364796006, 0.03411206373939252, 0.03360939072585109, 0.033451694815614046, 0.03290398968712852, 0.03224483804955897, 0.03175182086987877, 0.03137835628674927, 0.03088843332368703, 0.030412574910897983, 0.02993568086514249, 0.029486106434638504, 0.02880430405871276, 0.028404742141491187, 0.028000383696500986, 0.02767577817150527, 0.027255645806120193, 0.026784036704947486, 0.02637910405972202, 0.025975742280104113, 0.025713173995274098, 0.025297744582229293, 0.024845342516993343, 0.02445845276019503, 0.02407931453170849, 0.023583334744879756, 0.023235451186176877, 0.022895275108757888, 0.022549123000156938, 0.02220610014680411, 0.022213045484907396, 0.021834723171962483, 0.021584813860412045, 0.02124029555416112, 0.020921982649690793, 0.020502748844278957, 0.02024532142762832, 0.019896647689009794, 0.01967687913717215, 0.019462737707684575, 0.019282350713471504, 0.01907727805457533, 0.018977585672073003, 0.018777409502239193, 0.018591550020977406, 0.018281019666877528, 0.0181397338705524, 0.01828741952488005, 0.018121472788699928, 0.01797826618090906, 0.017946223392413734, 0.017832681157359354, 0.017590652784098278, 0.017542281837564438, 0.01750609219085383, 0.01756519124544665, 0.017543060652331258, 0.017572674715707115, 0.017579957205949105, 0.017605463321818112, 0.01781476302934642, 0.017854195518239975, 0.017982185320501762, 0.01806471788742394, 0.01817416073885708, 0.01827433158681057, 0.01843750961359156, 0.018483259928935774, 0.01870535483975637, 0.01893964813420229, 0.019228469195851597, 0.019484285018529512, 0.019763879373435156, 0.020052925504931058, 0.020360014624547628, 0.02060937008009983, 0.02096326567235325, 0.021449713167232855, 0.021819501913562647, 0.022212705504558245, 0.022663843940044687, 0.02309929218631843, 0.023573832282751676, 0.024057803740859002, 0.024567422728245265, 0.02509556387922928, 0.02565680944518567, 0.026353643011000665, 0.026950605162800317, 0.027578730172355483, 0.028161097217852402, 0.028858963082777574, 0.029623301583285203, 0.03036600761069577, 0.031136419360753287, 0.03189292016223381, 0.03272378901310333, 0.03385679696405416, 0.03470361275721722, 0.03559203845238531, 0.0363818112691336, 0.03736573631423022, 0.03829573662042973, 0.03934844667044686, 0.04042571746380265, 0.04173598540903569, 0.04283845353676576, 0.043910173185053115, 0.04509733467283611, 0.04631726762397925, 0.047583707235684176, 0.04886717809818861, 0.05032250325584118, 0.05165528172038204, 0.053029240532897, 0.05411803070577781, 0.05561255599114324, 0.05726585478499937, 0.058785630478664815, 0.06033745777985038, 0.062053426011426854, 0.0636544429280833, 0.06520657577955619, 0.06690061066281877, 0.06862969796106852, 0.07060878294576006, 0.07238197423215904, 0.0738780679103629, 0.07578746025318456, 0.07772429527829099, 0.0798771003472687, 0.08184996988711402, 0.08384448015355825, 0.08590449379873559, 0.08800522926300051, 0.09026435247721637, 0.09243168466759853, 0.0945080011235831, 0.09678680344780058, 0.09910366301109402, 0.10138295216852714, 0.10378705191599703, 0.1061710055288227, 0.10865359587092505, 0.11117027654167652, 0.11376386284122561, 0.11634719020872288, 0.11912958189258556, 0.12177308531328844, 0.12446646213351246, 0.12703583970065785, 0.12984844609536697, 0.1325951965525405, 0.1354977071847116, 0.13843394622855637, 0.14146769872137, 0.14446780717152866, 0.14748139113957157, 0.1505678110145428, 0.15369473888754057, 0.15699425212286353, 0.16018718416764924, 0.16328410094709755, 0.16659335782565726, 0.16994240585610354, 0.17354638114805576, 0.17694949687650396, 0.18015671439860964, 0.18369649027089183, 0.1872729068386013, 0.19091453346390352, 0.1945632515715949, 0.1984531646170977, 0.20215775407105735, 0.2059146324931313, 0.20957009538627117, 0.21344665883992137, 0.21728695813897453, 0.2212530803813943, 0.2252551283459455, 0.22951529962212458, 0.233563203033979, 0.23766817241688884, 0.24181410212647608, 0.2460079246408868, 0.24993698253955307, 0.25426252314988507, 0.2589059486579552, 0.26325071579402964, 0.2676419936243124, 0.2721132378588275, 0.27658980574201436, 0.28093862221921706, 0.2855264824069686, 0.2901477012635037, 0.29505188178186614, 0.2997095046462377, 0.3042839800304366, 0.3090531298592941, 0.3138597896267317, 0.3186343128257011, 0.32352346106057167, 0.3282996162507197, 0.3332720070093062, 0.338268822394683, 0.3434435177333694, 0.3484732683664964, 0.3535735454336321, 0.3586701546199588, 0.3637688084732076, 0.3689422116325325, 0.37414858268917683, 0.37947735133254196, 0.3847366191759537, 0.3897415155078411, 0.39510889894754797, 0.40049376350538796, 0.4061049308722603, 0.41150180022925614, 0.41675070390667346, 0.4222331965676236, 0.42773538041467857, 0.4330915315382437, 0.4386551283539034, 0.444472083941071, 0.4500285721699245, 0.455612106757922, 0.4613045819695336, 0.4669282303618235, 0.4724140228351562, 0.47811340993737045, 0.483828256845479, 0.48962750968184615, 0.4953636298142424, 0.501083426362466, 0.506859429118578, 0.5126496565035172, 0.5183218263385441, 0.5241547822697507, 0.5300821565943773, 0.5359128145408294, 0.5417532122175108, 0.5476855964365964, 0.5535325024013221, 0.5594466483219126, 0.5653087186256117, 0.5711826847742119, 0.576969745045543, 0.5828741596472655, 0.5885096952507511, 0.5944495253904267, 0.6003735702201506, 0.6065322959585296, 0.6123968491915697, 0.6182626389315605, 0.6241281726562388, 0.6299919959982997, 0.6357073371417284, 0.6415818919571453, 0.647303983336582, 0.6531678122870243, 0.6590093907025073, 0.6650647693692181, 0.6708340104098658, 0.6767271887748715, 0.6824628478215974, 0.6881947607913108, 0.693657168078919, 0.6994068090683616, 0.7050125977167147, 0.7107246269473834, 0.7164035082697825, 0.7220775206105661, 0.7276881656181474, 0.7334690873900028, 0.738993237473597, 0.7444976362643065, 0.7497171875087453, 0.7552092041604693, 0.7606676812962707, 0.7660782051678112, 0.7714490779254288, 0.7767455849057175, 0.782041066596922, 0.7874672573664206, 0.7926559873993593, 0.7978115369938177, 0.8028905188614562, 0.8079794520409312, 0.8129998125790816, 0.8180091399294707, 0.8229733745725417, 0.8278222195937747, 0.8327017636874771, 0.8374806014162735, 0.8422612066488938, 0.8469856559206514, 0.8518474501333386, 0.8564340719388097, 0.8606973444946925, 0.8652238593901154, 0.869684194402196, 0.8743416892247073, 0.8786371992597233, 0.8827986965076986, 0.887000545053758, 0.8911424103737662, 0.8953337230561675, 0.899337715262387, 0.9033187180626804, 0.9072010471485532, 0.9110236803408993, 0.91471530929788, 0.9184211801123434, 0.9218292363239478, 0.9254240715048647, 0.9289345158563269, 0.9325621144615684, 0.9358806720162604, 0.9390242006472777, 0.9422121770225389, 0.9453205934055217, 0.9482245271177243, 0.9511885249340203, 0.9540855966084089, 0.9568721311963124, 0.9595730736230708, 0.962347705115566, 0.9648574914151605, 0.9673113530693211, 0.9696636774985044, 0.97193765561424, 0.9739726475818443, 0.9761058308283485, 0.978237680057469, 0.980176978853863, 0.982030178421842, 0.9837619257087115, 0.9854450988879736, 0.9872111301531025, 0.9886916930373162, 0.9900910433121365, 0.9911790067874303, 0.9924396976777565, 0.9935462067517327, 0.9946168355318323, 0.9955865652683275, 0.9964769857168773, 0.9972446398246352, 0.9981084717466442, 0.9986566909324442, 0.9991187368170885, 0.9992648406164358, 0.9995794926327131, 0.9999022513495038, 0.9999985090315913, 1.0, 0.9999411156790257, 0.999748073321251, 0.9993232013902782, 0.9989604459050727, 0.9984957456666599, 0.9981375591765859, 0.9974450687062818, 0.9966160357983018, 0.9957524162012081, 0.994795997151516, 0.9937602378539836, 0.9926154022903989, 0.9912322874454245, 0.9899197178536495, 0.9885056295022905, 0.9870464638063096, 0.9854254706185105, 0.9837505924087089, 0.9819339517590029, 0.9800250998075725, 0.9778511141719032, 0.9757801197685998, 0.9735938635569324, 0.9713234384451676, 0.9689540027289719, 0.9667777887573078, 0.9641780455848972, 0.9613475921143977, 0.9586091247487193, 0.9557816814338537, 0.9528796384339083, 0.9498741225025323, 0.9466436656714434, 0.9434831430593108, 0.9402294041561585, 0.9369187617964678, 0.9334792303106424, 0.9300570767408498, 0.9264326911556949, 0.9227299827877664, 0.9188661648671544, 0.9150182109140992, 0.9110260371399478, 0.907023279103596, 0.9029374262280646, 0.898700907121238, 0.8944624769783093, 0.8900933437703578, 0.8856985471422978, 0.8812226867909462, 0.8769171212803966, 0.8722540390660966, 0.8674331272555432, 0.8626602555416782, 0.8578208014287174, 0.8528533622448583, 0.8478913283847408, 0.8428066211067708, 0.8377184793442287, 0.8327290015600327, 0.8274868321116408, 0.8221902207147287, 0.8166942194923837, 0.8113084235541145, 0.805875398893129, 0.8003675789701739, 0.7948031425162998, 0.7893290853377548, 0.7836379345246586, 0.7779516109624995, 0.7721674772752923, 0.7663433452052296, 0.7603133384238319, 0.7544310881038173, 0.7485214472620385, 0.7425422533741052, 0.7365200016912299, 0.7305187119196722, 0.724407623977818, 0.7182690104397365, 0.7120893199173186, 0.7058779511694233, 0.6996153398647362, 0.6933468861287312, 0.6870008695532449, 0.6806818067094447, 0.6743339019340017, 0.6679659763093954, 0.6615651710913214, 0.6552799254685562, 0.6488176090081861, 0.6423436358126743, 0.6358931913206585, 0.6293933809895409, 0.6227821109082351, 0.6162807759448979, 0.6097673402456972, 0.6032573298424916, 0.5967229831241023, 0.5900715914538558, 0.5835401913648474, 0.5769993683487133, 0.5705553847388535, 0.5639897952865817, 0.5574622118991792, 0.550900343302417, 0.5443464339374778, 0.5377738540980219, 0.5312425809381215, 0.524790235544319, 0.5182710409171134, 0.511768258144979, 0.5051719980364623, 0.49871867730442343, 0.49229216240574775, 0.4858649455309385, 0.47945526102948, 0.4731201738391936, 0.4667435881631287, 0.46034414425780296, 0.45402599660757886, 0.44773299497335955, 0.44128672912314254, 0.43507138608284635, 0.4291386483360344, 0.4229321128124948, 0.41676549360858944, 0.41063224158595785, 0.4045475346913867, 0.39824070567984937, 0.3922717075183206, 0.3863302163467076, 0.38053676851575147, 0.3746437997863104, 0.36884134985788614, 0.36302770055854666, 0.35726140515592975, 0.3516401849891205, 0.34595880812030205, 0.3403465354481135, 0.3347739785055999, 0.32925765187435874, 0.3235623409271636, 0.3181886721142387, 0.3129693790740011, 0.3076712125785353, 0.3024272013294384, 0.2972937325660407, 0.29215403764069536, 0.2868876567710497, 0.28189244291314625, 0.2769478783900388, 0.27201443310717793, 0.2671822411334905, 0.2626391891352812, 0.25788670953405707, 0.25320477489908294, 0.2485930122381591, 0.24405113806196882, 0.23940590931463912, 0.23502514714865494, 0.23070414868272154, 0.22647196887753937, 0.22227097585732722, 0.21813503353768116, 0.21406493413683886, 0.21006139723942563, 0.20627042762539588, 0.2023835320781887, 0.19852467950066152, 0.19479620694495603, 0.19114022205691522, 0.18761889526432385, 0.18409966404831496, 0.18062150917098632, 0.17725745971704798, 0.17396610234568458, 0.17053964542667158, 0.16741951137816918, 0.16433927154679684, 0.16134465002557807, 0.1584124596030042, 0.15557173677755534, 0.1527647685057502, 0.15000451616413477, 0.14733573760095703, 0.1447343617977943, 0.142214774167868, 0.13974795981351187, 0.13743365887709386, 0.135095351764999, 0.13283128132492678, 0.130834533450302, 0.12869229822048328, 0.12633544927002904, 0.12439464215217462, 0.12251589009992994, 0.12065129036326568, 0.11890428391525823, 0.11725939350250007, 0.11562887483042364, 0.11406225122563522, 0.11253869732900239, 0.11110222132978124, 0.10982494450024267, 0.10850068172614503, 0.10724380911545615, 0.10618476325578721, 0.10504285055965476, 0.10379952567350086, 0.10282068296019833, 0.10189978014337495, 0.10110564238003152, 0.10029064305411152, 0.0993769434885464, 0.09870196543757288, 0.09807637788205398, 0.09760423212833985, 0.09706484197368223, 0.09658094379162875, 0.0961515457315607, 0.09577565339852159, 0.0955353282518018, 0.09525295140943664, 0.09506727095909279, 0.09488830403794125, 0.09476356787945166, 0.09450432449146728, 0.09450621484554625, 0.09453273876447894, 0.09461325936876339, 0.09473122009571605, 0.09503871699840649, 0.09521166322890187, 0.09535361152903556, 0.095624766506056, 0.09593346679549163, 0.09618878321547426, 0.09658108494854464, 0.09697529325333656, 0.09743000192785306, 0.09791208596401746, 0.09851126833193939, 0.0990358412180361, 0.09975785611039872, 0.10032278850360951, 0.10092580370100283, 0.1013081995547625, 0.10201211973407334, 0.10285702799912753, 0.10357792298897243, 0.10432193783382072, 0.10519850288618435, 0.10597083420337491, 0.10676862301115188, 0.10758972804820033, 0.1084321372365305, 0.10907246583885583, 0.10997990790844552, 0.11121615792705444, 0.11208963221378344, 0.11289508425959678, 0.11382114098979916, 0.11475889515493344, 0.11570675965908253, 0.1166632297704746, 0.1176753263069699, 0.11863865932586079, 0.11960922401706717, 0.12042618991405755, 0.12142653979303931, 0.12235135133053394, 0.12334771703266563, 0.12433360791925693, 0.12537161733222812, 0.12632943999556287, 0.127301539315474, 0.12824317905366867, 0.129178293995201, 0.1299745528786999, 0.13091077126269499, 0.1318928874479647, 0.1327886515323318, 0.13367181022631977, 0.13458335358165255, 0.13543438969178967, 0.13650874342785205, 0.1373050125879965, 0.13810052776794007, 0.13878862903189512, 0.13958750778423598, 0.14017131170684147, 0.1409655650150769, 0.14173168222890187, 0.14242169026215395, 0.14313896840297274, 0.14385414567030871, 0.1445088769175616, 0.14513629324554914, 0.14589563663226476, 0.1464483542985232, 0.14700336692283464, 0.1475150787935845, 0.14800671266153181, 0.14842841890468197, 0.14888194090126253, 0.14939878464599438, 0.149786922794717, 0.15015211512812096, 0.1504168955212746, 0.15074196451074978, 0.15114002734609278, 0.15138995019781598, 0.1516141746708747, 0.15165928050771005, 0.15184804920652745, 0.15199258174765384, 0.15210802130394463, 0.15218655210870324, 0.1521039619099667, 0.15212550406197065, 0.15238791052708792, 0.1522889780406738, 0.15216538580857245, 0.1518219987702859, 0.1516697551024746, 0.15166532619847903, 0.15141198496376743, 0.15113132566946394, 0.15078085116872747, 0.15044803601014034, 0.1498961742233811, 0.14952238982244545, 0.14910547544548683, 0.14876444630270558, 0.14825030618672566, 0.14777251151207574, 0.14718392079390355, 0.14656644917310535, 0.145718901378755, 0.14506772659281553, 0.14452753351511097, 0.14377591501935078, 0.14299420955685066, 0.14211312824151295, 0.14127982980807077, 0.14047477986211473, 0.13956613764820766, 0.13862816532416297, 0.13775091526705593, 0.13674316591900704, 0.13559381415053554, 0.1345525415456416, 0.13347979791669126, 0.13250082917404413, 0.13135135306248893, 0.12993016240252578, 0.12876674008214214, 0.12756616443391927, 0.1263302880159593, 0.12506081151459902, 0.1238077498961805, 0.12246951715062686, 0.12110474145549413, 0.11975579736497469, 0.11833518247084035, 0.1169896836489184, 0.11551365845075234, 0.11402213009366641, 0.11245939681395906, 0.11094298976821083, 0.10946961200541032, 0.1079072307874097, 0.10632997652214685, 0.10471015686525945, 0.10310672891753495, 0.10181935347368491, 0.100142020695502, 0.09846812540793336, 0.09670556417328459, 0.09504391771048198, 0.09343764830862841, 0.09175388932783884, 0.09006608414190127, 0.08837367006673204, 0.08667629026868584, 0.08501530137220677, 0.08330238558104763, 0.08158679154084528, 0.07967464899817774, 0.07797815665188527, 0.07651060980964441, 0.07475877385161993, 0.07301094583637405, 0.07139150286044046, 0.06963547210002036, 0.06788336798661278, 0.06614914196730222, 0.06442408209929468, 0.06258334292949302, 0.06089177772384248, 0.05931288501943442, 0.05761240281340102, 0.055922523772266496, 0.05415360472153153, 0.05249742336307653, 0.050910397375118176, 0.04926139410521849, 0.04762538829675796, 0.046203888842574196, 0.044570888598960155, 0.04296461005616292, 0.04138431918249007, 0.039829502828884186, 0.03836906026216087, 0.03685566792545587, 0.03534350494365078, 0.03389103866251207, 0.032465312051156575, 0.030928067170936085, 0.02957396098882081, 0.0284196469028898, 0.027084049283738608, 0.02578152007084721, 0.02467821056222087, 0.023421041461524652, 0.022019841846853967, 0.020871031546592752, 0.019752886891399042, 0.018818679592228854, 0.017745615258173524, 0.016548661145827172, 0.0155808425188205, 0.014645651509722246, 0.0137790965244813, 0.012908935049360758, 0.012125841805155094, 0.011327760164093568, 0.010572944322152597, 0.009931164129325864, 0.009255824145115084, 0.008435585797017309, 0.007882637645700304, 0.007367958242334519, 0.006893341222478278, 0.006460450314343173, 0.0063476916057762425, 0.005967769766848894, 0.0056494239658071614, 0.005343219094503304, 0.005151389612637789, 0.004884507644521869, 0.004822138820452153, 0.004808771213988814, 0.005025504048500552, 0.005090737657411054, 0.005197535432050281, 0.0053895636579301175, 0.0056419050537300265, 0.005906026078702864, 0.0062849501452352675, 0.0066245435200878704, 0.007131373780080972, 0.007691363187511614, 0.008208901946966144, 0.008891236623858505, 0.009901735199013176, 0.010653458838350354, 0.011240094773362975, 0.012161290563306795, 0.013138106922049019, 0.01440723789363592, 0.015469492011767469, 0.016535055957071474, 0.017750217036637487, 0.019032361824875242, 0.02024297220957561, 0.021676362005896663, 0.023231102020281127, 0.024775846162376883, 0.026385262041504858, 0.028156644852251292, 0.02988429657432353, 0.03148240710369426, 0.03337731630107485, 0.03533123073807469, 0.03741461162069827, 0.03948137157675111, 0.041531260438353354, 0.043741171360438424, 0.046013110162030545, 0.04859018301692773, 0.05095798099174081, 0.0532305631630405, 0.05577445446730806, 0.05838374389456617, 0.061141731716673024, 0.06387198763125378, 0.06674900999562292, 0.0696103250537581, 0.07254543734015408, 0.07527637642501435, 0.07839086951271826, 0.08156752382195488, 0.08479302016321637, 0.08807673891070077, 0.09148192747741826, 0.09487691228114814, 0.09833600165388788, 0.10185920165184725, 0.1054464572240809, 0.10904920630439502, 0.11277031365740806, 0.11682913533913815, 0.12063707867579657, 0.1245215994251901, 0.1284666007613716, 0.13249947033169418, 0.1363458758439624, 0.14054880360439073, 0.14480394807011623, 0.14909126593498828, 0.15345548253038788, 0.1579901412848761, 0.16244550517658177, 0.16696105845747647, 0.1714184014086229, 0.17606701422848978, 0.1807670214992643, 0.18551864134318138, 0.19032197365705658, 0.19516316723417654, 0.20007155184082343, 0.20507208990474748, 0.2100763048443576, 0.21513305213801606, 0.22042162318076258, 0.22555864439975273, 0.23052779122379496, 0.23581256644448223, 0.24114081701868348, 0.24667167142654925, 0.2520664416434659, 0.2573746941067702, 0.26288916909966437, 0.26844462127588087, 0.2742621841876348, 0.2798704466435673, 0.2853439586461682, 0.2910777802020821, 0.29684874634535613, 0.3025940483806834, 0.30844558313501835, 0.3143567545289737, 0.32026852927600086, 0.32621338391995136, 0.33215612961856167, 0.3381697179374995, 0.34441325541567763, 0.3504594506991682, 0.3565451328947889, 0.36270960815716646, 0.368862481277481, 0.3748847841073971, 0.38112757027545874, 0.3873923536251477, 0.393553965196204, 0.399876699511773, 0.4062679136941846, 0.41261013516158407, 0.4189689523025526, 0.4253784843874933, 0.43176457048087613, 0.43797368920738267, 0.44441696206354364, 0.45086418908593545, 0.45730896591274667, 0.46376631243721506, 0.470373503374409, 0.4768214439050215, 0.48328184660302165, 0.48989857420800453, 0.49636106872039754, 0.5027636213220029, 0.5092655200230323, 0.5157742759493702, 0.5220667047900925, 0.5286121515504262, 0.5353062998632779, 0.5418108698142197, 0.5483141813847844, 0.5546902686293347, 0.5612026963363552, 0.5678619782027587, 0.5743292605701111, 0.5807923569985625, 0.5871733073438881, 0.5936322595850875, 0.600070567604366, 0.606501932873624, 0.6129171319448095, 0.6190244577575709, 0.6254410500556589, 0.6320712609286523, 0.6383865040520152, 0.6446824093412432, 0.6510476445224654, 0.6572895624452719, 0.6634371269696128, 0.6696502151097654, 0.675836863128568, 0.6817120604128822, 0.6878780321145949, 0.6942748319045012, 0.7003147997129835, 0.7063261348881033, 0.7121825702476886, 0.7181474087957456, 0.7240440570074406, 0.7299308617525194, 0.7357744765194619, 0.741505231752484, 0.7472697659484779, 0.7529648396434905, 0.7586344704525341, 0.7642538355155596, 0.7698504049089304, 0.7753649668043946, 0.7806498538797068, 0.7860869742022422, 0.7914626910770458, 0.7971167356616573, 0.8023282700132831, 0.807263194180535, 0.8124191902390663, 0.8175154105783913, 0.8224475410776445, 0.8274357865063882, 0.8324882428129532, 0.8373254036007249, 0.8421027740239465, 0.8467014832721521, 0.8513705492382494, 0.8562119012711239, 0.8607101862362242, 0.8651515710522737, 0.8695406319530604, 0.8738604735915545, 0.8778957693449441, 0.8821155675078124, 0.8862561459094762, 0.890345299767628, 0.8943241604271319, 0.8983084388185706, 0.9021211239966875, 0.9058600021554949, 0.9095170118887244, 0.9131057836545531, 0.9167209174853175, 0.9201407048956449, 0.9234870267224471, 0.9266751307416884, 0.9298800813521897, 0.9330922103543448, 0.9361195390431519, 0.9390678578258103, 0.9418597143028832, 0.9446558068841311, 0.9474688238315142, 0.9500776004067787, 0.9523138285719749, 0.9547944704319519, 0.9571746597623647, 0.959704922485508, 0.9618565574868226, 0.9636068191594358, 0.9656315673140763, 0.9675532140094938, 0.9695948357168561, 0.9712868099211096, 0.9727330246607194, 0.9742711980530213, 0.9757123308035437, 0.9773477242270375, 0.9785597053300079, 0.9795609436950691, 0.9806290743188235, 0.9816067904555839, 0.9825627798078297, 0.9833493885852972, 0.9841518740252677, 0.9847485405471517, 0.9852613619539735, 0.985501928148377, 0.985866307808902, 0.9860977569589878, 0.98627040124973, 0.9863438177569123, 0.9861664856425538, 0.9860629008770319, 0.9859090057787493, 0.9855888761898054, 0.9851696240871137, 0.9848322254476849, 0.9841949260980267, 0.9832222001603117, 0.9824432208385521, 0.9815627554600038, 0.9808522874680969, 0.9797392008104924, 0.9783294127343508, 0.977078168799302, 0.9757308780096788, 0.9743508624233783, 0.9728066151829404, 0.9713111300967352, 0.9695703867399031, 0.9677484513664179, 0.9656369484606596, 0.9636768551493318, 0.9615737422947659, 0.9594320165656481, 0.9571956770763197, 0.9549286286684305, 0.9524999056134194, 0.9498945932014818, 0.9473048397735707, 0.9446250355468347, 0.9420435728635336, 0.9391644744113875, 0.9361685419132111, 0.9331438431993367, 0.9300411505213085, 0.9266393064622183, 0.9234096918199061, 0.9201462124145269, 0.9167334175559259, 0.9132389163935959, 0.9096503998543617, 0.905998761431762, 0.9026012558529075, 0.8987528530260451, 0.8948478238767791, 0.890760242156531, 0.8867539849323013, 0.8824663619449906, 0.8783540881706708, 0.8741639655320133, 0.8699744809113298, 0.8656259464297864, 0.8614319787034506, 0.8569229640000915, 0.85236217662939, 0.8476245818016226, 0.8429748684438381, 0.838127222104571, 0.8333771288777251, 0.8285620376397234, 0.8237188481863326, 0.818776148642902, 0.8139361385418575, 0.8088620079980249, 0.80374367884112, 0.7983323183326164, 0.7931582482422211, 0.7879343007619825, 0.7826484361988099, 0.777311360262841, 0.7720984344051988, 0.7666439046115926, 0.7610575914777229, 0.7555461564222775, 0.7499956994440995, 0.7443870051838682, 0.7387657525946943, 0.7329981434054601, 0.7273213184291075, 0.7216059259943424, 0.7161382165694791, 0.7103170695047749, 0.7044595130997835, 0.6986095116395128, 0.6927425025926752, 0.6867826752557596, 0.680892386868898, 0.6747814499582291, 0.6688779848701466, 0.6629459323630758, 0.6570712901437981, 0.6510801920345944, 0.6450734434925592, 0.6390528077829905, 0.63301999274113, 0.6271220089864326, 0.6210513870504613, 0.6149400593150904, 0.6088767049210446, 0.6028126955434104, 0.5965551456464439, 0.5905171333488103, 0.5844912505862585, 0.5784359501957967, 0.5723782357824166, 0.5665348121796954, 0.5604514407606283, 0.554494533365005, 0.5484287119916114, 0.5423851863549735, 0.5362180817587324, 0.5302361776867593, 0.5240875183620533, 0.5181560139051208, 0.5122300975501274, 0.506437058364076, 0.5005144948555256, 0.4947505383119305, 0.48885204535269194, 0.4829839323898803, 0.47686250807801667, 0.47109144055239016, 0.4653839238441404, 0.459639645663997, 0.4539184229439223, 0.4485129150136437, 0.44280679707188275, 0.4367995051005762, 0.43122625645238166, 0.425677300969331, 0.42023124445792404, 0.4147284708201497, 0.4093234267876119, 0.40388499882630463, 0.3984881395168977, 0.3932789279072848, 0.3879490152681419, 0.38252567711930746, 0.37731757204117455, 0.3721525342404936, 0.36717693765593423, 0.3620826923706188, 0.35678655425142997, 0.35183286737064107, 0.3469186679046426, 0.3421567488692999, 0.33731350226097423, 0.3325008585260723, 0.3277636763926031, 0.3230780874078984, 0.3183203398284931, 0.3137561589818299, 0.3093635597097539, 0.30487933865742434, 0.3004523947265392, 0.29623542217414667, 0.2919050320068173, 0.2876417012679724, 0.2834446011086469, 0.27931304501749715, 0.2751080421154712, 0.2711235093443948, 0.2671261789736282, 0.2632640825826231, 0.2594561544553463, 0.25582134274511775, 0.25211059313833006, 0.2482910533266642, 0.24473066429943324, 0.24122479929260432, 0.23787868688135075, 0.23447279550695888, 0.2310064064753427, 0.22774456790844427, 0.22476153401159457, 0.2215873978006669, 0.21848501518218702, 0.21527344405695453, 0.2123344758212823, 0.20948218784326458, 0.20665843578790613, 0.20389657732127883, 0.20112076708811782, 0.19849313003236388, 0.1959722420469025, 0.19345579066067708, 0.1910016568529364, 0.18862376019629054, 0.18629268010972405, 0.18413549188835288, 0.18191650151273897, 0.1797664358584868, 0.17755955044129, 0.175559698074662, 0.17379158173054424, 0.17188730786678055, 0.17005150023752344, 0.1680681328476807, 0.16639212755773033, 0.16491385571938894, 0.16332480740724808, 0.16179730967534955, 0.1603789615234697, 0.15896591613982777, 0.1576285217204713, 0.15633618559692952, 0.15510419050733973, 0.15386910402373025, 0.15276231827877423, 0.15157764334238696, 0.1505942620820035, 0.14965617361681519, 0.14870163769696818, 0.14786352048266746, 0.14723453601471756, 0.14646208347769632, 0.14574306536089796, 0.14495877745486005, 0.1443584104471659, 0.143871029014321, 0.14334940685529957, 0.14287524597464069, 0.14231623505480887, 0.14195120015575818, 0.14182451096734336, 0.14150954253742484, 0.14124372295927157, 0.14093538671221123, 0.14077426732547516, 0.1406455067511813, 0.14056308349150942, 0.14051804305663657, 0.14073113486652256, 0.14073060480147057, 0.14062530573971535, 0.14073643681047726, 0.14088152164787807, 0.1411703055622518, 0.14136630792782945, 0.14135033545941525, 0.14165038224613935, 0.1419700368475837, 0.14239271856834992, 0.14274201441012396, 0.1430262312408656, 0.14343597646384773, 0.14386408099059145, 0.14451812331580546, 0.14495637309291048, 0.1451887650669839, 0.14571367034287505, 0.14625086829712097, 0.1468696520909416, 0.1474227841749414, 0.14790888276732472, 0.14850372862419065, 0.14910823499291334, 0.14993674962136283, 0.15053268512274356, 0.1511355258414406, 0.1517724923822196, 0.1524251428352768, 0.1529670609053501, 0.15366145323761302, 0.15447702975487626, 0.155163047566151, 0.15585807931737283, 0.1566989991211526, 0.15738997141174066, 0.15771954318559628, 0.15848006602443063, 0.15922731172427096, 0.16021141353665727, 0.16090326655242768, 0.16162578886700935, 0.16231850582121443, 0.1630126565109783, 0.16345743276477917, 0.16418116993683202, 0.16490854733564392, 0.16559608462713166, 0.16626884681543508, 0.16691318534263713, 0.167558619160425, 0.1683617996623691, 0.16895477719330307, 0.16954209571047615, 0.17001837661778668, 0.170602940605071, 0.1713170051878074, 0.1718510521541501, 0.1723765128304477, 0.17287790202763553, 0.17338314573282373, 0.17372913129698142, 0.17422377369042452, 0.1746941042182466, 0.17528564341500943, 0.175689405604277, 0.17585582390500845, 0.17625469303023505, 0.1766229955722365, 0.17698227164650956, 0.17728900210731938, 0.17757517457461705, 0.17782630342137967, 0.1780507286512162, 0.178442285186479, 0.17858884240460055, 0.17846342291656653, 0.17860894224698562, 0.17872105222410414, 0.17892504939416282, 0.17895659497662275, 0.1789635057701132, 0.17894517202796634, 0.17890102713957604, 0.17877517355796885, 0.17868487186671875, 0.17882721329110426, 0.17864294126113364, 0.1784431097218084, 0.17796951189484142, 0.17776486474199932, 0.1776492772093691, 0.17735845940656111, 0.17704031700361955, 0.17680510911373826, 0.17641693226957186, 0.17571569999420963, 0.17531840672804247, 0.174880272041231, 0.17467272048928187, 0.1741230735339155, 0.17336486679303795, 0.1727943981803884, 0.1721897343894969, 0.1718076865193569, 0.1711043407964865, 0.17007169212415837, 0.16937057581777576, 0.16863139355888235, 0.1678971092319571, 0.16708071693083631, 0.16645400323397316, 0.1655467321665784, 0.1646215244023442, 0.1634280746336052, 0.16249529067249757, 0.16167307549333276, 0.16065371378113202, 0.159610348628061, 0.15834916215435713, 0.15728230433071166, 0.15642293418349631, 0.1552576055639228, 0.15407433990858466, 0.15270647898392017, 0.1515068395076556, 0.15028558780909584, 0.14902912829332796, 0.14774669336793714, 0.14647381492131245, 0.14513777257152966, 0.1438495311613087, 0.14246241225948741, 0.1410587693961429, 0.1394516655906272, 0.1380385068834264, 0.13670911557811274, 0.13522963561714488, 0.13373253120681952, 0.13207294109839163, 0.13056044155322372, 0.12921052228797777, 0.12762745832702907, 0.12603377515282513, 0.12431862617392556, 0.12271747441893262, 0.12118937591865557, 0.11954398324028524, 0.11804091321839055, 0.1163565298606023, 0.11467111961482812, 0.11274146162246637, 0.11108191932468975, 0.10937772459794748, 0.10768925132613602, 0.10598515837961675, 0.10433619096412934, 0.10259658509198467, 0.10079413732782265, 0.09904726347728135, 0.09729113866765769, 0.09556145965958238, 0.09378565798156595, 0.09217173979374567, 0.09036709930493553, 0.08856879897459106, 0.08674842533210657, 0.08496427993638161, 0.08316242707313176, 0.08138694053931202, 0.07961327065116237, 0.07785551073937334, 0.07608452310140432, 0.07446929408647573, 0.07268629149987405, 0.07091590524296452, 0.06916419197052998, 0.06741575746695641, 0.0656505940367342, 0.06392716367683912, 0.06221245650710115, 0.06047194371013666, 0.058779378922572484, 0.05734324803269787, 0.05563427268884525, 0.05394771782229041, 0.052116080318462245, 0.050491473081778926, 0.04919495276367896, 0.047550132977344846, 0.04593420322284174, 0.04433837147131932, 0.042775814132911955, 0.041250941135598775, 0.039733385483476075, 0.038238812722053026, 0.03657972437871664, 0.03515308524219788, 0.033966045990630994, 0.032534290570028546, 0.031129254987982146, 0.029743449874674154, 0.02839119634350966, 0.027133277661068572, 0.025822451306286968, 0.024540616036914074, 0.023349649716459732, 0.022116820861852803, 0.020943344859618844, 0.019769824433572312, 0.018628636180347727, 0.0175885497875367, 0.016502087549083236, 0.015464780399667226, 0.014446586677238946, 0.013463439794267985, 0.0123211354813912, 0.011431525395033245, 0.01053068177831223, 0.009693723512380844, 0.008881150165384441, 0.008274528614500471, 0.0074926654190815584, 0.006791267393390972, 0.006081833911299112, 0.005413363294004115, 0.004730105255977394, 0.004149528378769113, 0.00345368793441844, 0.002966716976439249, 0.0025088847413383916, 0.002234038481190559, 0.0018198021696308319, 0.0014060090941848662, 0.001080909748638665, 0.000795372080732189, 0.0007158588903622725, 0.0004894655397918966, 0.00018144667085845764, 7.04219436870876e-05, 0.0, 0.00021967769730320852, 0.00019991214174562937, 4.1871043554265825e-05, 0.00015596014547472723, 0.0003115302317955928, 0.0006403986204385169, 0.000863226747864694, 0.0009697214668771054, 0.0013123665750473842, 0.0016940910383823429, 0.0022887537879723325, 0.0027291537804785345, 0.0030060457093759965, 0.003574941669961132, 0.004181468447873146, 0.004923724949943781, 0.005596733780593753, 0.006433722341675682, 0.00718457157496935, 0.007988526209159848, 0.00868554692347135, 0.009613430035096711, 0.010825556477266627, 0.011807549387835223, 0.012846578452947347, 0.013754438398668833, 0.014927378834564815, 0.01608112573241646, 0.017348808252873042, 0.01865736714275337, 0.020097836144520948, 0.021479819256876486, 0.02278597335836275, 0.024281246805590784, 0.025818329972041587, 0.027432856397012116, 0.029052136795197598, 0.03076633694509668, 0.032472837886187364, 0.03422928600486574, 0.03591100117554372, 0.037782819174055494, 0.03971807880438748, 0.04167353228934139, 0.04367451634270231, 0.045756139350362254, 0.0478452286434218, 0.04987230934132499, 0.05207287204063517, 0.05431592687927679, 0.05693454763431475, 0.05922296786723602, 0.06161619614433808, 0.06402374106515545, 0.06649276989377874, 0.06881357460461891, 0.07142587709732955, 0.07422786350660755, 0.07691069957600026, 0.07964648762461121, 0.08224735937795634, 0.08510983487053184, 0.08806751670576415, 0.09100348011060122, 0.09398392071797075, 0.09684289244680509, 0.09993376859345146, 0.10335091306937236, 0.1064775662336143, 0.10965871614014026, 0.11286537595979937, 0.11615524818491361, 0.11947377417495443, 0.12286438269422381, 0.1263018585823001, 0.12986190490457108, 0.1333822185103612, 0.13683479420039343, 0.1404688776980186, 0.14414445240820578, 0.14784783613087052, 0.1516085834142921, 0.1554034800794106, 0.15924739515231479, 0.16313224451119263, 0.1671896481600595, 0.17114002063545683, 0.17504199329159134, 0.17910053747072202, 0.18320006898993715, 0.18731277012686687, 0.1914973583998914, 0.19562401303841648, 0.19989881111021585, 0.2042071331951826, 0.20848739093336865, 0.21287261474079758, 0.21749030296460892, 0.22191445236091634, 0.22638309196725964, 0.23066670709615328, 0.23524996017695418, 0.2399032889389074, 0.2445392895778193, 0.24920779717364203, 0.25379829299328055, 0.25854638751412173, 0.2636395319031026, 0.2684015131553089, 0.273022604326208, 0.2778981083347638, 0.2828051024186775, 0.2878194521897185, 0.29277893577955755, 0.29758634176278487, 0.3026380438848126, 0.3077120637139954, 0.3130719783871812, 0.3181588996712956, 0.3232841299276456, 0.32844569832952425, 0.3336417852488891, 0.3388222573666699, 0.34408858399340325, 0.34924359150063855, 0.3545806876534737, 0.35993525386004543, 0.36523138602254557, 0.3706311110059079, 0.37596828363408974, 0.38140535530918634, 0.3868526822962833, 0.3925810668411617, 0.3980171545251456, 0.4032037755813618, 0.4087277941822144, 0.4142600570818678, 0.4199811091124397, 0.4255086814703061, 0.430903557462705, 0.43648818974146286, 0.44208120447215665, 0.44764103905487246, 0.4532558572507651, 0.4591254774753255, 0.46472004024786245, 0.470334086084359, 0.47599306507254163, 0.48163601950428186, 0.48716223326093067, 0.4928493076803958, 0.4985398199996579, 0.5040669309772883, 0.5097831381262454, 0.5157265735457218, 0.5213973794550116, 0.5270742331105075, 0.532713933433029, 0.5384032056275168, 0.5439806886168301, 0.5496807732470408, 0.5553714180219834, 0.5609001783396754, 0.5665905902232611, 0.5722414639705465, 0.5778977470415082, 0.5835354526767184, 0.5891689567360281, 0.5947691516022521, 0.6002902584904647, 0.605864609439901, 0.6114182708737644, 0.6170897863060276, 0.6225847337257555, 0.6279489405628912, 0.6334311596109752, 0.6388908034067, 0.644292787109257, 0.6497101246482377, 0.6552604201187863, 0.6606046884559029, 0.665930619729609, 0.6710632366422782, 0.6763686350548692, 0.6818826535780171, 0.687089825722826, 0.6922761945107937, 0.6974323580083357, 0.7025707105523422, 0.7076255137794591, 0.7127125190232705, 0.7177643627286482, 0.722447474605467, 0.727467030423738, 0.7327680325955422, 0.7376307214205459, 0.7424572998638467, 0.7472943511125225, 0.752037072989881, 0.756561111981015, 0.7612471415329795, 0.7658804664601211, 0.7705576618691237, 0.7750722651030485, 0.7795799180357806, 0.7839909888121055, 0.7883533055819076, 0.7923884262505932, 0.7966835748127769, 0.801214456343201, 0.8053343187289604, 0.8094039402542187, 0.8132482700019783, 0.8172333789669914, 0.8212220852045771, 0.8250669342168314, 0.8288494296135422, 0.8325893646480423, 0.8362416227226044, 0.8396013957270789, 0.843153275593393, 0.8466260725675364, 0.8500759428084886, 0.853385722861029, 0.8565174723790924, 0.8596917598861064, 0.8627855140161995, 0.8658199611974089, 0.8687512364357409, 0.8717424633239386, 0.874499112805677, 0.8771846261173072, 0.8797283291102616, 0.8822760108180973, 0.8848067830381665, 0.8871874673555825, 0.8894910046086663, 0.8918199854603827, 0.8939524636937907, 0.8959547290828305, 0.8979426335302244, 0.8998489586287473, 0.9017833017714404, 0.9035091024114497, 0.9051009555680077, 0.9066747915212292, 0.9081634889860001, 0.9093168373498091, 0.9106637493394412, 0.912081738397268, 0.9132040683642947, 0.9142364107264084, 0.9153166909865922, 0.9161500715112937, 0.9165814225101262, 0.9172862592262223, 0.9178867083348394, 0.9186402224572823, 0.9190034051268257, 0.9191416963348787, 0.9193482831438567, 0.9194584162836967, 0.9194376753317847, 0.9193598126025778, 0.9193501597397479, 0.9190558813230859, 0.9186737771742288, 0.9179259675924794, 0.9174002972009747, 0.9167755191440174, 0.9160384903313098, 0.9151987989354249, 0.914250717615863, 0.9132100299615682, 0.9121594830222455, 0.9109086484150545, 0.9095647490429446, 0.9083216016031054, 0.9067671309637048, 0.9048675617817075, 0.9031807143093746, 0.9013942997802057, 0.8995716744221764, 0.8975813594855562, 0.8954840971836894, 0.8933096855737198, 0.8910421300320345, 0.8889380313798221, 0.8864533233840864, 0.8838152363204917, 0.8811841407981259, 0.8784687392245257, 0.875523275880424, 0.8726565792394574, 0.8698766037515878, 0.8668018514474807, 0.8636462832921238, 0.8603126742072309, 0.8570069155560273, 0.8533790639253841, 0.8499304316704942, 0.8463836396499371, 0.8428868698076634, 0.8391336552575644, 0.8351944855248844, 0.8312912194510963, 0.8273021572034095, 0.8234783817290945, 0.819291838701019, 0.8149143155478251, 0.8106103675323783, 0.8060594282910112, 0.8016304229705103, 0.7971197169046268, 0.7925989344383482, 0.787923153273823, 0.7832801760596918, 0.7784506840728516, 0.7735588755074799, 0.768612230739003, 0.7635966715107237, 0.7585695498307728, 0.7534285696575952, 0.7482318322586408, 0.7429659790662897, 0.7376610433895113, 0.7321421589839835, 0.7267487502887072, 0.7212935359477237, 0.7156542500087963, 0.7100980435230988, 0.7045420115084523, 0.6988567450259956, 0.6931187701996433, 0.6873233492511016, 0.6814872892006238, 0.6755213506207174, 0.6696041373937229, 0.6636393396732775, 0.6576640801477398, 0.6516071431735722, 0.645795490018428, 0.6396275378314915, 0.6334406813039903, 0.6272136262439548, 0.6209902357948485, 0.6147320369563279, 0.6084687563410051, 0.6021844728299086, 0.5956860874289017, 0.5893865313211981, 0.5831406041715143, 0.5767742638481528, 0.5703881999276078, 0.5638387608836783, 0.557436722950046, 0.5510118833865196, 0.5445670875910869, 0.5381050278420273, 0.5315175122788157, 0.5250424588856679, 0.5189941963951813, 0.5124338567988994, 0.505888186214915, 0.49919714341498617, 0.4926986798051626, 0.48605886701369777, 0.47958797558648725, 0.47311534889001966, 0.4666849540421697, 0.46021080760257943, 0.453668106780813, 0.4472205476303748, 0.4407798438818201, 0.43441060971014, 0.4279825861593181, 0.42175842192429364, 0.4153422294236838, 0.40895648820661124, 0.40239350766765464, 0.39609495536711903, 0.38984323077730043, 0.3835815286189688, 0.3773445666767297, 0.3711409374265034, 0.36495754351786297, 0.3587210850770609, 0.3526096540319647, 0.3465264659193285, 0.3404182185453447, 0.33440461167460905, 0.32851199103248097, 0.322551212661901, 0.3166307305665315, 0.3109524605656433, 0.3050907331505737, 0.29923559660426485, 0.29348956755617733, 0.28779501269076535, 0.28216598259434833, 0.2765733384315902, 0.2707846510422851, 0.26533011007685664, 0.2599154552859068, 0.254716194799991, 0.2493666463928421, 0.24383127796983806, 0.23862576459133142, 0.23346418220125084, 0.22855669502888934, 0.2234640429199474, 0.2183577192065962, 0.2133998388832139, 0.20850061047507926, 0.20359862263196082, 0.19882716694877065, 0.1940995092355621, 0.1894463122313914, 0.18485232261857928, 0.180249451945327, 0.17578590205088782, 0.17168529029661964, 0.16730140043143676, 0.16299561288929937, 0.1588496342546559, 0.15468567127913357, 0.1504555777732614, 0.1464668955204066, 0.14254640372000316, 0.1386802802441629, 0.1348980021280305, 0.13101021491675507, 0.12738504923901722, 0.12381804145333856, 0.12040071494172992, 0.11694308854185813, 0.11369118382074767, 0.11035093826298237, 0.10708630129536115, 0.10393788361927465, 0.10081654550775986, 0.09766682151181039, 0.09470846534729858, 0.09181777893498165, 0.08908474238977689, 0.0863179901725565, 0.08359618577902948, 0.08097739279678089, 0.07842812174537213, 0.07589252527358435, 0.07348788991124966, 0.07101677614943655, 0.06875883242907899, 0.06655848931633307, 0.06455513140450735, 0.06245516679375304, 0.06027755243962411, 0.05833071244756603, 0.05644209720240577, 0.05479909074686137, 0.0530046521423373, 0.05103773928232329, 0.04941207485604702, 0.047839832921258624, 0.04641165609562843, 0.044936682053176615, 0.04333473920604025, 0.04200264373518536, 0.04071876744592361, 0.03974003175398443, 0.03852245532216574, 0.03736927357653243, 0.03627862532257183, 0.035248735254953194, 0.03425021981127517, 0.0333403251339073, 0.032401688763705236, 0.031609645777056994, 0.03086471401065219, 0.030173242643534808, 0.029519876212990435, 0.029043613246533435, 0.02846400230218393, 0.027935715065729446, 0.027477576155808807, 0.02704358863121324, 0.026670397242416845, 0.0263267246715153, 0.0260271929590922, 0.025617751464319376, 0.025420512719373088, 0.02529532252976517, 0.025153554783580917, 0.02504391390065693, 0.025083244255398197, 0.0250204809672013, 0.02498696516508931, 0.02499555739637042, 0.02503630740225468, 0.024851491280435685, 0.024984124353042234, 0.025164464154195355, 0.025319530791539455, 0.02549065292910568, 0.025740060650595982, 0.025935090023698974, 0.026128320435444625, 0.0263629736156845, 0.026613524617102015, 0.026899903459976438, 0.027177072306891616, 0.027440974630748266, 0.02774935348222163, 0.028068326777604492, 0.028493868365722826, 0.02881896119900766, 0.029122598991736418